Ch1,Ch2,Ch3,Ch4,label
8,42,2,55,1
59,6,2,58,1
3,223,2,119,1
1,73,2,73,1
14,54,2,227,1
15,21,2,130,1
64,76,2,7,1
57,51,2,41,1
13,9,2,4,1
75,23,2,58,1
44,8,2,146,1
38,30,2,59,1
47,17,2,88,1
6,29,2,156,1
60,11,2,0,1
76,98,2,0,1
40,27,2,0,1
103,81,2,37,1
80,53,2,79,1
97,111,2,39,1
1,80,2,195,1
109,87,2,102,1
75,74,2,217,1
69,133,2,84,1
144,110,2,275,1
93,88,2,0,1
109,110,2,81,1
66,177,2,116,1
48,50,2,232,1
63,59,2,67,1
21,35,2,17,1
122,172,2,28,1
74,85,2,163,1
97,143,2,62,1
88,73,2,114,1
18,6,2,232,1
46,83,2,119,1
83,71,2,241,1
53,37,2,50,1
53,37,2,74,1
36,69,2,70,1
18,20,2,101,1
142,104,2,39,1
183,228,2,217,1
90,174,2,165,1
85,290,2,146,1
15,48,2,139,1
102,149,2,161,1
13,31,2,116,1
20,155,2,54,1
11,78,2,344,1
133,131,2,393,1
12,28,2,289,1
31,89,2,47,1
18,49,2,179,1
54,35,2,144,1
11,28,2,301,1
77,239,2,0,1
210,129,2,168,1
275,307,2,677,1
68,53,3,859,1
38,225,2,494,1
67,13,2,141,1
408,323,2,446,1
185,107,2,208,1
68,195,2,278,1
14,37,2,818,1
258,209,2,914,1
146,51,2,289,1
0,136,3,822,1
172,146,1,1023,1
87,161,16,510,1
43,43,1,571,1
291,68,2,918,1
71,136,99,38,1
128,124,20,907,1
79,50,1,637,1
336,451,1,515,1
5,19,2,155,1
556,578,2,518,1
191,140,2,7,1
25,109,2,90,1
63,16,2,785,1
72,64,2,280,1
247,8,2,56,1
211,167,2,359,1
423,56,2,320,1
30,28,3,540,1
59,175,2,147,1
19,48,2,195,1
63,187,2,77,1
23,24,2,37,1
24,218,2,371,1
36,36,2,498,1
39,141,2,228,1
93,124,3,998,1
46,9,2,703,1
11,222,2,9,1
254,159,2,209,1
172,261,2,53,1
157,51,2,88,1
249,342,2,232,1
43,337,2,399,1
141,186,2,332,1
165,240,2,552,1
62,29,2,245,1
55,156,424,1023,1
249,166,106,46,1
86,36,16,138,1
397,7,1,81,1
60,157,2,110,1
9,51,2,403,1
287,7,2,253,1
138,94,2,294,1
101,181,2,346,1
258,25,2,109,1
292,427,3,919,1
19,19,2,789,1
91,281,1,236,1
423,31,2,864,1
288,260,1,216,1
266,392,2,31,1
94,295,3,640,1
90,273,3,1023,1
12,12,1,605,1
549,108,611,1023,1
0,69,213,641,1
0,125,32,1023,1
19,6,305,348,1
6,98,82,1023,1
201,137,259,604,1
80,141,58,863,1
123,360,6,397,1
51,242,1,96,1
516,635,2,81,1
162,124,2,112,1
38,108,2,258,1
5,323,3,578,1
103,76,2,509,1
427,580,2,910,1
45,86,2,610,1
103,63,2,433,1
533,537,2,675,1
142,17,2,627,1
157,42,2,62,1
369,65,3,864,1
152,19,2,495,1
372,79,2,604,1
19,17,2,83,1
119,86,14,1023,1
40,92,1,46,1
192,11,2,946,1
19,471,1,128,1
146,198,2,980,1
359,826,1,623,1
512,17,1,107,1
72,233,2,142,1
169,285,3,998,1
280,120,2,849,1
61,482,618,1023,1
350,149,322,786,1
115,106,43,1023,1
517,149,208,1023,1
169,89,446,215,1
36,47,324,1023,1
221,13,404,903,1
13,132,87,483,1
306,328,160,1023,1
58,91,122,129,1
63,397,241,1012,1
54,70,97,245,1
652,268,11,1023,1
114,148,1,524,1
422,38,62,1023,1
349,168,170,348,1
156,71,33,700,1
152,9,2,574,1
108,192,1,100,1
221,83,2,440,1
118,68,3,296,1
473,490,3,513,1
111,23,2,144,1
456,366,599,1023,1
169,229,230,1023,1
928,598,148,618,1
65,74,490,1023,1
441,594,159,44,1
111,126,50,641,1
60,134,6,495,1
221,88,553,1023,1
539,191,148,327,1
196,74,25,440,1
222,34,1,155,1
59,44,2,569,1
320,270,2,242,1
40,61,2,46,1
20,83,3,977,1
444,201,2,238,1
152,181,2,106,1
79,66,2,128,1
230,115,2,513,1
166,164,2,516,1
321,82,3,616,1
176,181,2,335,1
72,401,2,459,1
498,512,2,697,1
139,108,252,792,1
343,322,106,260,1
194,346,14,817,1
27,140,1,58,1
68,54,2,1023,1
67,192,69,642,1
105,107,12,755,1
94,363,342,1023,1
93,82,255,448,1
47,252,467,1023,1
248,20,381,0,1
710,776,82,465,1
183,576,8,837,1
488,820,1,53,1
203,182,2,85,1
83,110,3,131,1
117,90,3,0,1
212,188,2,310,1
39,20,2,1023,1
268,171,295,1023,1
604,144,109,1016,1
189,340,323,1023,1
121,227,284,23,1
481,313,54,741,1
206,223,4,379,1
431,182,1,294,1
52,24,2,124,1
268,111,3,386,1
326,455,2,62,1
11,43,3,957,1
45,47,54,802,1
513,355,40,109,1
167,14,4,988,1
335,358,1,123,1
68,63,2,377,1
292,736,2,233,1
338,622,2,588,1
242,95,2,148,1
30,133,612,1023,1
236,107,87,694,1
367,437,122,1023,1
53,82,30,976,1
34,85,2,697,1
607,243,2,945,1
545,391,136,486,1
146,197,31,1023,1
11,40,228,1023,1
66,120,399,524,1
73,286,291,1023,1
22,107,433,1005,1
135,75,181,845,1
417,273,306,1023,1
204,47,150,8,1
178,23,22,679,1
232,17,599,1023,1
13,67,123,1023,1
222,121,117,873,1
540,157,30,1023,1
375,193,344,1023,1
367,127,116,717,1
3,186,198,1013,1
161,216,211,362,1
183,23,465,1023,1
71,336,254,106,1
477,451,543,1023,1
527,657,433,560,1
149,53,186,1023,1
281,375,200,701,1
44,19,39,804,1
21,65,2,506,1
188,86,1,275,1
253,72,437,1023,1
47,57,242,253,1
80,136,45,447,1
154,108,3,934,1
369,89,1,622,1
68,205,3,708,1
387,158,25,922,1
95,155,32,293,1
36,12,2,416,1
453,325,1,162,1
51,148,3,1023,1
123,238,154,455,1
263,225,38,827,1
5,47,3,347,1
174,180,1,65,1
127,88,2,41,1
54,51,3,748,1
233,98,2,407,1
74,78,2,869,1
48,182,1,31,1
178,57,2,267,1
563,434,2,21,1
58,35,2,7,1
12,41,2,61,1
110,196,2,160,1
87,464,1,3,1
114,64,2,263,1
42,66,2,263,1
109,99,2,188,1
37,31,2,281,1
59,6,2,406,1
96,35,2,203,1
12,6,2,134,1
144,107,2,198,1
94,77,2,231,1
59,30,2,302,1
136,154,2,58,1
76,28,2,94,1
4,23,2,170,1
24,48,3,728,1
27,180,2,294,1
227,133,2,367,1
34,149,2,447,1
33,105,2,24,1
56,35,2,207,1
21,7,2,102,1
5,15,2,487,1
239,242,1,247,1
152,49,3,550,1
56,119,2,47,1
6,31,2,380,1
83,91,2,404,1
166,250,2,446,1
4,489,2,301,1
185,201,3,692,1
32,20,1,26,1
89,229,2,436,1
85,202,2,2,1
55,92,2,185,1
260,218,2,190,1
44,112,2,297,1
77,135,2,324,1
32,9,2,134,1
55,88,2,57,1
65,123,2,110,1
6,6,2,177,1
62,15,2,6,1
14,105,2,58,1
88,15,2,130,1
25,94,2,229,1
94,40,2,68,1
21,36,2,398,1
202,181,2,171,1
42,78,2,96,1
198,17,2,58,1
27,34,2,134,1
93,32,2,163,1
221,353,2,136,1
22,213,2,102,1
162,187,2,320,1
148,198,2,365,1
120,184,2,123,1
42,122,2,208,1
5,27,2,222,1
71,122,2,135,1
3,12,2,150,1
38,17,2,135,1
190,573,2,159,1
38,98,2,163,1
145,8,2,104,1
2,80,2,0,1
64,24,2,367,1
103,334,2,495,1
168,258,2,140,1
8,12,3,363,1
82,47,2,228,1
89,83,2,3,1
285,235,2,224,1
24,166,2,163,1
118,142,2,0,1
31,23,2,44,1
1,24,2,33,1
19,177,2,412,1
179,260,2,23,1
309,100,2,278,1
285,396,2,386,1
47,90,2,24,1
97,79,2,120,1
11,105,2,360,1
82,121,2,125,1
73,130,2,277,1
202,189,2,217,1
120,94,2,288,1
55,75,2,242,1
51,81,2,328,1
40,78,2,118,1
113,197,2,67,1
29,22,2,288,1
33,5,2,62,1
10,29,2,309,1
175,361,2,87,1
168,271,2,323,1
140,191,2,46,1
4,117,2,231,1
66,77,2,137,1
288,316,2,0,1
11,50,2,236,1
134,308,2,248,1
155,102,2,152,1
482,442,2,206,1
1,102,2,68,1
92,110,2,0,1
32,14,2,71,1
74,69,2,79,1
87,113,2,20,1
74,38,2,587,1
32,61,2,77,1
76,112,3,934,1
46,84,1,112,1
42,49,2,414,1
107,243,2,295,1
95,182,2,261,1
89,88,2,13,1
18,67,2,29,1
50,76,2,269,1
116,63,2,0,1
171,372,2,251,1
351,427,2,30,1
512,726,2,264,1
164,272,2,63,1
124,77,2,41,1
94,128,2,361,1
152,122,2,292,1
8,41,2,110,1
35,57,2,147,1
13,8,2,384,1
139,47,2,32,1
199,176,2,0,1
276,565,2,154,1
60,381,2,137,1
147,442,2,317,1
5,196,2,163,1
100,95,2,317,1
165,278,2,398,1
169,231,2,30,1
144,280,2,90,1
26,54,2,204,1
200,233,2,51,1
76,6,2,366,1
40,208,2,69,1
145,109,2,70,1
170,139,2,184,1
35,130,2,148,1
185,129,2,370,1
90,107,2,120,1
119,81,2,92,1
75,333,2,148,1
328,533,2,30,1
130,339,2,117,1
255,356,2,0,1
54,84,2,164,1
381,475,2,410,1
239,249,2,0,1
57,201,2,628,1
54,16,2,343,1
118,75,2,690,1
153,125,2,174,1
98,22,3,797,1
11,51,2,197,1
119,66,2,99,1
164,99,2,90,1
11,194,2,36,1
12,74,2,269,1
3,211,1,100,1
46,132,2,318,1
213,25,2,10,1
214,292,2,243,1
116,18,2,40,1
510,605,2,230,1
5,125,2,378,1
177,404,2,100,1
164,180,3,698,1
238,335,2,201,1
71,19,2,311,1
160,200,2,12,1
84,15,2,135,1
57,104,2,58,1
253,215,2,12,1
11,72,2,128,1
18,75,2,230,1
182,321,2,55,1
24,117,2,132,1
206,326,1,123,1
278,288,2,239,1
15,277,2,0,1
144,90,2,184,1
255,392,2,290,1
83,275,2,115,1
61,75,2,122,1
96,45,2,275,1
123,148,2,258,1
43,73,2,168,1
12,68,2,446,1
124,179,2,13,1
170,100,2,0,1
1,65,2,59,1
13,187,2,1,1
241,202,2,9,1
224,297,2,199,1
220,310,2,289,1
162,199,2,40,1
42,98,2,53,1
261,355,2,554,1
14,172,2,165,1
197,353,2,800,1
7,41,2,724,1
10,11,2,7,1
153,226,2,322,1
6,41,2,115,1
9,60,2,99,1
7,75,2,237,1
24,8,2,19,1
199,117,2,308,1
232,360,2,233,1
97,176,2,24,1
372,616,2,95,1
167,238,2,106,1
157,232,2,0,1
70,422,2,254,1
179,216,2,120,1
17,69,3,673,1
147,375,2,75,1
100,113,2,143,1
15,58,2,407,1
230,262,2,169,1
36,28,2,110,1
16,27,2,179,1
19,144,2,239,1
133,133,2,85,1
3,27,2,241,1
161,274,2,3,1
166,221,2,55,1
272,459,2,36,1
34,73,2,144,1
179,243,2,77,1
244,295,1,53,1
7,32,2,174,1
218,242,2,194,1
59,10,2,265,1
38,34,2,650,1
97,29,2,0,1
28,13,2,426,1
107,25,2,109,1
70,16,2,238,1
69,82,2,42,1
46,6,2,5,1
0,12,2,137,1
110,149,2,142,1
29,48,2,30,1
4,192,2,116,1
13,202,2,4,1
44,27,2,91,1
184,160,2,128,1
101,68,2,201,1
244,223,2,40,1
49,13,2,99,1
18,17,2,0,1
139,139,2,58,1
80,48,2,73,1
80,108,2,242,1
246,172,2,160,1
74,48,2,303,1
145,92,2,104,1
3,19,2,96,1
127,176,2,0,1
9,66,2,74,1
13,228,2,39,1
103,177,2,0,1
179,104,2,590,1
155,40,2,286,1
460,601,2,479,1
384,728,2,500,1
140,238,2,373,1
10,58,2,339,1
191,251,2,223,1
42,6,2,130,1
71,71,2,235,1
68,107,2,150,1
78,85,2,53,1
18,30,2,145,1
91,121,2,21,1
95,110,2,26,1
35,51,2,232,1
174,195,2,274,1
43,281,2,56,1
295,410,2,82,1
99,209,2,124,1
257,311,1,0,1
152,129,2,286,1
27,12,2,117,1
125,119,2,158,1
10,5,2,153,1
114,121,1,33,1
26,47,2,78,1
120,157,2,3,1
174,63,2,32,1
101,13,2,29,1
221,266,2,149,1
73,153,2,242,1
74,130,2,269,1
143,347,2,775,1
171,348,1,271,1
21,26,2,417,1
293,436,2,360,1
285,393,1,118,1
28,29,2,8,1
45,24,2,183,1
212,193,2,88,1
14,7,2,615,1
209,298,2,144,1
0,37,2,314,1
93,8,2,571,1
173,275,2,109,1
132,200,2,133,1
222,552,2,9,1
55,95,2,123,1
115,296,2,506,1
294,281,2,470,1
285,10,2,471,1
167,203,2,283,1
80,19,2,536,1
4,165,2,535,1
39,169,2,648,1
169,177,2,307,1
223,365,2,113,1
19,161,2,838,1
151,315,2,445,1
184,120,2,13,1
154,67,6,1023,1
131,385,1,489,1
141,72,2,525,1
367,920,1,19,1
233,390,2,1023,1
134,285,150,72,1
88,420,575,1023,1
47,126,141,1023,1
38,149,271,242,1
7,160,50,224,1
67,128,4,181,1
66,489,1,165,1
26,145,2,24,1
0,214,3,449,1
222,255,2,697,1
177,354,2,28,1
314,607,3,577,1
355,666,2,217,1
226,371,2,180,1
70,296,2,444,1
1,23,2,416,1
10,56,2,182,1
157,153,2,554,1
64,7,2,205,1
122,82,2,435,1
257,608,2,567,1
43,38,2,473,1
409,746,2,252,1
91,81,608,1023,1
306,363,91,42,1
163,349,14,326,1
273,285,1,25,1
7,382,2,660,1
14,25,2,463,1
75,156,2,442,1
170,503,2,345,1
76,34,2,197,1
201,286,2,498,1
74,32,2,75,1
20,167,2,402,1
32,111,2,53,1
48,43,2,511,1
364,125,2,136,1
476,932,2,362,1
427,434,2,146,1
197,588,2,172,1
169,22,2,194,1
143,54,2,152,1
251,569,2,206,1
125,215,2,0,1
126,215,2,328,1
19,210,2,359,1
265,220,2,259,1
55,109,2,263,1
28,21,2,359,1
343,238,2,272,1
68,148,2,9,1
526,297,3,721,1
264,78,2,192,1
116,144,2,280,1
136,170,2,152,1
26,45,2,237,1
111,173,2,135,1
404,689,2,343,1
82,139,2,23,1
201,320,2,170,1
102,88,2,121,1
22,13,2,315,1
284,260,2,360,1
626,508,2,459,1
203,60,2,211,1
36,608,2,863,1
34,256,2,424,1
220,18,3,747,1
211,122,2,283,1
72,257,2,872,1
133,27,3,676,1
141,121,1,230,1
49,43,3,915,1
314,344,2,129,1
334,251,2,744,1
75,207,2,554,1
665,171,2,751,1
18,72,2,706,1
755,200,1,65,1
257,53,2,81,1
22,164,2,736,1
113,57,1,564,1
206,81,2,211,1
426,505,3,1015,1
516,329,1,397,1
39,251,4,1023,1
254,259,2,259,1
87,19,1,5,1
237,413,2,310,1
39,156,2,914,1
433,716,1,239,1
118,539,1,93,1
38,178,2,335,1
538,714,2,259,1
224,267,2,12,1
86,506,2,699,1
220,46,2,890,1
198,119,2,98,1
66,168,2,11,1
166,415,3,978,1
14,77,2,871,1
229,18,2,1023,1
400,216,286,759,1
123,206,77,423,1
405,483,4,1023,1
319,536,10,239,1
102,116,1,313,1
200,255,2,395,1
111,11,2,189,1
116,159,2,96,1
13,501,2,701,1
232,175,614,1023,1
69,183,242,131,1
222,53,511,1023,1
134,12,260,955,1
44,211,127,1023,1
151,184,146,599,1
130,53,26,949,1
62,62,75,203,1
45,351,12,87,1
104,11,1,153,1
474,705,2,754,1
13,89,2,11,1
697,656,4,1016,1
413,28,2,299,1
238,85,2,138,1
133,166,2,794,1
41,8,389,1023,1
150,6,164,882,1
237,14,62,1023,1
195,136,137,700,1
149,51,21,648,1
40,91,1,441,1
103,50,2,357,1
820,912,3,334,1
371,241,2,223,1
608,601,2,529,1
40,105,2,319,1
88,228,2,146,1
193,188,2,97,1
396,235,2,157,1
8,78,2,433,1
8,97,2,994,1
225,288,2,727,1
84,19,2,852,1
18,50,2,545,1
91,65,118,1023,1
833,425,306,295,1
311,32,390,1023,1
174,13,489,474,1
204,129,123,773,1
253,67,269,899,1
268,286,116,867,1
289,259,266,1023,1
306,426,235,693,1
1,50,278,1023,1
38,221,42,561,1
93,101,135,1023,1
323,267,28,302,1
132,21,2,595,1
92,93,2,1023,1
157,149,2,636,1
67,96,2,447,1
72,31,2,587,1
13,331,2,11,1
35,64,2,577,1
210,226,2,8,1
33,9,2,178,1
633,589,2,653,1
225,35,2,7,1
106,751,2,631,1
302,301,2,475,1
497,736,2,15,1
62,137,2,1023,1
290,262,24,113,1
0,162,2,953,1
130,43,1,461,1
122,9,2,452,1
67,64,2,742,1
219,111,2,204,1
108,193,609,1023,1
91,14,184,431,1
224,136,566,1023,1
177,244,276,218,1
144,191,445,1023,1
599,779,265,230,1
196,317,51,1023,1
63,431,168,881,1
156,120,344,1023,1
92,68,181,1023,1
430,444,167,457,1
122,188,26,681,1
80,97,1,103,1
183,250,2,226,1
18,17,3,23,1
247,261,3,205,1
165,217,2,534,1
270,503,2,105,1
70,60,2,39,1
393,192,53,661,1
84,27,25,595,1
283,503,0,910,1
478,234,1,166,1
255,137,2,61,1
176,216,3,1023,1
110,248,2,45,1
6,84,2,180,1
1,60,2,308,1
57,9,2,155,1
177,170,2,46,1
5,20,2,307,1
40,43,2,342,1
3,23,2,126,1
144,180,3,729,1
9,6,2,468,1
158,142,2,231,1
28,14,2,608,1
108,198,2,8,1
8,179,2,258,1
118,42,2,184,1
251,115,2,136,1
90,49,2,143,1
104,84,2,143,1
20,66,2,213,1
51,65,2,285,1
22,72,2,114,1
45,54,2,222,1
113,257,2,26,1
119,90,2,346,1
118,184,2,219,1
40,39,2,28,1
247,198,2,552,1
240,405,2,177,1
18,194,2,497,1
109,158,2,147,1
40,61,2,390,1
140,180,2,39,1
32,14,2,426,1
61,40,2,178,1
9,99,2,185,1
90,25,2,262,1
59,45,2,106,1
156,238,2,739,1
55,73,2,286,1
127,362,2,603,1
281,241,2,83,1
163,159,2,432,1
105,292,2,119,1
79,57,2,581,1
68,154,2,11,1
107,159,2,134,1
88,81,2,0,1
43,19,2,70,1
53,39,2,118,1
84,28,2,259,1
64,9,2,329,1
98,94,2,88,1
21,23,2,63,1
51,8,2,169,1
85,42,2,35,1
13,101,2,197,1
197,222,2,42,1
9,11,2,54,1
209,269,2,28,1
27,118,2,308,1
192,326,2,4,1
58,19,2,432,1
5,48,2,70,1
268,266,2,185,1
228,218,2,194,1
188,212,2,34,1
10,7,2,101,1
13,31,2,327,1
148,197,2,83,1
44,216,2,310,1
58,33,2,80,1
96,39,2,145,1
118,186,2,129,1
190,332,2,388,1
151,278,2,32,1
23,8,2,387,1
15,23,2,78,1
68,270,2,23,1
67,40,2,70,1
43,108,2,151,1
109,124,2,469,1
317,396,2,190,1
10,29,3,840,1
330,413,1,27,1
7,16,2,290,1
137,169,2,52,1
5,14,2,236,1
107,122,2,322,1
166,147,2,102,1
234,396,2,0,1
232,214,2,291,1
195,47,2,175,1
83,216,2,0,1
380,455,2,94,1
206,210,2,349,1
128,191,2,102,1
25,39,2,333,1
26,54,2,453,1
202,307,2,15,1
31,64,2,374,1
107,94,2,508,1
45,71,2,4,1
24,80,2,512,1
30,83,2,498,1
124,197,2,478,1
25,8,2,532,1
93,186,2,177,1
5,54,2,771,1
116,98,2,10,1
82,232,2,712,1
110,219,2,348,1
81,318,2,104,1
48,13,2,369,1
0,6,2,584,1
168,361,2,196,1
167,247,2,612,1
123,291,2,19,1
8,40,2,184,1
128,51,2,191,1
8,26,2,197,1
6,311,2,63,1
170,231,2,4,1
191,241,2,197,1
61,203,2,103,1
84,226,2,66,1
3,22,2,301,1
94,67,2,130,1
36,103,2,0,1
243,310,2,324,1
35,46,2,265,1
212,345,2,29,1
116,77,2,459,1
148,112,2,70,1
67,98,2,304,1
134,200,2,123,1
131,134,2,50,1
135,40,2,597,1
26,23,2,158,1
369,294,3,794,1
313,279,2,339,1
61,143,2,318,1
68,11,2,142,1
65,163,2,380,1
111,159,2,5,1
143,154,2,27,1
385,394,2,302,1
77,70,2,281,1
45,186,2,168,1
4,195,2,416,1
58,135,1,38,1
77,20,2,424,1
68,213,2,171,1
129,49,2,168,1
161,119,2,257,1
180,210,2,250,1
278,510,2,204,1
169,245,2,324,1
64,186,2,43,1
26,12,2,116,1
55,40,2,235,1
81,164,2,264,1
272,390,2,347,1
69,78,2,92,1
132,40,2,328,1
178,288,2,178,1
84,159,2,33,1
35,115,2,53,1
86,387,2,97,1
62,158,2,33,1
6,28,2,106,1
92,54,2,412,1
167,214,2,663,1
5,16,2,167,1
43,23,2,308,1
105,56,2,595,1
146,137,2,100,1
63,252,2,383,1
133,16,2,440,1
69,192,2,656,1
302,361,2,148,1
97,151,2,298,1
236,320,2,119,1
22,86,2,205,1
208,151,2,292,1
176,109,2,110,1
29,69,2,15,1
96,27,2,292,1
39,55,2,6,1
107,142,2,72,1
5,71,2,168,1
169,105,2,154,1
4,81,2,343,1
50,137,2,12,1
24,95,2,100,1
10,47,2,294,1
202,458,2,261,1
59,21,2,125,1
33,98,2,0,1
230,282,3,266,1
136,145,2,68,1
24,45,2,166,1
104,142,2,50,1
2,35,2,63,1
163,166,2,271,1
98,219,2,8,1
246,254,2,37,1
73,29,2,131,1
120,26,2,104,1
50,150,2,61,1
257,201,2,52,1
79,44,2,144,1
284,324,2,23,1
153,228,2,65,1
452,514,2,289,1
59,101,2,24,1
78,90,2,28,1
7,28,2,88,1
17,106,2,62,1
72,54,2,0,1
123,68,2,67,1
2,56,2,197,1
336,478,2,0,1
87,261,2,72,1
342,376,2,175,1
121,125,2,109,1
72,163,2,0,1
203,309,2,103,1
118,155,2,260,1
293,359,2,614,1
112,112,2,0,1
211,273,2,137,1
1,43,2,101,1
9,85,2,290,1
232,107,2,218,1
200,225,2,68,1
63,103,2,191,1
137,123,2,112,1
23,27,2,526,1
317,420,2,56,1
72,33,2,53,1
286,259,2,303,1
68,290,2,306,1
74,85,2,47,1
7,9,2,349,1
319,529,2,0,1
65,191,2,171,1
227,275,2,147,1
50,15,2,175,1
158,225,2,0,1
61,9,2,34,1
5,52,2,100,1
166,223,2,27,1
30,17,2,7,1
147,144,2,251,1
157,87,2,0,1
26,66,2,210,1
146,202,2,82,1
45,29,2,50,1
357,408,3,2,1
166,215,2,141,1
189,250,2,103,1
101,127,2,123,1
250,354,2,34,1
247,267,2,42,1
3,68,2,7,1
99,107,2,527,1
120,67,2,263,1
51,113,2,299,1
252,265,2,546,1
54,41,2,188,1
123,65,2,120,1
35,21,2,156,1
193,349,2,221,1
82,112,2,49,1
166,460,2,256,1
94,48,2,131,1
63,69,2,153,1
45,34,2,221,1
171,283,2,132,1
56,93,2,167,1
160,168,2,54,1
211,170,2,240,1
28,10,2,51,1
145,123,2,0,1
161,178,2,129,1
210,239,2,94,1
4,135,2,237,1
125,114,2,11,1
169,22,2,32,1
239,205,2,32,1
104,39,2,345,1
115,19,2,378,1
175,256,2,143,1
15,23,2,182,1
82,97,2,104,1
40,39,2,274,1
163,62,2,561,1
192,109,2,104,1
387,282,2,758,1
5,7,2,687,1
324,219,2,743,1
96,218,2,362,1
16,17,2,271,1
157,217,2,549,1
44,87,2,83,1
12,12,2,184,1
129,111,2,474,1
171,221,2,54,1
336,239,2,284,1
14,258,2,346,1
341,330,615,1023,1
297,225,208,199,1
4,54,473,1023,1
103,80,318,878,1
133,145,76,216,1
27,93,8,405,1
131,113,1,470,1
107,127,2,33,1
245,256,2,36,1
229,218,2,52,1
7,145,2,275,1
159,68,2,21,1
57,254,2,256,1
169,195,2,259,1
49,19,2,118,1
5,37,2,223,1
45,113,2,459,1
284,462,2,545,1
174,88,2,130,1
11,54,2,5,1
54,14,2,112,1
251,125,2,245,1
180,76,2,521,1
372,209,2,574,1
92,33,2,953,1
182,70,2,158,1
139,206,2,652,1
73,191,2,713,1
96,243,2,333,1
112,36,2,1011,1
104,604,1,254,1
95,783,2,628,1
3,392,1,655,1
349,33,2,925,1
269,255,2,531,1
188,92,2,398,1
53,55,2,49,1
183,87,2,77,1
84,111,3,756,1
246,20,4,523,1
98,58,1,781,1
69,7,2,560,1
115,71,2,259,1
197,235,2,8,1
127,41,3,793,1
198,642,2,341,1
39,81,2,458,1
196,374,2,784,1
168,335,1,260,1
27,28,3,430,1
67,39,2,288,1
430,203,2,29,1
57,75,2,289,1
497,246,2,469,1
69,74,2,70,1
510,141,2,528,1
82,104,2,574,1
151,18,2,11,1
229,288,2,212,1
94,25,2,377,1
38,132,2,676,1
62,90,2,680,1
124,18,2,142,1
273,471,2,919,1
184,273,2,488,1
27,104,2,152,1
197,15,2,284,1
9,8,2,552,1
455,331,2,418,1
170,61,2,211,1
101,40,2,212,1
385,281,2,452,1
48,216,2,555,1
18,78,2,230,1
1,20,2,560,1
192,360,2,5,1
12,98,2,245,1
57,128,2,63,1
215,322,2,59,1
187,162,2,560,1
14,482,1,247,1
95,11,2,622,1
266,260,2,77,1
476,299,2,0,1
225,133,2,417,1
454,359,3,899,1
19,85,2,26,1
52,27,2,319,1
86,223,2,4,1
86,43,2,245,1
391,558,2,440,1
101,320,2,278,1
274,552,2,590,1
607,580,1,206,1
513,478,2,2,1
463,714,2,5,1
802,1023,2,34,1
147,290,2,708,1
477,442,2,326,1
320,20,3,829,1
135,9,2,118,1
324,217,2,297,1
133,52,3,800,1
496,395,1,352,1
1,130,2,248,1
172,322,2,19,1
63,18,2,25,1
233,160,2,0,1
260,22,2,323,1
545,545,1,186,1
69,55,2,165,1
325,14,2,561,1
142,203,2,160,1
152,95,3,1023,1
248,192,1,381,1
164,41,1,759,1
386,102,1,553,1
47,264,1,51,1
139,60,18,1023,1
261,401,1,174,1
375,269,1,1023,1
448,342,175,350,1
294,418,37,1023,1
287,30,3,711,1
279,415,1,43,1
54,136,2,743,1
5,113,2,689,1
449,15,3,778,1
313,280,2,114,1
0,49,2,109,1
6,63,2,596,1
99,95,2,758,1
524,899,2,779,1
200,555,2,911,1
116,565,1,86,1
32,64,2,763,1
625,37,2,101,1
402,381,2,305,1
370,63,2,397,1
245,257,2,347,1
245,127,2,466,1
377,320,2,28,1
204,109,2,340,1
482,156,2,535,1
26,466,596,1023,1
278,365,167,222,1
60,114,494,1023,1
570,383,425,645,1
372,170,101,295,1
298,473,515,1023,1
395,329,134,621,1
201,117,20,1023,1
39,32,1,99,1
16,151,2,1023,1
100,149,1,64,1
389,265,3,654,1
55,66,2,915,1
209,269,2,343,1
420,75,2,138,1
234,183,2,288,1
233,11,2,644,1
323,263,104,886,1
235,248,103,272,1
116,116,14,507,1
284,187,1,162,1
1,63,1,253,1
98,60,3,1023,1
179,30,330,886,1
15,6,116,315,1
234,88,16,727,1
37,27,1,599,1
330,435,2,80,1
91,118,2,125,1
143,307,2,484,1
310,376,2,290,1
268,293,2,483,1
481,9,2,123,1
586,418,2,187,1
515,134,2,69,1
311,22,3,975,1
356,565,315,954,1
130,28,108,254,1
39,58,14,1023,1
125,133,382,1023,1
263,204,274,674,1
68,6,443,1023,1
78,45,157,156,1
468,20,25,841,1
303,215,1,370,1
19,68,2,577,1
53,46,3,100,1
415,316,2,484,1
240,104,3,862,1
106,374,2,135,1
1,138,2,289,1
206,153,3,689,1
380,746,2,537,1
251,139,2,551,1
219,323,2,277,1
172,136,2,74,1
20,34,2,74,1
149,171,2,52,1
0,59,2,350,1
228,230,2,0,1
321,189,3,480,1
418,74,2,385,1
53,57,2,590,1
76,74,2,86,1
279,218,2,578,1
109,284,2,443,1
10,44,595,1023,1
370,717,145,242,1
96,104,380,1023,1
462,701,141,211,1
91,75,22,34,1
60,278,1,14,1
180,126,2,379,1
70,92,2,309,1
130,200,3,352,1
83,30,2,357,1
64,58,2,682,1
182,110,3,579,1
55,32,3,1023,1
77,221,2,58,1
59,146,2,348,1
41,16,2,270,1
31,43,2,51,1
134,45,2,9,1
32,93,2,137,1
52,160,2,203,1
92,75,2,254,1
45,149,2,335,1
17,99,2,436,1
63,158,2,33,1
76,37,2,311,1
13,45,2,10,1
83,84,2,288,1
73,26,2,106,1
329,246,2,65,1
30,99,2,58,1
69,218,2,117,1
26,292,2,264,1
342,505,2,0,1
20,15,2,315,1
28,62,2,38,1
148,155,2,5,1
84,51,2,449,1
42,178,2,208,1
222,93,2,275,1
140,204,2,58,1
140,104,2,288,1
353,512,2,93,1
19,125,2,529,1
288,346,2,15,1
10,65,2,5,1
94,90,2,120,1
47,51,2,245,1
85,95,2,97,1
165,149,2,292,1
56,68,2,79,1
56,50,2,375,1
266,212,2,101,1
15,380,2,77,1
49,12,2,227,1
165,144,2,533,1
58,104,2,254,1
153,45,2,371,1
13,67,2,232,1
225,159,2,249,1
51,9,2,45,1
144,199,2,40,1
39,87,2,108,1
8,76,2,109,1
53,7,2,266,1
121,205,2,138,1
41,103,2,25,1
52,133,2,2,1
40,201,2,367,1
119,196,2,104,1
131,237,2,276,1
278,191,1,64,1
185,50,2,113,1
73,6,2,5,1
95,7,2,232,1
145,292,2,0,1
61,68,2,50,1
143,221,2,0,1
99,169,2,100,1
21,27,2,35,1
93,86,2,0,1
15,63,2,228,1
40,19,2,104,1
57,88,2,84,1
115,167,2,274,1
38,70,2,471,1
54,229,2,104,1
103,32,2,228,1
219,122,2,39,1
74,102,2,252,1
123,155,2,9,1
132,190,2,180,1
79,46,2,393,1
45,98,2,150,1
321,220,2,328,1
52,35,2,185,1
104,168,2,248,1
6,123,2,828,1
61,92,2,217,1
189,251,3,1023,1
199,166,2,25,1
90,115,2,67,1
206,302,2,111,1
65,29,2,327,1
97,160,2,226,1
34,103,2,261,1
74,111,2,136,1
9,39,2,191,1
119,44,2,253,1
131,29,2,106,1
133,183,1,64,1
113,42,2,395,1
55,104,2,459,1
175,186,2,149,1
68,18,3,583,1
234,138,2,320,1
55,81,2,358,1
218,153,2,64,1
182,157,2,282,1
27,51,2,122,1
112,129,2,127,1
115,157,2,216,1
273,149,2,15,1
22,45,2,162,1
80,24,2,187,1
47,16,2,0,1
4,289,2,409,1
164,164,2,476,1
45,37,2,250,1
120,72,3,791,1
3,69,2,0,1
219,172,2,265,1
107,364,2,49,1
35,131,2,276,1
82,204,2,367,1
131,204,2,41,1
57,59,2,143,1
104,98,2,257,1
179,378,2,135,1
46,24,2,0,1
281,467,2,139,1
214,278,2,459,1
94,133,2,247,1
195,59,2,230,1
115,6,2,177,1
120,277,2,389,1
29,162,2,207,1
41,54,2,487,1
73,144,2,192,1
47,39,2,684,1
69,191,2,330,1
75,29,2,50,1
391,465,2,194,1
75,19,2,180,1
204,303,2,206,1
96,207,2,0,1
217,332,2,42,1
2,43,2,365,1
134,11,2,77,1
264,328,2,40,1
60,7,2,299,1
116,36,2,383,1
109,131,2,178,1
56,79,2,318,1
135,105,2,14,1
180,255,2,0,1
316,343,2,173,1
153,57,2,278,1
116,311,2,10,1
80,122,2,57,1
93,37,2,239,1
34,137,2,210,1
92,251,2,41,1
91,170,2,82,1
70,15,2,169,1
171,313,2,117,1
180,103,2,36,1
239,324,2,377,1
178,113,2,264,1
159,161,2,27,1
36,38,2,86,1
97,25,2,210,1
110,20,2,351,1
137,35,2,269,1
173,47,2,111,1
234,327,2,136,1
233,274,2,37,1
248,248,2,152,1
32,109,2,66,1
71,85,2,26,1
38,36,2,232,1
48,160,2,91,1
32,17,2,97,1
107,85,2,82,1
439,363,1,239,1
56,134,2,193,1
89,17,2,0,1
101,134,2,145,1
73,213,3,652,1
154,103,2,236,1
55,42,2,143,1
21,75,2,171,1
277,371,2,29,1
76,126,2,133,1
114,97,2,126,1
11,71,2,20,1
89,53,2,4,1
400,548,1,146,1
145,187,2,44,1
204,303,2,73,1
69,140,2,45,1
47,123,2,128,1
3,62,2,5,1
41,40,2,49,1
74,97,2,36,1
113,154,2,16,1
62,29,2,5,1
167,146,2,78,1
96,189,2,27,1
129,257,2,0,1
2,20,2,55,1
176,189,2,120,1
127,114,2,11,1
37,35,2,0,1
376,421,2,65,1
135,152,2,2,1
214,207,2,123,1
222,247,2,76,1
105,105,2,57,1
165,228,2,10,1
142,91,2,101,1
57,12,2,49,1
230,319,2,126,1
6,63,2,26,1
248,278,2,165,1
4,164,2,48,1
83,185,2,52,1
342,437,2,64,1
24,122,2,17,1
91,100,2,126,1
133,89,2,0,1
32,6,2,190,1
209,232,2,229,1
18,11,2,185,1
159,270,2,79,1
42,58,2,132,1
124,108,2,65,1
182,141,2,26,1
107,168,2,14,1
297,438,2,93,1
127,162,2,115,1
138,146,2,21,1
199,189,2,91,1
3,95,2,65,1
230,345,2,204,1
36,112,2,109,1
27,186,2,37,1
121,230,2,7,1
12,63,2,42,1
190,208,2,37,1
111,110,2,0,1
136,55,2,53,1
228,259,2,88,1
18,13,2,121,1
225,254,1,157,1
264,233,2,208,1
15,79,2,18,1
176,85,2,170,1
122,148,2,101,1
29,148,2,91,1
216,220,2,100,1
19,179,2,81,1
118,127,2,339,1
37,163,2,0,1
202,154,1,385,1
97,51,2,169,1
49,108,2,85,1
121,69,2,80,1
43,143,2,18,1
100,152,2,74,1
205,222,2,112,1
18,101,2,21,1
263,308,2,113,1
37,35,2,32,1
122,88,2,557,1
64,150,2,75,1
110,184,2,337,1
7,75,2,72,1
89,16,2,17,1
58,132,2,242,1
47,165,2,141,1
116,93,2,54,1
121,179,2,207,1
309,448,2,70,1
76,65,2,96,1
147,215,2,121,1
120,107,2,221,1
111,74,2,525,1
132,224,2,468,1
185,188,2,95,1
220,193,2,6,1
196,141,2,312,1
227,29,2,334,1
63,113,3,439,1
182,194,2,207,1
241,102,2,262,1
62,30,2,17,1
312,239,2,147,1
269,167,2,511,1
254,168,2,425,1
71,35,2,273,1
12,63,2,702,1
263,365,1,114,1
51,89,2,31,1
201,286,2,919,1
145,20,2,595,1
252,57,2,139,1
14,79,3,809,1
57,55,2,376,1
113,108,2,187,1
311,101,2,61,1
15,36,2,212,1
67,10,2,80,1
98,260,2,341,1
2,101,2,180,1
241,427,2,66,1
124,129,2,364,1
302,430,2,621,1
294,257,2,249,1
7,58,2,537,1
375,64,2,406,1
47,253,343,1023,1
272,30,238,396,1
317,492,52,755,1
277,293,4,721,1
14,20,1,12,1
194,20,2,129,1
71,338,2,144,1
473,227,2,299,1
164,388,2,232,1
328,117,2,331,1
217,8,2,272,1
224,201,2,368,1
0,31,2,615,1
34,59,2,0,1
289,289,3,580,1
312,265,2,319,1
14,161,2,4,1
292,226,2,312,1
3,51,2,408,1
271,254,2,315,1
427,593,2,138,1
300,131,2,483,1
35,39,2,2,1
481,245,3,713,1
41,148,2,869,1
360,72,2,116,1
475,262,1,438,1
66,29,2,155,1
231,271,2,603,1
153,139,2,13,1
135,278,2,399,1
511,498,2,227,1
307,283,2,339,1
557,436,2,259,1
70,245,2,391,1
179,324,2,523,1
255,62,2,117,1
249,182,2,366,1
7,33,2,62,1
302,192,2,543,1
68,11,2,59,1
318,324,2,358,1
29,107,2,68,1
87,162,2,257,1
206,69,2,406,1
0,84,2,477,1
173,158,2,598,1
0,78,2,534,1
22,182,2,714,1
150,292,2,196,1
354,299,2,216,1
183,423,1,346,1
363,652,2,100,1
531,1023,2,32,1
203,152,2,0,1
355,31,2,53,1
25,38,2,292,1
127,50,2,230,1
222,187,2,29,1
463,32,2,418,1
67,280,2,105,1
281,21,3,690,1
176,186,2,35,1
140,260,2,631,1
299,582,2,322,1
140,55,2,337,1
40,773,1,331,1
825,800,2,616,1
163,491,2,508,1
5,130,2,347,1
185,278,2,386,1
106,82,2,781,1
0,47,2,654,1
146,61,2,398,1
246,275,2,245,1
153,68,2,96,1
333,93,2,600,1
332,31,2,25,1
410,365,2,554,1
382,76,2,599,1
307,161,2,392,1
161,168,2,672,1
200,800,2,360,1
593,660,2,149,1
564,111,51,306,1
49,65,9,199,1
28,214,1,663,1
127,50,2,502,1
12,189,1,613,1
244,78,2,113,1
197,107,2,158,1
359,356,2,499,1
196,202,2,184,1
19,204,2,497,1
467,326,2,932,1
13,73,1,303,1
109,180,2,544,1
496,280,3,1023,1
58,318,2,586,1
305,106,2,307,1
93,395,2,260,1
302,51,2,59,1
384,300,2,626,1
251,408,1,49,1
320,270,2,616,1
36,341,2,960,1
81,251,1,181,1
135,365,1,383,1
292,420,2,628,1
52,44,2,253,1
174,42,3,914,1
550,300,2,1000,1
167,55,2,795,1
376,224,2,301,1
618,562,3,805,1
472,250,1,402,1
415,649,2,488,1
40,507,2,126,1
311,126,2,474,1
258,404,2,223,1
40,86,2,669,1
476,275,2,306,1
52,53,3,854,1
390,633,2,200,1
240,18,2,507,1
30,154,2,368,1
123,184,2,95,1
58,19,3,878,1
266,223,2,38,1
10,53,2,1014,1
672,515,1,7,1
207,156,2,565,1
82,220,2,658,1
94,184,2,174,1
70,159,2,618,1
8,105,3,739,1
29,246,1,153,1
169,85,2,548,1
184,54,2,224,1
315,184,2,751,1
567,285,2,496,1
63,188,2,616,1
63,192,3,1023,1
179,693,2,352,1
21,15,2,290,1
47,59,2,634,1
146,201,2,682,1
44,120,2,140,1
127,115,2,240,1
26,28,3,1023,1
29,404,237,252,1
897,287,54,836,1
518,640,60,1023,1
876,590,317,655,1
455,198,126,267,1
40,127,18,508,1
19,203,1,46,1
171,96,2,448,1
4,29,3,808,1
132,160,2,550,1
23,69,2,361,1
143,50,2,96,1
69,282,2,186,1
259,108,3,1023,1
16,232,307,411,1
229,250,90,1023,1
585,911,11,83,1
677,362,0,421,1
350,56,2,545,1
419,165,2,380,1
361,228,3,612,1
81,50,2,387,1
100,251,2,436,1
80,117,2,220,1
198,297,2,102,1
203,80,2,349,1
1023,445,243,419,1
187,247,44,485,1
462,171,5,232,1
394,125,1,219,1
354,20,2,245,1
324,198,2,516,1
339,265,2,330,1
165,96,2,1006,1
157,313,2,365,1
95,333,2,537,1
535,655,1,379,1
128,123,2,250,1
371,338,2,295,1
74,194,2,79,1
11,139,3,797,1
197,92,2,76,1
252,65,2,492,1
523,177,2,419,1
5,189,2,632,1
84,157,2,86,1
116,106,2,721,1
165,122,2,200,1
152,89,2,420,1
219,239,2,185,1
162,105,2,206,1
191,114,2,8,1
23,7,2,344,1
0,135,2,338,1
100,219,2,35,1
98,214,2,551,1
103,251,2,52,1
1,43,2,648,1
308,371,2,141,1
12,21,2,54,1
38,203,2,397,1
19,11,3,849,1
138,30,2,64,1
26,130,2,344,1
158,82,2,88,1
187,220,2,45,1
198,123,2,441,1
120,150,2,409,1
304,163,2,509,1
305,219,2,246,1
47,16,2,179,1
255,232,2,0,1
121,211,2,59,1
265,188,2,55,1
19,58,2,353,1
59,282,2,183,1
55,134,2,108,1
262,133,2,248,1
115,228,2,253,1
42,9,2,45,1
68,19,2,0,1
250,274,2,348,1
202,150,2,85,1
141,147,2,457,1
132,203,2,327,1
280,378,2,86,1
25,50,2,545,1
7,14,2,492,1
47,62,2,255,1
8,200,2,483,1
88,130,2,491,1
40,45,2,228,1
86,237,2,147,1
36,120,2,386,1
106,162,2,277,1
30,9,2,210,1
70,20,2,77,1
4,134,3,755,1
146,74,2,329,1
47,61,2,80,1
64,119,2,111,1
253,331,2,104,1
68,75,2,207,1
287,348,2,313,1
182,402,2,31,1
82,132,2,90,1
135,124,2,76,1
50,90,2,227,1
93,55,2,4,1
14,119,2,195,1
61,329,2,153,1
332,127,2,61,1
245,103,2,39,1
200,41,2,53,1
311,351,2,593,1
41,107,2,191,1
110,200,2,595,1
46,11,2,506,1
209,298,2,162,1
23,40,2,586,1
63,76,2,53,1
240,166,2,48,1
5,147,2,19,1
12,31,2,353,1
30,241,2,24,1
167,383,2,14,1
55,41,2,235,1
125,87,2,217,1
10,153,2,132,1
130,33,2,171,1
247,130,2,0,1
366,297,2,157,1
95,108,2,202,1
152,120,2,124,1
120,72,2,0,1
146,152,2,225,1
64,72,2,52,1
107,65,2,6,1
6,103,2,32,1
3,80,2,202,1
144,283,2,642,1
304,64,2,0,1
540,1023,3,739,1
22,82,1,369,1
109,525,2,358,1
87,29,2,151,1
90,107,2,196,1
3,53,3,781,1
127,164,2,554,1
225,138,2,67,1
27,14,2,459,1
155,291,2,232,1
60,56,2,201,1
107,67,2,174,1
72,44,2,53,1
98,188,2,113,1
9,114,2,559,1
104,147,2,62,1
249,932,2,379,1
228,183,2,244,1
108,102,2,414,1
260,166,2,187,1
144,195,2,319,1
81,63,2,106,1
169,206,2,117,1
47,8,2,59,1
125,53,2,151,1
27,150,2,409,1
36,133,2,383,1
122,138,1,90,1
4,52,2,250,1
288,456,2,15,1
69,66,2,118,1
228,296,2,64,1
38,7,2,1,1
58,124,2,149,1
19,7,2,116,1
67,90,2,117,1
56,22,2,173,1
13,187,2,298,1
61,17,2,323,1
156,289,2,231,1
99,178,2,169,1
115,61,2,0,1
206,204,2,183,1
101,84,2,245,1
141,66,2,91,1
82,50,2,274,1
216,169,1,106,1
200,191,2,34,1
14,24,2,135,1
33,41,2,207,1
140,152,2,491,1
28,11,2,83,1
78,121,2,448,1
133,269,2,45,1
119,74,2,561,1
169,458,2,239,1
76,108,3,943,1
218,305,2,481,1
137,195,2,296,1
264,289,2,158,1
133,63,2,300,1
197,124,2,481,1
51,161,2,45,1
137,13,2,217,1
222,390,2,115,1
137,199,2,38,1
376,511,2,76,1
253,334,2,468,1
25,202,2,260,1
24,144,2,243,1
44,99,2,73,1
10,98,2,49,1
195,253,2,313,1
192,100,2,444,1
295,372,2,70,1
138,166,2,58,1
23,127,2,63,1
72,78,2,199,1
7,66,2,169,1
196,135,2,61,1
216,138,2,0,1
173,12,2,235,1
399,403,2,41,1
113,323,2,30,1
291,467,2,191,1
36,344,2,242,1
193,317,2,179,1
266,182,2,199,1
72,130,2,115,1
249,353,2,298,1
15,27,2,9,1
176,127,2,92,1
181,192,2,43,1
56,59,2,34,1
264,308,2,161,1
80,193,2,11,1
190,194,2,57,1
122,189,2,42,1
60,152,2,0,1
140,249,2,0,1
52,66,2,117,1
204,24,2,166,1
22,90,2,32,1
114,234,2,323,1
24,136,2,190,1
105,160,2,263,1
233,277,3,705,1
196,165,1,154,1
55,87,2,90,1
276,298,2,23,1
50,16,2,103,1
10,39,2,241,1
147,141,2,67,1
102,50,2,100,1
258,206,2,169,1
87,160,2,57,1
258,285,2,71,1
479,630,2,30,1
8,33,2,43,1
356,349,2,5,1
51,7,2,14,1
152,317,2,154,1
167,87,2,125,1
8,9,2,0,1
171,132,2,170,1
228,133,2,0,1
86,132,2,85,1
139,63,2,39,1
130,177,2,99,1
245,263,2,82,1
38,31,2,120,1
162,183,2,155,1
380,213,2,38,1
83,114,2,74,1
107,65,2,168,1
164,217,2,8,1
213,117,2,40,1
119,24,2,178,1
57,105,2,57,1
191,108,2,211,1
19,94,2,130,1
159,203,2,207,1
200,153,2,3,1
52,22,2,47,1
235,201,2,65,1
48,99,2,9,1
233,308,2,20,1
203,237,2,47,1
42,78,2,187,1
402,513,2,114,1
4,42,2,78,1
457,678,2,23,1
91,154,2,145,1
137,216,2,63,1
250,381,2,36,1
184,218,2,161,1
224,316,2,204,1
220,264,2,0,1
131,129,2,71,1
367,312,2,40,1
126,24,2,176,1
176,101,2,193,1
89,21,2,0,1
7,63,2,0,1
167,199,1,301,1
47,105,2,25,1
209,265,2,243,1
257,283,2,39,1
3,188,2,43,1
19,14,2,124,1
138,332,2,5,1
10,17,2,337,1
199,229,2,0,1
13,9,2,90,1
171,147,2,40,1
93,127,2,121,1
134,162,2,65,1
91,121,2,319,1
26,66,2,84,1
300,343,2,213,1
3,45,2,81,1
123,114,2,116,1
7,39,2,220,1
103,293,2,141,1
233,206,2,177,1
148,290,2,82,1
210,121,2,15,1
161,133,2,107,1
55,49,2,60,1
419,303,2,73,1
161,239,2,194,1
111,45,2,159,1
187,194,2,241,1
88,105,2,304,1
131,151,2,34,1
113,125,2,235,1
145,248,2,0,1
28,46,2,250,1
95,35,2,49,1
58,129,2,62,1
110,236,2,95,1
46,109,2,154,1
222,296,2,111,1
143,135,2,320,1
473,592,2,419,1
22,132,2,70,1
169,282,3,749,1
15,41,3,844,1
40,27,2,69,1
51,201,2,36,1
126,456,2,142,1
188,468,2,19,1
24,93,2,19,1
193,57,2,217,1
150,308,2,464,1
259,127,2,882,1
16,224,1,94,1
289,340,2,229,1
138,169,2,362,1
509,431,3,602,1
55,36,2,24,1
90,29,2,305,1
66,250,3,891,1
98,186,1,217,1
244,457,2,1023,1
111,197,1,153,1
235,408,2,529,1
247,485,2,678,1
43,129,2,198,1
120,269,2,92,1
127,418,2,289,1
48,24,2,203,1
18,155,2,212,1
7,128,2,236,1
250,363,2,86,1
56,162,2,791,1
496,605,2,457,1
157,206,1,170,1
458,425,1,201,1
390,311,2,609,1
51,157,2,182,1
85,231,2,168,1
283,11,3,595,1
29,186,2,467,1
363,350,2,402,1
87,175,2,486,1
81,155,3,908,1
39,134,2,611,1
129,113,1,506,1
272,221,2,97,1
68,137,2,0,1
3,79,583,1023,1
486,836,458,854,1
144,76,141,915,1
426,385,307,729,1
127,16,111,158,1
407,358,14,318,1
178,20,1,668,1
41,7,2,158,1
186,66,2,486,1
470,329,2,1023,1
112,222,2,487,1
273,460,519,1023,1
415,150,151,10,1
123,196,25,589,1
209,149,1,358,1
434,206,2,212,1
312,68,2,140,1
49,69,3,432,1
127,268,2,647,1
252,314,2,842,1
169,12,2,333,1
291,368,3,889,1
152,82,2,854,1
197,308,1,131,1
234,189,2,754,1
80,101,2,139,1
231,297,2,155,1
66,35,3,1023,1
383,516,24,890,1
582,648,3,19,1
64,653,1,908,1
95,60,1,46,1
20,263,2,707,1
489,383,1,238,1
137,190,507,1023,1
435,488,300,723,1
247,26,61,927,1
117,10,6,415,1
599,343,1,729,1
95,172,2,77,1
196,196,2,374,1
345,214,3,562,1
144,229,2,138,1
463,96,2,118,1
197,15,2,67,1
264,68,2,398,1
41,174,2,294,1
694,944,2,265,1
480,81,2,842,1
235,106,2,592,1
155,37,2,540,1
304,300,2,670,1
185,59,2,462,1
210,78,2,977,1
70,131,2,372,1
587,239,2,803,1
204,47,1,238,1
670,179,2,85,1
286,188,2,485,1
95,51,2,713,1
279,23,2,407,1
445,726,2,777,1
44,655,1,67,1
1006,1023,542,868,1
684,153,207,407,1
22,648,38,461,1
887,183,2,762,1
567,340,1,189,1
225,231,2,234,1
259,343,2,437,1
393,7,2,22,1
331,312,3,570,1
379,154,2,134,1
487,339,2,366,1
436,64,2,497,1
8,321,3,908,1
761,372,2,451,1
317,258,2,157,1
60,43,2,69,1
328,348,2,132,1
60,107,2,251,1
1,36,2,153,1
410,356,2,119,1
456,718,2,183,1
44,193,2,16,1
159,301,2,468,1
314,92,2,180,1
88,153,2,344,1
56,220,2,546,1
146,24,2,355,1
77,29,2,580,1
424,52,2,945,1
855,494,5,281,1
405,163,0,314,1
574,592,1,102,1
318,450,2,283,1
343,728,2,422,1
1,798,2,872,1
139,67,1,345,1
68,180,2,974,1
169,15,2,260,1
177,285,2,569,1
125,108,427,1023,1
438,188,99,606,1
747,293,407,1023,1
523,326,271,689,1
191,224,54,1023,1
254,56,325,224,1
574,436,503,1023,1
300,259,409,140,1
307,95,98,134,1
1023,180,11,78,1
521,78,1,9,1
626,715,2,176,1
59,241,3,502,1
382,345,2,508,1
39,233,614,1023,1
199,300,416,580,1
59,290,106,965,1
327,150,281,705,1
23,27,128,749,1
148,298,19,94,1
451,258,1,921,1
277,447,1,424,1
733,334,2,230,1
25,178,3,305,1
298,59,3,43,1
100,408,2,243,1
356,133,2,236,1
92,238,2,350,1
326,72,2,465,1
272,302,3,1023,1
475,453,286,465,1
176,375,77,316,1
241,528,442,1023,1
69,70,126,9,1
202,57,16,1023,1
582,163,39,653,1
808,422,3,523,1
345,143,1,272,1
103,148,2,51,1
100,278,2,92,1
394,258,2,280,1
153,96,2,841,1
124,202,517,1023,1
231,465,123,1023,1
116,72,208,1023,1
272,525,292,379,1
95,165,535,1023,1
866,571,219,338,1
557,391,552,1023,1
210,187,421,753,1
274,271,445,1023,1
92,80,272,821,1
64,66,53,888,1
183,51,5,128,1
363,231,1,635,1
15,172,2,105,1
153,224,3,695,1
17,163,2,100,1
198,174,2,517,1
227,109,2,588,1
217,172,2,470,1
424,160,2,267,1
1023,413,3,0,1
351,27,2,485,1
117,178,2,485,1
5,202,2,818,1
361,413,240,965,1
202,274,78,355,1
69,203,9,569,1
5,196,1,283,1
340,233,606,1023,1
206,183,95,254,1
4,64,14,71,1
130,291,1,423,1
590,41,2,136,1
69,150,2,43,1
224,197,2,190,1
22,178,3,719,1
310,349,2,755,1
82,75,2,45,1
960,445,3,753,1
387,218,2,933,1
287,17,2,442,1
105,107,1,462,1
31,44,2,427,1
201,111,2,93,1
212,212,2,0,1
70,85,2,348,1
48,14,2,623,1
234,340,2,0,1
1,9,4,1023,1
174,129,2,228,1
2,177,2,0,1
93,234,2,197,1
108,30,2,229,1
12,24,2,355,1
151,69,2,200,1
20,145,2,185,1
69,47,2,457,1
122,47,2,233,1
8,103,3,889,1
290,202,1,279,1
110,146,2,362,1
99,208,2,395,1
32,75,2,93,1
167,99,2,480,1
108,99,2,564,1
111,103,2,113,1
71,32,2,426,1
253,256,2,80,1
26,233,2,132,1
25,33,2,593,1
107,428,1,92,1
10,166,2,531,1
16,102,2,108,1
71,112,2,75,1
10,147,2,392,1
32,6,2,90,1
3,21,2,97,1
53,65,2,263,1
60,68,2,29,1
195,19,2,108,1
139,124,2,75,1
82,123,2,56,1
68,230,2,239,1
104,161,2,269,1
210,21,2,162,1
147,125,2,351,1
4,112,2,133,1
31,88,2,430,1
57,158,2,727,1
90,156,2,76,1
140,135,2,117,1
178,105,2,54,1
204,144,2,42,1
0,18,2,230,1
204,225,2,80,1
7,89,2,127,1
17,21,2,161,1
87,65,2,108,1
199,190,2,660,1
251,195,2,4,1
183,88,2,848,1
56,48,2,273,1
74,119,2,266,1
114,189,2,102,1
100,71,2,8,1
131,268,2,87,1
304,255,2,51,1
129,162,2,198,1
5,75,2,57,1
144,47,2,459,1
123,175,2,256,1
317,288,2,21,1
266,317,2,139,1
214,295,2,156,1
233,217,2,530,1
101,48,2,65,1
243,84,2,265,1
220,119,2,360,1
106,35,2,138,1
189,232,2,0,1
97,366,2,63,1
29,22,2,152,1
31,139,2,63,1
1,59,2,0,1
169,263,2,28,1
58,198,2,311,1
10,87,2,288,1
110,44,2,159,1
144,160,2,107,1
292,423,2,757,1
162,192,2,111,1
123,201,3,993,1
92,99,118,221,1
79,48,29,40,1
297,205,1,562,1
133,235,1,256,1
241,62,2,117,1
34,58,2,69,1
28,14,2,252,1
145,66,2,216,1
240,15,2,0,1
90,185,2,214,1
0,270,2,602,1
167,413,2,135,1
67,171,2,250,1
26,180,2,93,1
33,138,2,421,1
233,207,2,198,1
75,38,3,504,1
209,283,2,614,1
211,233,2,519,1
11,20,2,88,1
169,132,2,222,1
289,182,2,683,1
204,191,2,594,1
2,103,2,227,1
289,263,2,588,1
550,650,2,213,1
203,128,2,125,1
166,305,2,876,1
332,807,2,188,1
6,343,2,530,1
219,314,1,217,1
229,194,2,75,1
208,547,2,165,1
68,91,2,213,2
27,16,2,17,2
150,123,2,112,2
46,31,2,289,2
197,168,2,85,2
88,99,2,93,2
337,319,2,296,2
129,169,2,62,2
4,80,2,6,2
76,99,2,0,2
136,13,2,355,2
10,61,2,64,2
253,58,2,107,2
38,82,2,24,2
413,794,2,211,2
53,125,2,97,2
157,59,2,0,2
16,122,2,26,2
57,31,2,0,2
155,95,2,12,2
99,37,2,266,2
87,7,2,268,2
38,212,2,7,2
7,26,2,14,2
332,154,2,249,2
90,140,2,379,2
14,125,2,37,2
190,636,3,519,2
371,172,2,555,2
349,834,2,0,2
72,106,2,611,2
6,159,2,0,2
10,61,2,720,2
35,63,2,170,2
95,97,2,98,2
128,87,2,128,2
3,72,2,13,2
80,56,2,380,2
123,226,2,133,2
248,199,2,161,2
262,239,2,485,2
39,407,2,139,2
97,91,2,1,2
27,304,2,288,2
482,539,2,147,2
186,21,2,29,2
180,314,2,120,2
180,178,2,650,2
13,102,2,301,2
99,145,2,0,2
174,163,2,368,2
51,138,2,214,2
138,224,2,85,2
30,30,2,178,2
127,188,2,328,2
15,76,2,5,2
133,212,2,46,2
130,28,2,81,2
349,652,2,19,2
260,151,2,33,2
542,638,2,52,2
61,22,2,173,2
21,221,2,204,2
191,262,2,39,2
235,321,2,113,2
123,112,2,345,2
20,266,2,19,2
242,85,2,196,2
121,125,2,88,2
258,313,2,72,2
106,67,2,76,2
58,71,2,87,2
114,89,2,25,2
59,14,2,0,2
116,15,2,128,2
303,276,2,124,2
391,263,2,195,2
98,74,2,45,2
28,57,2,82,2
99,94,2,127,2
286,337,2,69,2
37,23,2,39,2
127,91,2,102,2
10,63,2,187,2
132,267,2,180,2
160,242,2,22,2
73,91,2,373,2
108,129,2,193,2
134,215,2,76,2
131,279,2,146,2
96,77,2,66,2
250,331,1,83,2
102,46,2,25,2
31,94,2,127,2
221,261,2,303,2
343,564,2,9,2
58,289,2,240,2
248,334,2,0,2
173,231,2,59,2
279,327,2,226,2
182,234,2,203,2
133,62,2,218,2
304,228,2,87,2
8,29,2,13,2
135,129,2,77,2
81,138,2,67,2
221,249,2,36,2
196,117,2,200,2
206,15,2,395,2
29,29,2,164,2
250,268,2,44,2
294,362,2,35,2
161,207,2,120,2
52,98,2,120,2
82,107,2,0,2
143,189,2,0,2
72,149,2,0,2
76,91,2,54,2
55,90,2,26,2
175,246,2,101,2
189,140,2,64,2
50,22,2,113,2
199,201,2,41,2
157,123,2,124,2
223,271,2,468,2
147,165,2,40,2
41,201,2,41,2
109,120,2,91,2
33,69,2,85,2
1,55,2,237,2
109,77,2,0,2
87,28,2,0,2
217,199,2,85,2
56,170,2,118,2
174,230,2,262,2
174,255,2,233,2
154,127,2,8,2
110,27,2,37,2
251,336,2,153,2
9,88,2,0,2
68,42,2,149,2
89,41,2,454,2
21,38,2,438,2
76,221,2,425,2
26,10,2,773,2
180,183,2,884,2
79,141,2,481,2
70,106,2,387,2
54,176,2,711,2
279,226,2,567,2
74,78,2,55,2
134,71,2,223,2
348,346,2,71,2
30,125,2,329,2
133,42,2,291,2
111,116,2,244,2
153,210,2,347,2
330,423,1,63,2
66,9,2,433,2
385,497,2,49,2
78,209,2,132,2
261,198,2,53,2
195,178,2,7,2
157,86,2,0,2
262,311,2,63,2
249,214,2,139,2
135,117,2,327,2
67,192,542,1023,2
291,248,202,151,2
275,578,564,1023,2
43,93,128,1023,2
181,202,211,555,2
87,21,36,633,2
46,101,1,599,2
52,21,2,212,2
328,417,2,427,2
145,61,3,845,2
91,19,2,59,2
67,34,3,526,2
156,167,2,208,2
275,74,2,0,2
20,107,3,0,2
48,17,2,480,2
191,99,3,599,2
297,270,1,119,2
322,278,2,160,2
0,14,2,41,2
253,134,2,977,2
85,412,2,7,2
278,372,3,920,2
534,542,2,393,2
52,149,2,279,2
242,391,2,34,2
216,376,2,156,2
191,351,1,289,2
97,167,2,713,2
70,105,2,559,2
253,127,1,135,2
336,243,3,492,2
443,327,2,433,2
251,119,2,71,2
350,154,2,19,2
324,301,2,570,2
315,28,2,340,2
31,71,2,426,2
525,203,2,492,2
137,291,2,494,2
315,182,2,616,2
65,375,1,430,2
1,148,2,577,2
101,63,2,901,2
37,13,2,578,2
95,203,2,85,2
83,144,2,455,2
426,536,2,67,2
188,140,2,323,2
103,190,2,295,2
61,92,2,873,2
56,62,2,466,2
81,310,2,757,2
222,223,602,1023,2
87,97,137,494,2
243,602,23,186,2
554,581,1,91,2
239,162,1,125,2
378,220,3,1023,2
284,28,253,1023,2
10,211,279,1023,2
200,110,143,1023,2
82,254,234,308,2
318,154,476,1023,2
23,95,169,684,2
236,113,27,824,2
32,24,1,295,2
477,378,505,1023,2
650,629,363,568,2
84,77,90,891,2
411,927,12,467,2
244,170,2,1023,2
499,806,3,211,2
325,147,1,892,2
50,255,2,87,2
89,86,2,186,2
216,91,2,236,2
204,197,2,157,2
104,7,3,516,2
285,137,2,781,2
163,65,2,457,2
134,122,3,741,2
400,236,2,830,2
227,211,2,27,2
215,20,2,578,2
363,138,2,966,2
191,95,385,1023,2
319,187,313,21,2
506,147,76,727,2
80,110,1,1023,2
260,404,1,588,2
188,83,1,166,2
478,328,2,898,2
150,39,233,792,2
188,105,57,599,2
71,152,499,1023,2
10,71,79,770,2
395,325,11,822,2
545,503,1,178,2
254,526,1,101,2
147,311,2,351,2
25,192,2,392,2
707,432,2,449,2
32,244,2,627,2
66,377,1,471,2
1023,682,3,807,2
225,71,2,250,2
702,918,2,287,2
102,135,2,3,2
218,111,2,256,2
139,87,2,407,2
302,173,2,463,2
643,347,3,571,2
100,87,2,674,2
396,106,19,1023,2
58,61,1,240,2
74,317,1,230,2
85,214,2,1023,2
33,180,2,16,2
644,401,2,589,2
236,12,2,242,2
447,145,2,130,2
242,222,2,534,2
262,17,2,109,2
121,244,2,544,2
145,102,2,216,2
278,241,481,1023,2
79,218,62,338,2
209,340,7,859,2
279,152,1,242,2
442,387,1,368,2
268,57,2,429,2
1019,646,2,253,2
139,635,12,1023,2
642,579,1,173,2
44,299,1,59,2
413,82,2,130,2
104,60,2,568,2
18,121,2,99,2
404,232,88,1023,2
15,211,54,258,2
219,19,5,768,2
50,177,1,626,2
368,308,1,425,2
242,103,2,1023,2
1023,532,334,481,2
670,129,96,867,2
670,225,159,26,2
981,394,140,173,2
577,201,59,339,2
1023,569,199,742,2
741,761,135,67,2
269,38,21,54,2
240,344,1,605,2
376,353,1,174,2
49,354,2,148,2
162,201,432,1023,2
393,303,201,451,2
376,28,426,1023,2
71,156,304,131,2
602,414,57,1023,2
530,390,7,69,2
867,479,1,184,2
66,12,2,397,2
346,129,2,428,2
304,14,3,539,2
145,9,2,23,2
457,18,2,0,2
366,314,2,439,2
649,919,2,587,2
315,501,1,46,2
69,42,3,914,2
4,55,2,314,2
112,184,2,327,2
231,287,2,270,2
6,23,2,331,2
227,49,2,152,2
403,20,576,1023,2
30,44,103,35,2
210,43,17,308,2
89,37,14,907,2
565,407,3,454,2
655,182,1,450,2
494,73,5,1023,2
304,241,340,758,2
63,185,104,223,2
264,632,13,953,2
364,374,1,136,2
547,720,2,580,2
22,202,2,212,2
211,416,101,1023,2
129,163,37,803,2
657,52,2,981,2
90,15,21,1016,2
3,475,2,608,2
548,277,258,189,2
523,178,91,1023,2
19,170,263,1023,2
52,50,247,521,2
414,185,45,348,2
15,51,3,1023,2
134,115,2,830,2
487,513,2,60,2
14,153,3,663,2
26,7,2,166,2
116,187,3,970,2
137,53,2,94,2
115,441,2,133,2
140,124,2,344,2
314,477,2,68,2
869,339,2,311,2
259,253,2,84,2
323,154,3,732,2
0,163,2,202,2
274,126,2,329,2
223,228,2,251,2
133,163,2,420,2
356,208,2,895,2
233,143,1,185,2
147,30,2,312,2
71,29,2,26,2
211,248,2,126,2
0,84,2,246,2
273,197,2,460,2
235,110,2,668,2
201,95,2,521,2
149,7,2,542,2
33,44,2,85,2
5,52,2,129,2
21,6,2,136,2
127,73,2,375,2
105,91,2,213,2
215,303,3,627,2
99,7,2,274,2
49,140,2,0,2
148,239,2,63,2
26,369,2,329,2
177,27,2,680,2
86,369,2,349,2
231,157,2,294,2
397,382,2,257,2
197,218,2,28,2
1,135,2,77,2
129,73,2,130,2
73,105,2,218,2
226,169,2,250,2
49,24,2,201,2
63,101,2,413,2
207,188,2,0,2
76,8,2,185,2
10,137,2,0,2
54,12,2,125,2
399,548,2,299,2
129,542,2,220,2
125,396,2,330,2
211,252,2,291,2
84,188,2,354,2
33,29,2,935,2
63,102,2,634,2
98,151,2,807,2
87,206,2,1023,2
15,11,2,485,2
2,47,2,147,2
2,19,2,534,2
22,98,2,436,2
229,229,2,7,2
111,164,2,263,2
229,175,2,147,2
74,85,2,221,2
140,89,2,296,2
27,259,2,183,2
124,190,3,654,2
424,493,155,1023,2
117,153,9,289,2
6,105,1,640,2
78,43,1,286,2
51,85,2,111,2
101,63,2,35,2
121,109,2,0,2
118,122,2,411,2
51,121,2,580,2
83,189,2,222,2
97,150,2,398,2
82,19,2,203,2
124,197,1,250,2
111,261,2,329,2
145,129,2,156,2
47,29,2,114,2
133,17,2,140,2
25,39,2,27,2
129,34,2,139,2
82,86,2,93,2
29,98,2,84,2
35,171,2,266,2
30,83,2,58,2
176,180,2,138,2
100,66,2,200,2
94,211,2,398,2
188,288,2,373,2
216,361,2,564,2
79,157,1,19,2
5,251,2,497,2
255,446,2,308,2
18,112,2,231,2
135,211,2,455,2
55,9,2,507,2
50,12,2,150,2
125,116,2,504,2
238,181,2,247,2
216,211,2,156,2
193,181,2,149,2
52,71,2,551,2
325,493,2,231,2
88,295,2,283,2
14,270,2,375,2
277,294,2,52,2
103,7,2,33,2
165,205,2,181,2
76,303,2,460,2
307,178,2,197,2
80,382,2,336,2
44,38,2,357,2
132,319,2,437,2
46,87,2,20,2
18,26,2,369,2
148,181,2,264,2
66,146,2,133,2
134,177,2,36,2
144,197,2,367,2
203,247,2,550,2
82,100,2,50,2
26,44,2,381,2
149,423,3,856,2
127,44,2,404,2
53,103,2,361,2
273,600,2,564,2
183,345,2,122,2
117,202,2,408,2
280,219,2,265,2
88,114,2,105,2
227,216,2,212,2
205,321,2,256,2
138,201,2,83,2
25,57,2,149,2
99,107,2,153,2
220,229,2,166,2
60,163,2,203,2
0,30,2,94,2
47,100,2,7,2
107,339,2,668,2
149,7,2,517,2
38,191,4,1023,2
103,156,66,1023,2
213,238,179,443,2
28,38,30,248,2
311,399,1,147,2
139,75,2,264,2
137,220,2,247,2
156,209,2,135,2
8,175,2,73,2
35,84,2,197,2
2,61,2,74,2
102,78,2,5,2
227,235,2,95,2
86,174,2,115,2
292,246,2,42,2
109,218,2,159,2
101,79,2,409,2
265,353,2,390,2
69,20,2,216,2
284,254,2,467,2
20,77,2,499,2
104,106,2,109,2
166,143,2,72,2
47,142,2,103,2
323,353,2,50,2
88,28,2,148,2
301,246,2,0,2
49,35,2,152,2
158,233,2,19,2
137,10,2,235,2
25,12,2,103,2
64,287,2,47,2
229,403,2,17,2
203,37,2,0,2
300,410,2,181,2
44,43,2,259,2
262,236,2,176,2
39,67,2,458,2
67,42,2,312,2
212,135,2,93,2
15,196,2,66,2
383,201,2,30,2
196,213,2,0,2
60,6,2,167,2
52,42,2,56,2
186,129,2,95,2
91,36,2,220,2
525,475,2,30,2
245,375,2,0,2
325,377,2,213,2
125,124,2,39,2
287,317,2,3,2
106,63,2,198,2
137,303,2,245,2
234,240,2,239,2
82,47,2,35,2
116,6,2,120,2
188,137,2,37,2
113,38,2,129,2
362,450,2,88,2
124,119,2,19,2
360,530,2,25,2
2,179,2,0,2
170,320,2,52,2
84,8,2,51,2
160,162,2,103,2
57,9,2,315,2
259,180,2,149,2
68,93,2,245,2
213,263,2,234,2
147,153,2,129,2
116,238,2,231,2
3,55,2,422,2
57,11,2,0,2
176,180,2,29,2
46,6,2,120,2
265,281,2,234,2
77,65,2,20,2
8,16,2,39,2
393,535,2,125,2
280,352,2,0,2
217,149,2,21,2
252,277,2,234,2
82,89,2,278,2
60,26,2,175,2
141,136,2,0,2
154,113,2,54,2
247,256,2,143,2
148,119,2,27,2
171,196,2,56,2
183,277,2,29,2
193,161,2,163,2
163,147,2,0,2
73,102,2,75,2
165,155,2,23,2
157,247,2,71,2
125,70,2,284,2
141,295,2,144,2
63,137,2,103,2
87,102,2,63,2
310,320,2,212,2
157,291,2,341,2
102,34,2,63,2
113,124,2,2,2
184,202,2,0,2
28,36,2,22,2
79,113,2,95,2
144,116,2,79,2
80,126,2,15,2
208,149,2,141,2
168,172,2,123,2
108,85,2,148,2
138,127,2,460,2
105,152,2,0,2
152,49,2,513,2
55,10,2,456,2
107,93,2,140,2
92,49,2,0,2
173,284,2,159,2
76,100,2,186,2
108,75,2,65,2
160,181,2,134,2
173,59,2,48,2
25,10,2,439,2
292,237,2,45,2
17,56,2,267,2
89,58,2,306,2
330,214,2,99,2
22,136,2,68,2
134,163,2,568,2
75,158,2,495,2
10,13,2,488,2
119,31,2,438,2
3,27,3,1023,2
354,189,1,454,2
8,61,2,16,2
132,142,2,286,2
50,7,2,360,2
154,83,2,223,2
398,305,2,112,2
243,229,2,4,2
397,368,2,184,2
409,381,2,0,2
98,17,2,56,2
520,510,2,27,2
120,232,2,653,2
323,340,2,814,2
344,414,2,339,2
0,256,3,989,2
135,280,1,77,2
126,226,2,81,2
83,385,2,65,2
578,257,2,355,2
86,30,2,475,2
170,223,2,174,2
263,71,2,828,2
157,59,2,895,2
67,34,1,201,2
379,80,2,52,2
501,492,2,532,2
199,213,2,191,2
329,507,2,380,2
100,86,2,762,2
105,240,2,323,2
102,158,2,616,2
370,60,2,659,2
160,5,2,65,2
233,44,3,880,2
232,295,2,332,2
299,284,2,16,2
134,275,2,73,2
285,343,2,125,2
128,63,2,55,2
48,17,2,398,2
463,72,467,1023,2
181,163,348,551,2
485,17,73,655,2
138,74,7,720,2
388,499,1,674,2
295,315,2,776,2
260,403,2,305,2
109,378,2,143,2
500,217,3,354,2
106,197,2,77,2
111,359,2,485,2
284,66,2,0,2
32,18,2,711,2
228,102,2,357,2
286,255,2,0,2
128,155,2,339,2
34,181,2,413,2
281,500,2,224,2
53,138,2,281,2
115,566,2,607,2
15,255,1,129,2
121,21,2,681,2
16,352,2,240,2
138,194,2,364,2
280,83,2,209,2
12,278,2,84,2
384,10,2,399,2
172,34,2,651,2
84,5,2,11,2
74,40,2,467,2
637,55,2,306,2
700,72,2,266,2
308,86,2,428,2
447,231,2,584,2
567,295,2,217,2
797,69,3,475,2
90,457,2,156,2
451,449,2,566,2
157,120,2,75,2
272,598,1,445,2
57,731,2,532,2
169,174,2,374,2
595,1023,542,211,2
483,356,159,264,2
59,51,30,621,2
535,256,1,204,2
381,936,1,276,2
86,667,2,20,2
22,575,1,362,2
21,230,79,418,2
198,658,21,489,2
135,123,1,721,2
603,182,1,202,2
186,338,2,619,2
817,147,3,517,2
1023,445,2,219,2
166,452,2,165,2
143,606,30,305,2
393,343,123,960,2
519,712,35,407,2
645,578,2,19,2
195,352,2,1023,2
78,121,42,198,2
155,234,5,654,2
435,128,1,432,2
530,520,2,673,2
294,233,2,593,2
604,704,2,656,2
113,418,2,866,2
1023,1023,236,73,2
386,41,369,1023,2
141,391,211,49,2
33,482,36,924,2
344,67,2,311,2
441,768,1,146,2
714,586,2,670,2
377,96,2,316,2
943,964,3,282,2
291,214,2,416,2
264,330,2,255,2
226,557,2,153,2
330,77,2,571,2
109,556,3,642,2
634,820,3,149,2
166,522,2,284,2
528,667,9,463,2
72,24,1,5,2
60,263,1,273,2
282,123,2,287,2
18,78,2,426,2
140,128,2,82,2
263,40,2,340,2
15,224,2,68,2
596,313,2,290,2
353,277,2,3,2
710,601,2,319,2
393,521,2,203,2
666,547,2,242,2
88,243,2,42,2
691,343,2,0,2
774,945,3,467,2
136,74,2,136,2
548,1023,61,355,2
248,322,4,387,2
167,204,1,498,2
108,73,2,438,2
298,102,2,281,2
240,416,2,108,2
332,24,2,260,2
361,275,2,334,2
750,401,2,581,2
549,339,2,10,2
55,28,2,891,2
452,162,2,801,2
167,576,2,269,2
477,384,2,547,2
413,151,2,319,2
398,33,2,257,2
577,378,2,184,2
91,38,2,101,2
726,290,2,0,2
350,270,2,398,2
412,99,2,297,2
243,349,2,536,2
335,199,2,0,2
225,35,2,956,2
343,436,1,267,2
103,303,2,526,2
593,108,2,300,2
27,221,2,270,2
471,57,2,260,2
216,20,2,80,2
1020,1023,670,327,2
460,346,214,40,2
233,358,37,356,2
232,132,2,76,2
363,158,2,398,2
434,28,2,81,2
3,62,2,315,2
532,135,3,313,2
250,182,2,128,2
625,178,3,893,2
95,123,2,540,2
724,503,2,370,2
30,453,2,638,2
347,612,2,561,2
244,290,2,611,2
38,311,17,1023,2
95,13,60,981,2
55,161,147,468,2
944,1023,39,378,2
432,375,5,461,2
595,673,1,645,2
21,56,2,212,2
110,202,2,280,2
153,224,2,737,2
469,320,2,246,2
831,499,2,626,2
134,206,2,386,2
35,163,2,188,2
55,19,2,624,2
738,351,2,738,2
49,267,2,1023,2
176,29,3,1023,2
22,186,2,692,2
241,428,2,280,2
336,197,2,440,2
95,468,2,415,2
178,14,2,753,2
155,9,2,391,2
346,214,2,363,2
279,487,2,413,2
203,555,2,511,2
287,363,1,181,2
420,151,2,592,2
138,248,2,470,2
391,20,2,6,2
296,24,2,326,2
78,74,2,676,2
231,113,2,218,2
247,6,2,512,2
235,8,2,0,2
467,177,2,220,2
469,325,2,387,2
27,105,2,64,2
23,37,2,295,2
17,103,2,110,2
515,543,2,66,2
107,41,2,41,2
207,202,2,76,2
99,123,2,72,2
182,132,2,982,2
229,11,2,522,2
87,106,3,888,2
60,75,1,0,2
209,27,2,107,2
156,22,2,260,2
30,83,3,695,2
228,192,2,209,2
92,92,2,540,2
183,208,2,197,2
102,64,2,510,2
172,113,2,0,2
351,58,2,566,2
83,298,1,122,2
90,243,2,396,2
111,184,2,0,2
158,167,2,411,2
14,87,2,674,2
99,78,2,20,2
264,195,2,426,2
24,115,2,71,2
56,70,2,333,2
31,142,2,160,2
8,88,2,0,2
40,82,2,21,2
119,40,2,1,2
187,197,2,215,2
327,247,2,354,2
41,168,2,495,2
48,54,2,86,2
198,236,2,566,2
28,151,2,131,2
7,68,2,54,2
222,334,2,359,2
66,227,2,826,2
29,85,1,72,2
33,56,3,906,2
66,34,2,170,2
55,26,2,2,2
151,199,2,192,2
17,104,2,102,2
157,195,2,115,2
51,5,2,0,2
52,36,2,140,2
99,89,2,654,2
66,89,2,147,2
268,458,2,624,2
163,178,2,457,2
315,443,2,195,2
106,56,2,254,2
242,128,2,678,2
36,269,2,115,2
35,230,2,402,2
31,223,2,202,2
125,145,2,429,2
80,65,2,862,2
254,549,2,302,2
59,67,3,892,2
112,305,1,175,2
177,285,2,95,2
19,97,2,45,2
60,251,2,0,2
435,755,2,145,2
554,1023,2,74,2
152,243,1,0,2
1,129,2,94,2
128,113,2,513,2
6,23,2,868,2
115,30,1,52,2
314,183,2,368,2
45,45,2,538,2
195,11,2,26,2
112,99,2,119,2
157,14,2,27,2
8,7,3,159,2
260,547,2,96,2
194,36,3,274,2
305,402,2,84,2
62,334,2,25,2
147,261,2,421,2
92,239,2,1,2
6,33,2,454,2
218,462,2,537,2
22,17,2,0,2
126,156,2,375,2
40,47,2,90,2
88,243,2,942,2
173,260,11,823,2
72,143,1,661,2
39,411,404,1023,2
166,53,70,738,2
366,438,10,39,2
177,137,1,298,2
341,419,2,155,2
76,123,2,61,2
164,324,2,62,2
139,118,2,106,2
19,79,2,464,2
9,124,2,355,2
242,353,2,388,2
125,194,2,130,2
114,350,2,159,2
38,112,2,336,2
109,52,2,47,2
46,56,2,24,2
87,25,2,196,2
175,23,3,737,2
273,167,2,683,2
115,128,2,155,2
203,179,2,197,2
9,41,2,459,2
91,185,2,441,2
45,310,2,102,2
27,230,2,8,2
138,329,2,222,2
190,230,2,407,2
288,244,2,19,2
252,319,2,324,2
36,128,2,512,2
155,253,2,793,2
3,37,2,419,2
27,52,2,398,2
121,153,3,842,2
13,49,2,336,2
182,231,2,110,2
1,36,2,234,2
178,329,2,248,2
32,105,2,163,2
279,289,2,49,2
77,104,2,57,2
94,164,2,158,2
48,54,2,291,2
141,198,2,113,2
249,582,2,4,2
5,142,2,116,2
206,111,2,309,2
177,364,2,421,2
2,18,2,265,2
7,126,2,539,2
319,256,2,638,2
27,31,2,358,2
175,86,2,3,2
133,139,2,75,2
75,140,2,0,2
42,14,2,108,2
29,75,2,87,2
63,69,2,132,2
0,110,2,130,2
3,33,2,112,2
239,318,2,110,2
114,285,1,39,2
9,126,2,66,2
199,212,2,74,2
22,87,2,170,2
68,52,2,654,2
119,123,2,28,2
198,311,3,759,2
28,21,2,636,2
142,99,2,210,2
41,33,2,41,2
20,88,2,168,2
20,68,2,263,2
80,54,2,111,2
119,304,2,10,2
314,189,2,116,2
303,520,2,23,2
124,277,2,0,2
135,309,2,63,2
274,426,1,58,2
214,287,2,105,2
20,40,2,333,2
73,37,2,103,2
33,53,2,240,2
0,33,2,227,2
159,180,2,10,2
161,267,2,66,2
112,209,2,12,2
20,169,2,3,2
306,459,2,47,2
144,30,2,5,2
88,8,2,131,2
304,383,2,91,2
179,275,2,0,2
215,277,2,68,2
542,760,2,68,2
224,280,2,46,2
110,208,2,57,2
21,7,2,37,2
38,14,2,129,2
175,288,1,349,2
58,39,2,40,2
162,182,2,234,2
252,280,2,423,2
97,133,2,61,2
124,47,2,159,2
102,23,2,174,2
26,101,2,8,2
146,273,2,23,2
60,17,2,56,2
66,96,2,67,2
24,40,2,76,2
30,71,2,416,2
15,118,2,119,2
28,209,2,72,2
299,317,2,240,2
49,165,2,171,2
170,186,2,133,2
55,30,2,36,2
54,72,2,147,2
307,275,2,244,2
162,107,2,141,2
16,127,2,144,2
318,220,2,81,2
137,149,2,49,2
174,379,2,338,2
260,231,2,222,2
185,276,2,54,2
1,7,2,150,2
11,13,2,269,2
222,244,2,112,2
21,46,2,148,2
146,109,2,295,2
69,81,2,158,2
22,44,2,28,2
85,55,2,261,2
192,383,2,43,2
87,76,2,75,2
246,513,2,137,2
9,112,2,44,2
223,157,2,0,2
14,53,2,176,2
131,124,2,270,2
25,70,2,299,2
70,19,2,200,2
49,130,2,21,2
206,154,2,332,2
185,181,2,401,2
139,180,2,16,2
93,120,2,28,2
306,364,2,77,2
143,82,2,5,2
127,169,2,0,2
46,119,2,74,2
16,66,2,58,2
182,204,2,111,2
172,218,2,299,2
128,74,2,303,2
278,438,2,436,2
87,135,2,149,2
343,389,3,695,2
118,120,3,932,2
54,73,2,260,2
253,223,2,336,2
37,10,2,768,2
214,133,2,296,2
114,61,2,378,2
180,126,2,749,2
17,35,2,447,2
96,61,2,611,2
17,99,3,1023,2
3,158,1,204,2
53,71,2,210,2
224,175,2,668,2
86,19,2,11,2
260,183,2,383,2
78,247,2,460,2
350,84,2,166,2
4,52,2,475,2
68,113,2,193,2
200,192,2,624,2
99,18,2,292,2
47,138,2,754,2
88,332,2,633,2
32,40,2,471,2
86,6,2,171,2
28,95,2,269,2
101,107,2,4,2
309,243,2,316,2
49,27,2,55,2
410,462,2,165,2
184,12,2,255,2
100,82,2,475,2
431,503,2,248,2
283,13,4,1023,2
531,677,8,409,2
244,176,1,222,2
29,358,1,423,2
39,80,2,204,2
106,326,2,904,2
591,119,2,295,2
389,249,2,392,2
627,128,2,682,2
322,476,2,432,2
273,163,2,353,2
138,489,1,773,2
414,490,1,81,2
283,139,2,522,2
191,664,1,139,2
138,296,2,15,2
48,335,2,240,2
226,478,2,344,2
192,127,2,408,2
297,58,2,477,2
624,253,2,853,2
284,87,1,39,2
163,85,2,535,2
359,188,2,35,2
441,217,2,549,2
210,354,2,396,2
769,677,2,82,2
460,16,2,278,2
330,541,2,0,2
267,390,2,110,2
79,127,2,58,2
163,17,2,389,2
142,163,2,620,2
292,908,2,326,2
64,330,1,176,2
514,47,1,74,2
473,421,2,466,2
196,196,2,60,2
100,147,2,69,2
147,122,2,788,2
322,141,204,743,2
291,75,87,160,2
26,76,11,194,2
689,195,1,98,2
121,528,1,93,2
660,141,3,976,2
396,218,2,299,2
480,655,2,851,2
881,514,1,155,2
554,23,19,1023,2
745,409,1,751,2
342,77,1,362,2
241,157,2,691,2
651,107,2,246,2
73,142,2,289,2
238,34,2,313,2
309,211,2,14,2
36,125,2,581,2
347,285,1,301,2
218,165,2,525,2
378,319,2,74,2
132,530,2,334,2
159,227,2,274,2
96,851,2,387,2
6,278,2,447,2
889,208,2,544,2
257,248,2,814,2
539,820,1,109,2
741,761,2,442,2
154,297,1,391,2
286,365,2,460,2
123,111,2,353,2
84,57,2,341,2
475,113,2,272,2
516,469,1,70,2
171,216,2,544,2
557,588,3,778,2
574,513,2,796,2
684,114,1,455,2
134,1023,492,465,2
65,363,90,100,2
168,88,14,583,2
104,515,1,39,2
239,89,2,393,2
300,569,1,276,2
674,209,2,61,2
382,341,2,163,2
217,104,2,261,2
175,202,2,364,2
9,323,2,648,2
10,161,2,264,2
45,72,2,298,2
12,321,2,80,2
498,675,2,17,2
209,326,2,427,2
492,918,215,475,2
380,393,80,138,2
604,951,9,304,2
796,960,0,224,2
1023,1023,591,211,2
821,226,153,746,2
37,243,29,217,2
397,149,1,601,2
320,29,1,727,2
793,244,2,579,2
177,303,2,410,2
253,68,410,1023,2
198,145,213,849,2
697,268,38,991,2
86,204,2,434,2
355,35,2,165,2
371,432,2,554,2
600,734,3,424,2
17,250,2,208,2
341,1023,580,685,2
130,61,61,277,2
545,791,6,263,2
129,126,1,861,2
160,122,2,74,3
79,152,2,895,3
8,108,2,63,3
268,217,2,744,3
206,31,2,345,3
454,217,2,526,3
49,51,2,757,3
135,13,2,552,3
340,540,2,657,3
31,273,2,85,3
456,494,1,215,3
624,91,2,95,3
109,46,2,616,3
885,830,2,636,3
513,487,1,1023,3
951,772,190,627,3
344,37,176,145,3
319,317,36,644,3
185,261,2,23,3
813,375,2,249,3
303,18,2,407,3
239,7,2,227,3
237,241,2,295,3
823,320,2,49,3
60,81,2,919,3
430,400,2,45,3
7,73,2,112,3
148,17,2,454,3
5,58,2,108,3
469,53,2,120,3
159,179,2,137,3
433,409,2,468,3
355,232,2,18,3
185,73,3,760,3
699,584,1,0,3
410,120,1,173,3
118,102,1,179,3
54,48,5,1023,3
36,150,2,731,3
82,298,2,819,3
417,85,1,529,3
89,83,1,741,3
338,298,2,695,3
75,463,2,924,3
276,79,2,7,3
311,889,1,135,3
3,196,2,636,3
82,273,2,325,3
148,385,2,689,3
106,158,2,329,3
106,95,2,44,3
243,202,1,48,3
39,210,2,41,3
97,260,310,1023,3
42,211,95,81,3
114,223,13,644,3
236,174,0,564,3
116,124,1,61,3
250,62,550,1023,3
133,323,359,1023,3
154,15,94,408,3
1,173,12,123,3
246,200,1,235,3
22,167,2,527,3
140,320,2,440,3
171,139,2,533,3
57,110,586,1023,3
238,124,430,411,3
59,244,494,1023,3
826,355,134,1023,3
182,17,215,1023,3
168,57,209,62,3
37,30,37,539,3
292,295,2,624,3
8,72,2,245,3
173,136,2,73,3
8,318,2,361,3
7,332,2,174,3
325,496,2,316,3
14,43,3,253,3
161,168,2,443,3
10,23,2,536,3
84,7,2,179,3
142,7,2,96,3
258,174,2,411,3
307,77,2,530,3
29,26,2,106,3
43,14,2,69,3
27,80,2,4,3
89,39,2,428,3
104,134,2,226,3
1,71,2,74,3
95,189,2,14,3
163,123,2,205,3
2,140,2,177,3
147,170,2,166,3
217,238,2,134,3
141,44,2,49,3
33,56,2,309,3
144,29,2,186,3
185,288,2,461,3
36,76,2,278,3
64,57,2,202,3
49,29,2,251,3
240,69,2,12,3
550,361,2,5,3
298,302,2,448,3
776,783,2,924,3
259,125,1,223,3
47,13,2,267,3
46,207,2,482,3
31,231,2,429,3
54,109,2,547,3
66,609,2,205,3
240,255,2,413,3
180,70,2,528,3
10,13,2,54,3
71,8,2,106,3
98,145,2,269,3
82,15,2,376,3
34,42,2,42,3
5,13,2,56,3
50,10,2,91,3
4,7,2,40,3
40,155,2,456,3
209,245,2,77,3
453,434,2,103,3
54,100,2,170,3
226,184,2,80,3
120,121,2,149,3
180,165,2,265,3
8,213,2,156,3
98,603,2,233,3
276,303,2,207,3
115,91,2,33,3
9,110,2,192,3
3,20,2,466,3
99,319,2,650,3
9,23,3,760,3
29,122,2,226,3
23,38,2,404,3
49,145,2,142,3
87,172,2,237,3
34,16,2,15,3
465,93,2,212,3
523,317,1,45,3
320,44,2,140,3
297,78,2,351,3
219,11,2,289,3
3,38,2,815,3
59,90,2,22,3
292,353,2,416,3
220,206,2,552,3
515,643,1,75,3
207,80,2,153,3
15,134,2,225,3
187,31,2,250,3
108,36,2,38,3
208,167,2,603,3
3,21,2,334,3
71,280,2,34,3
124,417,2,497,3
75,285,2,510,3
245,342,1,180,3
201,135,2,336,3
284,441,2,143,3
135,96,3,705,3
23,82,2,705,3
272,190,2,426,3
83,50,2,168,3
193,106,2,393,3
248,159,2,569,3
16,50,2,88,3
151,36,2,76,3
4,261,2,550,3
88,222,1,73,3
53,98,2,404,3
202,576,2,401,3
58,156,2,285,3
142,225,2,355,3
182,322,2,200,3
158,296,2,432,3
287,263,2,709,3
173,151,1,394,3
11,52,2,271,3
94,215,2,364,3
95,285,2,16,3
65,69,2,116,3
326,455,2,68,3
233,209,2,307,3
229,64,2,449,3
17,13,3,767,3
141,204,2,93,3
36,120,2,223,3
321,469,2,250,3
151,397,2,191,3
242,526,1,195,3
417,567,2,247,3
335,321,1,18,3
127,56,2,327,3
10,50,2,200,3
165,81,2,121,3
75,13,2,643,3
169,43,2,529,3
90,133,2,758,3
51,36,161,1023,3
89,37,143,393,3
384,385,23,7,3
361,667,0,450,3
29,111,1,211,3
385,776,2,214,3
9,107,2,368,3
95,133,2,209,3
52,117,2,176,3
49,168,2,195,3
215,267,2,31,3
478,621,2,130,3
39,25,2,49,3
98,159,2,80,3
33,9,2,121,3
0,20,2,299,3
215,238,2,578,3
0,148,1,279,3
182,306,2,294,3
142,175,3,827,3
121,476,2,616,3
88,77,2,108,3
100,268,2,48,3
163,116,2,22,3
195,39,2,198,3
180,313,2,148,3
206,279,2,112,3
160,319,2,525,3
46,80,2,722,3
34,289,2,9,3
9,77,3,490,3
23,53,2,269,3
40,28,2,21,3
171,251,2,188,3
43,40,2,101,3
25,22,3,610,3
184,228,2,393,3
31,48,2,173,3
54,217,2,245,3
214,242,2,229,3
397,675,2,44,3
322,368,2,208,3
15,103,2,33,3
9,87,2,223,3
35,26,2,132,3
77,16,2,0,3
204,241,2,329,3
31,43,2,99,3
93,84,2,316,3
45,89,2,232,3
132,177,2,55,3
114,119,2,408,3
26,57,2,553,3
189,207,2,271,3
1,153,2,121,3
8,45,2,298,3
125,229,2,85,3
132,103,2,29,3
398,552,2,153,3
46,55,2,0,3
363,661,2,0,3
7,109,2,93,3
71,109,2,19,3
16,87,2,0,3
66,144,2,45,3
133,67,2,37,3
99,99,2,109,3
119,259,2,263,3
168,192,2,117,3
246,392,2,253,3
189,270,2,345,3
58,33,2,256,3
15,202,2,244,3
504,696,2,1,3
22,189,2,176,3
390,604,2,169,3
134,169,2,108,3
43,9,2,0,3
8,48,2,210,3
9,19,2,75,3
42,27,2,1,3
107,96,2,66,3
66,157,2,0,3
154,222,2,263,3
39,58,2,84,3
35,22,2,89,3
242,288,2,173,3
20,27,2,250,3
381,299,2,104,3
63,60,2,114,3
165,190,2,22,3
0,8,2,89,3
149,112,2,304,3
92,134,2,33,3
35,113,2,186,3
70,88,2,135,3
105,63,2,199,3
147,238,2,198,3
99,97,2,231,3
101,211,2,34,3
41,115,2,287,3
134,178,2,234,3
10,62,2,265,3
209,332,2,0,3
72,12,2,6,3
7,67,2,64,3
274,153,2,8,3
163,203,2,48,3
128,180,2,97,3
78,133,2,84,3
91,269,2,20,3
4,27,2,46,3
124,272,2,128,3
118,137,2,43,3
7,185,2,12,3
150,242,2,50,3
33,85,2,60,3
74,62,2,78,3
91,203,2,24,3
237,143,2,21,3
205,279,2,0,3
251,19,2,0,3
200,181,2,367,3
232,356,2,354,3
43,14,2,66,3
94,196,2,134,3
202,269,2,185,3
107,180,2,557,3
36,362,2,647,3
216,163,2,113,3
318,474,2,7,3
125,125,2,184,3
40,178,2,588,3
141,150,2,145,3
101,51,2,66,3
251,65,2,28,3
296,190,2,10,3
26,95,2,354,3
171,134,2,240,3
260,517,2,128,3
320,18,2,293,3
280,496,2,10,3
50,188,2,247,3
291,34,2,74,3
66,137,2,772,3
177,376,1,85,3
118,313,2,71,3
317,219,2,249,3
21,130,2,581,3
143,179,12,1023,3
198,64,46,407,3
150,117,5,525,3
53,111,1,664,3
205,288,2,461,3
251,308,2,472,3
234,132,2,769,3
82,13,2,184,3
40,263,2,588,3
320,15,3,969,3
310,267,2,832,3
14,398,1,7,3
16,353,2,695,3
349,118,2,68,3
363,117,2,1,3
257,816,2,122,3
862,180,2,595,3
113,277,1,8,3
85,212,2,37,3
256,245,2,650,3
490,300,2,570,3
38,119,2,463,3
450,96,2,243,3
706,694,2,66,3
369,355,2,108,3
153,766,2,396,3
152,393,2,696,3
133,747,3,780,3
320,35,2,183,3
5,367,1,107,3
288,237,2,0,3
154,516,2,375,3
250,429,1,383,3
336,196,2,781,3
152,177,370,1023,3
420,152,306,365,3
106,112,60,767,3
812,377,5,597,3
519,147,1,6,3
491,141,2,319,3
1023,376,17,643,3
746,226,0,472,3
826,433,1,423,3
192,847,120,600,3
624,579,64,931,3
27,923,202,486,3
13,293,55,651,3
158,108,5,209,3
148,529,1,398,3
220,467,1,664,3
501,10,175,752,3
119,313,48,220,3
189,17,4,589,3
184,138,1,53,3
867,472,2,379,3
268,233,2,205,3
476,133,2,470,3
149,340,2,243,3
1023,1023,450,373,3
232,730,242,487,3
1023,1023,520,556,3
182,289,455,276,3
783,1023,443,268,3
374,524,296,41,3
295,1023,123,42,3
423,330,231,365,3
1023,860,37,874,3
167,100,3,149,3
697,573,2,745,3
459,294,163,501,3
109,75,53,619,3
56,115,4,576,3
457,77,1,471,3
21,97,2,477,3
383,739,3,654,3
695,279,2,467,3
928,55,2,482,3
199,11,1,122,3
9,614,1,269,3
313,33,2,87,3
305,1023,4,654,3
45,237,335,508,3
399,16,98,592,3
27,37,12,628,3
1000,676,1,4,3
67,192,1,17,3
443,26,3,730,3
24,661,3,946,3
100,23,2,112,3
366,388,2,353,3
305,232,2,291,3
704,1023,620,68,3
447,494,320,255,3
944,806,71,329,3
1023,1023,554,95,3
588,912,385,0,3
224,578,365,527,3
492,1023,277,257,3
783,737,77,365,3
754,617,7,522,3
216,165,1,103,3
240,248,2,755,3
85,124,2,92,3
378,137,2,154,3
369,291,3,385,3
56,271,2,29,3
87,188,2,193,3
681,18,2,474,3
492,461,2,550,3
228,782,2,218,3
50,145,2,778,3
1023,1023,589,510,3
86,15,521,12,3
1023,1023,603,962,3
613,922,212,432,3
236,548,83,739,3
150,8,10,251,3
361,651,34,475,3
135,153,10,248,3
407,189,1,74,3
591,12,2,204,3
418,221,3,989,3
66,7,2,91,3
131,31,3,657,3
291,534,2,539,3
562,508,2,301,3
245,96,2,59,3
772,1023,558,543,3
341,103,120,17,3
1023,1023,233,664,3
348,304,319,299,3
506,347,60,950,3
208,396,5,926,3
1023,889,212,817,3
193,276,234,605,3
309,255,104,1023,3
560,39,126,799,3
218,286,19,99,3
556,525,0,647,3
828,205,2,309,3
524,148,2,750,3
71,552,3,539,3
832,144,2,355,3
176,90,2,71,3
379,621,2,13,3
463,982,2,1016,3
169,386,1,276,3
307,213,1,195,3
21,126,2,251,3
85,34,3,490,3
677,655,2,207,3
827,302,2,19,3
164,41,382,1023,3
214,222,87,122,3
440,180,14,630,3
238,273,1,262,3
638,227,2,0,3
276,41,3,579,3
115,78,2,189,3
112,154,3,948,3
630,1023,619,359,3
195,43,85,0,3
425,707,12,275,3
413,139,1,350,3
225,810,1,786,3
620,829,3,1005,3
438,212,1,2,3
212,396,2,177,3
492,305,3,338,3
20,243,2,741,3
630,111,2,311,3
141,63,2,283,3
290,439,2,199,3
14,130,2,722,3
297,261,2,428,3
100,30,2,432,3
121,198,2,466,3
581,1023,42,279,3
386,881,20,274,3
1023,408,8,640,3
288,230,1,846,3
712,451,55,632,3
370,811,18,151,3
23,315,0,536,3
109,373,1,18,3
397,310,1,140,3
223,320,2,236,3
322,183,2,137,3
114,363,2,603,3
264,365,2,481,3
100,23,2,168,3
237,276,2,216,3
388,152,2,21,3
877,277,2,261,3
137,113,3,781,3
510,52,140,1023,3
138,130,53,190,3
342,426,5,210,3
367,613,1,858,3
351,274,1,551,3
18,37,2,694,3
376,417,2,889,3
179,45,2,146,3
144,166,3,436,3
332,28,3,831,3
84,83,1,300,3
58,40,2,52,3
44,152,2,691,3
163,62,2,301,3
50,145,2,235,3
739,559,2,577,3
137,99,2,118,3
75,321,2,271,3
267,337,2,378,3
541,925,2,51,3
249,149,1,106,3
466,754,2,35,3
89,159,2,109,3
117,309,2,510,3
89,102,2,4,3
6,102,2,98,3
6,89,2,420,3
201,90,2,868,3
157,31,2,283,3
37,75,499,1023,3
96,53,229,327,3
71,18,44,3,3
64,24,3,72,3
84,127,1,365,3
79,70,2,23,3
33,11,2,0,3
17,5,2,128,3
18,12,2,109,3
74,179,2,4,3
149,29,2,95,3
84,253,2,135,3
61,134,2,90,3
60,61,3,568,3
75,16,2,291,3
26,57,2,917,3
387,272,2,174,3
111,155,2,516,3
139,157,2,173,3
99,44,2,535,3
155,344,2,113,3
62,210,2,48,3
309,191,2,75,3
72,123,2,15,3
140,39,2,113,3
129,135,2,314,3
33,160,2,172,3
262,483,2,26,3
207,321,2,83,3
14,84,2,424,3
40,133,2,38,3
1,105,2,322,3
149,130,2,19,3
94,116,2,154,3
238,426,121,2,3
141,868,33,340,3
383,739,2,352,3
6,100,1,467,3
13,49,2,592,3
174,253,2,34,3
256,530,2,725,3
318,248,2,313,3
201,26,2,552,3
111,120,2,247,3
229,34,2,371,3
75,37,2,55,3
240,157,2,77,3
54,148,2,19,3
15,491,2,678,3
525,547,2,404,3
553,643,2,308,3
311,372,1,2,3
297,318,2,296,3
192,69,2,100,3
250,960,2,71,3
529,573,2,453,3
3,31,2,261,3
16,184,2,722,3
117,123,2,317,3
387,318,2,566,3
94,178,3,891,3
48,145,207,599,3
105,61,66,560,3
33,76,7,524,3
39,56,1,0,3
24,70,2,405,3
88,48,2,23,3
29,116,2,8,3
89,230,2,184,3
78,101,2,231,3
241,81,2,85,3
304,530,2,388,3
166,230,2,563,3
570,623,2,312,3
711,891,3,1023,3
554,541,2,616,3
267,277,2,13,3
60,118,2,385,3
44,5,2,606,3
132,267,2,42,3
2,30,2,132,3
193,321,2,909,3
4,131,399,1023,3
685,1013,144,178,3
202,430,447,1023,3
436,900,82,1023,3
24,164,12,432,3
459,703,1,585,3
0,236,2,734,3
536,789,2,9,3
34,127,2,442,3
99,183,2,175,3
13,97,2,419,3
73,145,2,360,3
4,124,2,250,3
212,188,2,450,3
206,106,2,303,3
111,90,2,287,3
177,204,2,290,3
92,187,2,474,3
143,384,2,109,3
52,426,2,254,3
342,552,2,338,3
145,28,2,245,3
3,46,2,50,3
51,75,2,316,3
200,229,2,17,3
144,148,2,77,3
330,245,2,284,3
102,267,2,147,3
144,363,2,3,3
255,436,3,716,3
209,711,2,641,3
184,99,1,295,3
75,175,2,558,3
46,110,2,392,3
83,72,2,501,3
100,229,2,466,3
157,218,2,140,3
209,371,2,684,3
437,632,2,459,3
306,593,1,163,3
421,732,2,513,3
245,232,2,5,3
86,144,2,205,3
92,401,2,685,3
84,47,2,98,3
176,335,2,545,3
26,154,2,185,3
126,63,2,451,3
39,163,2,82,3
141,426,2,314,3
92,12,2,323,3
630,1023,2,135,3
166,179,2,106,3
2,12,2,144,3
185,327,2,234,3
46,18,2,99,3
176,251,2,59,3
145,186,2,105,3
157,243,2,0,3
298,446,2,1,3
70,25,2,270,3
213,135,2,310,3
79,8,2,32,3
77,117,2,65,3
50,137,2,25,3
114,160,2,15,3
156,149,2,325,3
247,509,2,257,3
343,518,2,45,3
490,916,2,71,3
361,473,1,50,3
288,451,2,251,3
95,147,2,32,3
152,82,2,192,3
36,51,2,1,3
64,98,2,14,3
200,184,2,531,3
151,230,2,160,3
93,102,3,419,3
118,217,2,405,3
150,95,2,90,3
105,180,2,178,3
0,195,2,0,3
2,74,2,67,3
35,156,2,199,3
15,8,2,120,3
96,137,2,140,3
13,77,2,38,3
62,44,2,38,3
111,39,2,208,3
5,75,2,100,3
137,74,2,0,3
121,152,2,146,3
151,209,2,223,3
205,297,2,32,3
7,8,2,222,3
163,250,2,262,3
77,79,2,35,3
154,226,2,42,3
50,7,2,114,3
41,190,2,23,3
18,10,2,202,3
191,203,2,45,3
97,141,2,378,3
120,338,1,325,3
51,127,2,83,3
30,21,2,91,3
107,125,2,152,3
326,261,2,37,3
151,104,2,110,3
26,90,2,62,3
2,47,3,563,3
29,33,2,62,3
129,86,2,155,3
157,237,2,75,3
146,268,2,84,3
155,282,2,309,3
160,418,2,175,3
32,57,2,0,3
107,133,2,0,3
69,93,2,22,3
392,444,2,147,3
198,343,2,118,3
101,50,2,91,3
130,150,2,40,3
59,83,2,31,3
97,91,2,230,3
92,129,2,348,3
207,257,2,0,3
136,51,2,147,3
62,69,2,159,3
76,47,2,15,3
30,219,2,111,3
76,123,2,141,3
314,563,1,114,3
57,33,2,46,3
12,65,2,57,3
230,247,2,0,3
157,56,2,26,3
189,139,2,77,3
158,60,2,41,3
78,42,2,94,3
12,73,2,9,3
142,42,2,260,3
146,160,2,60,3
155,75,2,145,3
154,135,2,38,3
101,175,2,71,3
143,301,2,123,3
18,86,2,654,3
5,62,2,686,3
40,223,1,358,3
14,47,3,1005,3
20,36,2,545,3
72,199,1,9,3
49,77,2,218,3
235,273,2,241,3
213,48,2,229,3
9,167,2,727,3
55,138,2,399,3
11,167,2,57,3
441,295,2,532,3
219,221,2,305,3
135,37,2,606,3
378,148,2,230,3
64,368,2,356,3
500,240,2,45,3
110,267,2,173,3
141,97,2,323,3
226,175,2,425,3
427,610,2,158,3
338,184,2,381,3
142,119,2,253,3
520,211,2,213,3
15,152,2,315,3
146,130,2,602,3
125,298,2,441,3
130,37,2,11,3
334,358,2,482,3
273,241,2,618,3
423,998,1,167,3
444,302,3,1023,3
7,132,162,591,3
153,74,46,592,3
622,637,3,379,3
35,399,1,635,3
113,120,2,396,3
356,1023,507,236,3
197,336,176,97,3
478,193,30,487,3
25,583,1,0,3
253,43,2,128,3
313,239,2,638,3
147,35,57,840,3
354,139,45,87,3
271,485,4,204,3
411,445,1,0,3
137,348,2,338,3
140,583,2,307,3
661,227,2,498,3
487,165,2,93,3
453,439,2,95,3
24,223,3,606,3
34,558,2,507,3
668,324,2,308,3
330,204,2,609,3
768,575,2,15,3
134,201,2,98,3
110,186,2,146,3
422,30,2,104,3
499,125,2,46,3
144,190,2,167,3
233,351,2,569,3
138,317,2,37,3
87,47,2,518,3
116,369,2,595,3
264,76,2,36,3
321,7,2,104,3
633,367,2,595,3
93,132,2,141,3
748,1023,3,267,3
200,117,3,974,3
1023,613,3,423,3
583,1023,91,117,3
122,514,16,329,3
987,1023,577,248,3
210,642,127,672,3
607,198,20,270,3
406,437,1,416,3
113,172,2,36,3
121,77,100,893,3
246,373,71,332,3
39,48,7,676,3
285,186,1,63,3
64,122,2,136,3
763,977,3,177,3
722,853,2,168,3
55,199,341,625,3
561,669,82,239,3
26,327,9,369,3
837,1023,1,988,3
222,156,1,239,3
468,348,2,412,3
20,336,2,652,3
259,65,3,654,3
66,318,2,213,3
331,11,3,546,3
80,251,2,428,3
8,44,2,267,3
270,558,2,632,3
177,241,2,142,3
76,100,2,516,3
38,40,2,284,3
204,869,2,4,3
656,630,2,661,3
1023,1023,937,516,3
188,111,433,165,3
391,448,86,316,3
201,410,8,449,3
582,40,1,277,3
224,24,3,315,3
370,245,3,109,3
50,115,2,284,3
16,111,2,25,3
231,135,2,88,3
113,298,2,330,3
473,876,3,435,3
188,681,2,233,3
937,596,2,500,3
126,311,14,376,3
275,358,1,869,3
292,228,1,263,3
247,348,2,541,3
146,338,2,361,3
60,98,2,731,3
133,396,2,174,3
855,523,2,68,3
404,87,2,297,3
161,48,2,70,3
5,196,2,125,3
256,382,2,691,3
387,142,2,198,3
120,284,2,298,3
89,734,2,87,3
1023,874,4,772,3
486,155,190,224,3
755,1023,596,257,3
72,34,300,237,3
158,305,65,788,3
406,37,6,386,3
386,1023,161,325,3
131,460,8,844,3
525,697,0,556,3
117,129,2,671,3
418,267,2,198,3
234,447,2,709,3
412,383,2,44,3
363,69,2,158,3
489,235,2,55,3
29,63,2,68,3
42,234,2,545,3
396,369,2,68,3
25,169,2,601,3
75,645,2,171,3
721,1023,610,1023,3
625,1023,364,662,3
468,133,141,316,3
69,456,22,405,3
1016,109,75,365,3
115,16,27,175,3
78,355,392,1023,3
257,67,118,177,3
336,323,19,948,3
409,215,1,143,3
614,288,1,98,3
37,289,2,395,3
57,88,2,378,3
85,635,2,234,3
562,1023,608,353,3
748,794,99,490,3
48,39,287,298,3
10,49,70,467,3
59,373,117,400,3
278,557,296,348,3
199,296,79,0,3
520,349,7,791,3
151,272,1,11,3
643,28,3,778,3
337,263,3,532,3
264,258,2,502,3
173,289,2,493,3
488,258,236,1023,3
163,101,82,327,3
72,31,13,900,3
126,141,1,720,3
247,239,1,505,3
194,467,2,738,3
88,1023,183,235,3
837,1018,120,69,3
856,1023,261,644,3
143,33,352,632,3
147,717,71,71,3
368,145,7,77,3
556,181,1,365,3
114,18,3,265,3
156,57,3,533,3
13,130,3,454,3
103,89,2,44,3
226,87,2,936,3
177,259,2,466,3
440,185,3,439,3
302,866,2,244,3
446,419,1,472,3
496,125,1,305,3
398,996,2,430,3
201,369,315,310,3
14,597,78,822,3
372,362,9,414,3
13,22,1,463,3
148,134,2,133,3
831,135,3,69,3
246,268,2,319,3
360,115,2,211,3
168,170,2,5,3
208,16,2,410,3
387,28,2,151,3
126,104,2,685,3
276,23,2,207,3
890,560,2,424,3
368,633,2,266,3
283,266,2,530,3
1023,775,327,384,3
186,60,90,164,3
236,349,13,122,3
259,418,0,674,3
392,789,259,1021,3
1023,1023,122,630,3
253,195,395,529,3
117,38,80,933,3
569,365,161,707,3
337,161,39,88,3
46,39,2,498,3
425,167,1,333,3
9,150,2,525,3
71,66,2,207,3
11,30,2,74,3
265,233,2,530,3
218,195,2,94,3
192,311,3,636,3
1,267,2,654,3
160,205,2,115,3
111,67,2,88,3
62,246,3,592,3
217,496,2,187,3
57,169,2,327,3
125,77,3,343,3
274,92,2,548,3
62,38,2,544,3
388,318,2,477,3
120,10,2,139,3
279,86,3,524,3
206,83,2,185,3
298,137,2,7,3
231,91,2,124,3
7,112,2,171,3
225,569,3,696,3
188,504,2,52,3
120,208,2,114,3
16,70,2,35,3
211,123,2,79,3
280,41,2,246,3
193,271,2,228,3
51,70,2,90,3
290,502,2,838,3
5,135,2,660,3
300,293,2,97,3
196,126,2,412,3
68,30,3,931,3
153,25,2,429,3
71,6,2,207,3
111,63,2,353,3
24,62,2,719,3
175,109,2,76,3
105,65,3,599,3
58,76,2,605,3
21,163,2,0,3
249,518,2,347,3
21,25,2,322,3
119,211,2,0,3
14,195,2,304,3
21,6,2,353,3
158,255,2,214,3
19,86,2,48,3
26,9,2,455,3
2,43,2,145,3
18,48,2,496,3
6,48,2,132,3
194,7,2,88,3
117,50,2,222,3
97,350,2,502,3
7,430,2,202,3
354,813,3,913,3
17,392,2,487,3
101,357,1,6,3
81,165,2,367,3
79,295,2,548,3
150,66,2,459,3
252,486,1,1,3
78,11,2,0,3
115,197,2,191,3
16,7,2,83,3
108,115,2,161,3
176,99,2,493,3
219,25,2,159,3
7,71,2,556,3
95,81,3,670,3
0,7,2,173,3
273,390,2,487,3
172,319,2,91,3
612,618,2,86,3
378,518,2,332,3
555,1023,560,236,3
388,678,39,22,3
397,789,235,256,3
329,162,113,87,3
154,121,16,260,3
30,49,1,357,3
9,181,2,176,3
62,99,3,105,3
84,69,3,244,3
4,24,3,610,3
139,145,2,33,3
279,232,2,468,3
171,18,2,448,3
459,614,2,594,3
20,219,3,946,3
5,287,2,105,3
100,778,2,317,3
259,165,2,390,3
346,666,1,103,3
90,328,2,167,3
191,221,2,155,3
130,158,611,1023,3
0,60,401,955,3
21,356,108,850,3
88,169,89,1023,3
98,209,60,558,3
197,150,6,141,3
8,98,1,396,3
12,122,2,816,3
417,558,3,571,3
318,149,2,388,3
50,265,3,587,3
162,234,2,706,3
7,200,2,350,3
318,460,2,296,3
135,152,2,519,3
449,794,2,80,3
97,57,2,97,3
11,67,2,683,3
259,231,2,683,3
185,249,2,135,3
110,10,3,814,3
60,124,2,384,3
193,38,2,173,3
159,104,2,357,3
144,84,2,231,3
27,157,2,480,3
83,9,3,585,3
207,348,2,359,3
111,127,2,125,3
379,899,2,354,3
146,305,1,278,3
653,1017,233,34,3
333,699,124,54,3
240,775,18,57,3
141,169,1,1023,3
92,76,2,562,3
25,84,3,715,3
1,51,3,955,3
48,13,2,190,3
169,301,2,355,3
85,27,2,431,3
28,41,2,47,3
85,127,2,427,3
86,25,2,222,3
175,163,2,815,3
598,762,2,1023,3
207,142,1,280,3
770,1023,549,1023,3
148,225,83,1004,3
289,338,11,1001,3
556,900,0,2,3
32,80,1,552,3
644,1023,20,249,3
10,131,69,37,3
65,24,8,271,3
168,297,1,98,3
185,290,2,10,3
5,11,3,78,3
0,8,2,49,3
169,199,2,133,3
30,73,2,687,3
10,98,2,264,3
200,167,3,410,3
12,89,3,934,3
81,270,2,20,3
323,461,2,23,3
9,106,2,20,3
618,876,2,117,3
129,279,2,14,3
399,397,2,28,3
6,53,2,88,3
259,326,2,193,3
119,168,2,128,3
52,98,2,133,3
22,20,2,19,3
115,164,2,17,3
77,156,2,18,3
24,7,2,58,3
13,26,2,113,3
49,89,2,147,3
161,76,2,0,3
49,175,2,52,3
109,19,2,17,3
394,548,2,3,3
71,99,2,102,3
242,429,2,0,3
22,45,2,36,3
278,549,2,5,3
39,164,2,40,3
146,179,2,50,3
21,79,2,14,3
125,124,2,64,3
104,122,2,12,3
18,89,2,0,3
142,83,2,143,3
23,11,2,62,3
119,275,2,64,3
35,40,2,38,3
74,17,2,178,3
68,98,2,99,3
61,85,2,0,3
287,392,1,3,3
53,145,2,104,3
166,278,2,24,3
6,14,2,84,3
49,204,2,23,3
65,133,2,20,3
86,31,2,45,4
1,39,2,47,4
136,193,2,41,4
21,16,2,36,4
14,23,2,99,4
110,120,2,12,4
21,28,2,0,4
142,231,2,170,4
180,357,2,59,4
31,85,2,58,4
112,283,2,10,4
39,89,2,68,4
62,97,2,72,4
11,67,2,0,4
115,174,2,47,4
161,216,2,0,4
11,18,2,3,4
157,251,2,102,4
64,124,2,2,4
131,152,2,45,4
26,6,2,22,4
39,53,2,39,4
194,355,2,36,4
5,212,2,0,4
15,85,2,59,4
143,248,2,0,4
253,257,2,53,4
157,295,2,18,4
295,324,2,49,4
48,84,2,0,4
49,46,2,20,4
1,47,2,50,4
211,282,2,140,4
0,11,2,18,4
113,130,2,97,4
124,143,2,0,4
45,87,2,0,4
139,119,2,76,4
213,288,2,21,4
40,67,2,48,4
144,165,2,0,4
21,21,2,15,4
38,7,2,83,4
121,83,2,4,4
139,163,2,60,4
10,63,2,0,4
83,53,2,0,4
138,159,2,113,4
18,43,2,24,4
43,18,2,66,4
106,85,2,15,4
74,76,2,45,4
205,201,2,65,4
66,39,2,6,4
11,23,2,81,4
3,97,2,11,4
3,44,2,7,4
207,250,2,94,4
159,212,2,13,4
56,112,2,49,4
142,151,2,163,4
86,94,2,214,4
85,98,2,74,4
64,129,2,268,4
29,16,2,210,4
28,74,2,48,4
31,7,2,20,4
70,57,2,166,4
93,127,2,16,4
96,184,2,4,4
5,7,2,71,4
124,257,2,32,4
202,215,2,7,4
165,365,2,82,4
341,482,2,143,4
171,165,2,48,4
115,168,2,49,4
22,32,2,54,4
77,8,2,213,4
198,203,2,73,4
243,328,2,53,4
79,76,2,163,4
128,237,2,76,4
13,139,2,110,4
2,38,2,232,4
48,161,2,0,4
92,84,2,200,4
187,218,2,0,4
165,187,2,0,4
119,337,2,5,4
89,148,2,90,4
269,471,2,139,4
31,61,2,186,4
0,86,2,553,4
5,22,2,300,4
104,6,2,201,4
234,112,2,195,4
302,280,2,117,4
4,83,2,591,4
36,151,3,952,4
85,19,2,116,4
1,92,2,237,4
215,535,2,178,4
260,483,1,79,4
218,355,1,17,4
129,284,2,1023,4
79,25,256,1023,4
247,349,538,686,4
105,107,144,1023,4
63,317,245,1023,4
112,16,33,1023,4
235,240,235,766,4
43,23,42,236,4
119,115,320,1023,4
77,152,423,1023,4
333,26,420,521,4
37,145,94,771,4
19,5,550,1023,4
151,84,250,814,4
277,182,50,140,4
8,59,3,819,4
95,76,1,781,4
265,422,2,451,4
41,202,3,467,4
188,460,2,840,4
166,83,25,890,4
40,389,6,207,4
9,315,1,693,4
81,341,2,293,4
27,226,2,447,4
3,48,2,314,4
217,14,3,567,4
241,269,595,1023,4
270,64,184,606,4
47,40,34,10,4
26,28,2,55,4
112,88,2,75,4
180,106,615,1023,4
234,619,309,440,4
48,225,68,759,4
367,395,522,1023,4
240,207,245,362,4
237,635,46,771,4
204,333,3,920,4
1023,1023,1023,483,4
400,187,363,215,4
155,263,68,379,4
128,139,6,103,4
136,143,2,229,4
341,246,4,929,4
48,43,2,29,4
126,209,482,1023,4
136,485,228,534,4
34,468,41,1003,4
286,120,158,1023,4
1023,137,131,717,4
143,185,28,228,4
945,312,1,159,4
471,856,1,149,4
1023,159,330,772,4
315,668,398,261,4
23,1023,200,747,4
1023,1023,241,175,4
547,583,442,1023,4
311,417,117,81,4
394,522,15,155,4
122,60,1,652,4
208,131,2,551,4
418,341,2,125,4
305,205,2,285,4
139,303,2,235,4
213,190,2,42,4
253,326,3,971,4
25,353,2,542,4
94,33,2,548,4
129,47,3,708,4
442,25,3,789,4
167,61,2,198,4
634,499,3,804,4
415,284,1,44,4
75,378,2,713,4
643,600,2,127,4
568,400,3,705,4
466,77,2,90,4
230,172,2,132,4
81,191,2,481,4
187,84,2,72,4
413,1023,2,132,4
533,1023,180,257,4
1023,1023,746,237,4
201,452,677,737,4
380,650,155,709,4
513,1023,197,315,4
320,211,29,105,4
127,28,1,277,4
1001,1023,503,330,4
132,33,57,323,4
277,283,6,295,4
369,172,1,70,4
121,180,2,336,4
394,46,2,294,4
644,141,2,214,4
4,131,3,467,4
108,9,3,685,4
370,294,1,174,4
430,227,2,233,4
856,435,2,299,4
16,127,2,341,4
522,542,2,200,4
69,359,1,383,4
529,1023,110,515,4
559,678,191,561,4
165,52,31,999,4
61,147,2,829,4
423,283,1,0,4
84,134,2,39,4
273,49,3,988,4
178,49,2,224,4
400,52,3,341,4
303,578,2,129,4
344,86,2,522,4
276,35,2,252,4
28,421,2,237,4
774,1019,3,452,4
104,490,1,78,4
36,377,1,313,4
740,1023,609,550,4
148,293,380,295,4
346,1023,513,422,4
961,1023,41,1023,4
31,345,49,474,4
288,89,4,707,4
97,33,1,163,4
33,159,2,210,4
83,311,2,374,4
741,456,9,965,4
216,190,40,761,4
422,336,3,346,4
563,1023,1,0,4
109,257,103,141,4
529,706,15,1022,4
230,378,1,131,4
254,527,2,643,4
180,362,2,247,4
335,181,2,52,4
323,786,2,25,4
259,332,1,427,4
393,515,2,187,4
488,70,3,613,4
196,177,3,1000,4
391,74,2,35,4
635,421,3,528,4
695,328,3,817,4
468,110,2,577,4
442,763,30,695,4
680,1023,367,122,4
284,616,81,456,4
607,767,11,257,4
247,107,1,81,4
684,1023,387,927,4
1023,1023,954,85,4
504,304,564,33,4
50,355,121,369,4
193,211,16,60,4
247,437,1,31,4
99,153,2,0,4
193,77,3,24,4
34,38,3,15,4
366,203,3,411,4
106,150,2,268,4
187,289,2,522,4
64,52,2,56,4
37,454,2,323,4
12,166,2,169,4
373,82,2,65,4
196,474,165,0,4
503,1023,472,764,4
106,141,312,73,4
63,195,63,268,4
490,512,5,213,4
365,440,1,751,4
122,320,2,17,4
19,178,3,448,4
696,463,2,484,4
271,388,2,283,4
317,119,2,163,4
41,17,3,614,4
393,308,2,206,4
146,380,2,502,4
126,97,2,384,4
391,103,3,701,4
330,832,122,80,4
57,44,31,230,4
353,673,2,1023,4
52,87,282,179,4
533,411,70,358,4
206,341,7,486,4
732,230,1,711,4
297,53,594,1023,4
136,19,197,207,4
359,12,38,517,4
287,57,2,359,4
211,126,2,596,4
427,30,2,272,4
403,636,2,280,4
798,1023,3,587,4
591,1023,124,432,4
217,567,97,241,4
1023,1023,506,213,4
263,25,357,127,4
421,591,67,333,4
228,322,6,19,4
236,78,1,112,4
183,395,2,168,4
370,44,3,137,4
337,374,3,200,4
237,70,2,126,4
787,123,2,66,4
444,233,2,137,4
102,152,3,769,4
199,443,2,577,4
491,1023,259,340,4
435,225,13,513,4
232,202,1,57,4
302,213,1,213,4
26,42,2,373,4
42,516,2,74,4
365,278,3,0,4
5,699,133,1,4
546,311,49,456,4
166,350,4,178,4
57,93,1,137,4
120,22,2,261,4
99,29,2,486,4
189,10,2,148,4
62,127,2,105,4
418,141,2,141,4
0,88,2,282,4
139,93,2,140,4
449,417,2,201,4
595,933,198,153,4
1023,1023,808,655,4
642,838,616,379,4
343,417,213,751,4
388,186,35,460,4
103,332,1,724,4
272,63,2,408,4
22,55,3,533,4
448,115,3,147,4
121,129,2,44,4
6,19,3,100,4
178,70,3,235,4
6,120,3,230,4
152,16,3,285,4
276,260,2,163,4
342,337,2,15,4
111,638,2,100,4
422,742,82,277,4
245,322,53,609,4
156,205,5,369,4
162,137,1,27,4
222,266,2,407,4
111,190,2,95,4
57,36,2,497,4
4,19,2,195,4
49,36,3,820,4
44,56,2,256,4
131,159,2,99,4
187,395,2,189,4
1,99,2,113,4
35,217,2,140,4
266,330,2,501,4
140,21,2,409,4
263,651,2,271,4
491,795,1,336,4
142,301,3,296,4
222,286,1,265,4
133,74,2,824,4
82,90,2,17,4
55,114,3,758,4
51,8,2,495,4
212,18,2,2,4
70,9,2,390,4
141,73,2,488,4
16,410,2,161,4
366,92,2,614,4
5,105,2,92,4
190,70,2,476,4
316,472,2,254,4
579,1023,12,124,4
75,200,160,330,4
269,447,32,287,4
362,307,2,1023,4
80,167,290,932,4
176,91,105,445,4
49,51,13,1023,4
96,75,513,1023,4
12,85,179,447,4
26,88,33,185,4
74,116,2,410,4
159,102,1,240,4
35,108,2,0,4
85,97,3,266,4
31,41,2,570,4
682,754,446,1023,4
480,1023,58,625,4
800,748,148,1023,4
611,445,280,1023,4
218,49,386,1023,4
72,87,93,43,4
129,29,10,1023,4
209,370,0,712,4
41,185,2,296,4
20,70,3,548,4
137,7,3,19,4
153,123,2,341,4
339,806,3,418,4
133,366,2,219,4
26,471,2,446,4
425,940,2,446,4
22,56,2,50,4
80,118,2,145,4
294,775,2,187,4
120,371,2,712,4
34,124,2,473,4
24,123,2,24,4
75,5,2,361,4
73,69,2,0,4
216,124,2,191,4
117,213,2,63,4
35,8,3,541,4
89,379,2,123,4
62,50,2,230,4
6,299,2,488,4
137,480,2,284,4
45,324,2,643,4
152,178,2,25,4
134,259,2,862,4
96,226,1,396,4
92,115,2,514,4
170,260,2,484,4
32,42,2,129,4
25,259,2,566,4
32,43,2,523,4
120,67,2,55,4
106,76,3,670,4
155,134,2,674,4
206,226,2,192,4
96,62,2,475,4
220,348,2,852,4
54,208,2,321,4
62,155,2,105,4
191,490,2,685,4
63,82,2,58,4
154,67,2,886,4
294,646,2,461,4
49,114,2,421,4
239,391,2,732,4
182,32,2,632,4
152,18,1,117,4
90,119,2,911,4
113,307,1,347,4
89,84,2,353,4
153,264,2,498,4
11,193,2,216,4
367,805,2,224,4
200,75,2,518,4
415,899,1,113,4
100,83,2,368,4
148,127,2,286,4
50,30,2,82,4
146,382,2,315,4
392,405,2,93,4
246,419,2,82,4
170,334,2,140,4
110,101,2,57,4
187,270,2,646,4
247,202,2,500,4
344,625,2,113,4
56,37,3,712,4
205,349,2,476,4
45,138,2,68,4
243,411,2,80,4
134,145,2,415,4
485,919,1,133,4
427,693,16,172,4
30,19,1,349,4
155,151,1,0,4
118,215,2,21,4
60,197,2,64,4
5,24,2,98,4
146,107,2,141,4
88,180,2,21,4
109,57,2,185,4
135,165,2,208,4
127,127,2,0,4
4,35,2,285,4
56,104,2,196,4
74,238,2,81,4
206,513,2,13,4
335,698,2,52,4
394,608,1,63,4
294,391,2,3,4
86,127,2,74,4
106,280,2,150,4
493,752,2,22,4
59,403,2,0,4
340,618,102,35,4
181,314,44,58,4
148,257,3,0,4
82,13,1,55,4
58,71,2,0,4
142,162,2,72,4
32,30,2,168,4
62,30,2,197,4
153,196,2,26,4
74,189,2,171,4
276,509,2,130,4
104,21,2,29,4
95,133,2,29,4
6,73,2,56,4
36,5,2,60,4
27,60,2,123,4
7,7,2,33,4
42,15,2,126,4
59,155,2,0,4
133,54,2,19,4
121,103,2,61,4
71,134,2,191,4
26,39,2,281,4
45,68,2,8,4
207,413,2,49,4
190,411,2,453,4
306,444,2,325,4
129,232,2,16,4
112,31,2,0,4
28,65,2,42,4
20,12,2,180,4
85,127,2,58,4
189,170,2,0,4
94,158,2,42,4
6,11,2,44,4
101,111,2,41,4
18,224,2,100,4
10,81,2,35,4
145,141,2,109,4
77,70,2,6,4
40,45,2,135,4
122,159,2,208,4
2,20,2,6,4
32,129,2,125,4
48,91,2,255,4
13,131,2,168,4
45,71,2,123,4
68,88,2,103,4
161,203,2,58,4
28,20,2,78,4
125,116,2,94,4
81,150,2,0,4
95,107,2,5,4
108,104,2,160,4
58,73,2,214,4
137,201,2,95,4
62,56,2,4,4
206,293,2,153,4
174,138,2,316,4
72,207,2,96,4
224,348,2,114,4
118,302,2,11,4
23,118,2,78,4
53,121,2,133,4
99,67,2,35,4
4,27,2,59,4
43,82,2,12,4
172,240,2,27,4
131,155,2,9,4
174,249,2,18,4
41,40,2,114,4
140,153,2,26,4
236,218,2,39,4
87,97,2,94,4
175,203,2,27,4
120,249,2,202,4
59,69,2,20,4
0,17,2,120,4
218,338,2,89,4
8,13,2,79,4
260,365,2,78,4
190,179,2,100,4
101,198,2,253,4
95,121,2,138,4
161,106,2,51,4
161,351,2,348,4
75,182,2,90,4
382,611,2,118,4
169,283,2,0,4
122,301,2,33,4
80,12,2,230,4
173,277,2,287,4
3,38,2,1,4
48,11,2,247,4
99,130,2,184,4
89,102,2,192,4
58,9,2,119,4
173,169,2,6,4
136,125,2,0,4
13,67,2,112,4
79,118,2,224,4
61,49,2,21,4
115,194,2,80,4
20,121,2,493,4
204,452,2,192,4
96,150,2,188,4
0,17,2,27,4
10,21,2,39,4
129,171,2,337,4
1,67,2,313,4
37,124,2,0,4
93,169,2,8,4
89,183,2,32,4
108,123,2,64,4
47,17,2,44,4
80,96,2,142,4
89,42,2,297,4
3,31,2,47,4
134,172,2,153,4
17,80,2,178,4
76,198,2,31,4
6,67,2,41,4
44,82,2,46,4
74,31,2,44,4
42,41,2,2,4
66,48,2,64,4
47,62,2,39,4
32,60,2,89,4
95,168,2,0,4
4,10,2,1,4
109,40,2,87,4
100,113,2,16,4
69,79,2,61,4
130,200,2,54,4
5,29,2,10,4
172,300,2,28,4
106,149,2,0,4
240,323,2,22,4
248,309,2,0,4
3,42,2,26,4
161,293,2,107,4
90,132,2,170,4
78,68,2,33,4
214,269,2,101,4
55,83,2,196,4
201,236,2,0,4
1,42,2,50,4
68,19,2,292,4
12,9,2,77,4
12,56,2,134,4
103,43,2,499,4
27,13,2,209,4
54,66,2,88,4
31,89,2,16,4
1,80,2,88,4
168,210,2,0,4
104,147,2,90,4
63,136,1,125,4
83,151,2,744,4
184,159,2,388,4
20,14,2,308,4
157,120,3,998,4
122,223,1,201,4
196,151,2,340,4
58,76,2,219,4
153,126,2,59,4
26,6,2,72,4
115,250,2,68,4
62,113,2,118,4
4,26,2,0,4
31,22,2,135,4
215,378,2,211,4
21,29,2,555,4
255,366,1,140,4
127,109,2,160,4
113,68,2,309,4
0,7,2,493,4
23,29,2,325,4
44,60,3,1023,4
56,104,2,640,4
216,324,1,113,4
62,86,2,91,4
74,134,2,186,4
30,10,2,289,4
84,149,2,133,4
192,216,2,20,4
2,6,2,167,4
107,76,2,134,4
149,43,2,9,4
181,316,2,0,4
44,8,2,0,4
46,141,2,154,4
17,57,2,133,4
158,288,2,99,4
26,83,2,56,4
201,247,2,36,4
48,100,2,13,4
15,100,2,139,4
76,124,2,74,4
44,140,2,222,4
48,74,2,397,4
6,55,2,63,4
39,9,2,288,4
48,124,2,147,4
62,66,2,49,4
135,345,2,334,4
18,98,2,161,4
118,391,2,129,4
43,288,2,31,4
70,77,2,71,4
16,29,2,187,4
143,173,2,383,4
13,27,2,300,4
8,5,2,99,4
71,110,2,479,4
207,161,2,460,4
49,50,2,56,4
64,95,2,103,4
73,299,2,153,4
155,52,2,0,4
212,289,2,75,4
66,276,2,39,4
75,81,2,54,4
94,308,2,63,4
279,41,2,105,4
37,100,2,215,4
7,27,2,238,4
4,121,2,82,4
146,85,2,195,4
126,196,2,315,4
0,48,2,91,4
3,59,2,405,4
81,218,2,35,4
31,85,2,274,4
60,6,2,468,4
21,24,2,85,4
238,261,2,80,4
55,11,2,325,4
102,17,2,92,4
22,131,2,27,4
16,20,2,23,4
177,246,2,90,4
156,237,2,36,4
34,65,2,52,4
83,182,2,43,4
149,159,2,33,4
22,6,2,144,4
14,9,2,110,4
144,146,2,128,4
143,108,2,13,4
44,108,2,19,4
105,75,2,121,4
83,169,2,179,4
25,71,2,187,4
11,69,2,0,4
7,73,2,50,4
13,154,2,148,4
75,53,2,311,4
381,361,2,107,4
167,281,2,251,4
160,115,2,168,4
102,103,2,17,4
170,197,2,55,4
157,146,2,28,4
139,179,2,57,4
166,106,2,109,4
129,177,2,377,4
280,514,2,27,4
95,7,2,223,4
110,199,2,201,4
115,40,2,196,4
56,43,2,138,4
137,40,2,85,4
153,66,2,103,4
62,139,2,334,4
116,229,2,437,4
50,47,2,124,4
61,133,2,387,4
546,443,2,583,4
228,396,2,59,4
145,391,2,202,4
76,45,2,224,4
43,374,2,250,4
56,126,2,184,4
72,226,2,19,4
147,183,2,227,4
204,10,2,196,4
79,63,2,71,4
39,190,2,618,4
125,266,2,699,4
212,74,2,266,4
457,168,3,410,4
63,34,3,1005,4
395,83,2,582,4
29,54,2,333,4
126,366,2,593,4
142,111,2,15,4
11,104,2,798,4
397,384,2,656,4
261,368,2,483,4
412,513,2,621,4
262,315,2,108,4
336,334,2,421,4
147,398,1,349,4
84,140,2,145,4
183,40,3,1023,4
9,278,2,737,4
357,267,2,345,4
205,98,570,1023,4
336,398,245,425,4
423,554,51,690,4
104,22,4,800,4
73,283,1,891,4
89,282,2,197,4
7,143,2,710,4
219,173,2,123,4
214,115,2,266,4
211,366,2,231,4
186,364,448,1023,4
469,252,485,944,4
229,98,128,554,4
575,662,178,774,4
137,406,88,377,4
864,625,9,336,4
248,275,0,63,4
294,13,2,3,4
256,462,2,439,4
263,83,3,585,4
662,274,2,371,4
414,446,2,53,4
197,25,2,129,4
340,17,526,1023,4
492,46,466,828,4
207,23,122,650,4
541,104,19,1023,4
894,546,33,47,4
282,162,2,124,4
453,364,1,37,4
739,241,2,250,4
625,241,2,257,4
540,224,2,299,4
137,33,2,80,4
558,199,3,373,4
250,135,2,251,4
577,384,2,973,4
534,864,2,42,4
605,730,2,698,4
597,515,73,427,4
27,320,13,589,4
320,98,1,649,4
196,376,1,610,4
316,171,2,568,4
115,283,2,577,4
347,248,2,245,4
22,280,2,445,4
171,89,2,827,4
54,74,2,297,4
369,104,2,330,4
113,40,2,297,4
66,115,2,541,4
13,27,2,206,4
76,383,2,49,4
16,322,2,347,4
364,436,2,58,4
325,301,2,258,4
298,187,2,274,4
175,539,2,180,4
140,151,2,66,4
83,317,2,314,4
643,417,2,287,4
337,56,2,952,4
82,36,2,444,4
141,330,2,497,4
461,328,2,556,4
638,377,1,398,4
43,203,3,892,4
80,257,2,242,4
68,109,2,110,4
263,238,2,337,4
234,5,2,743,4
318,953,2,147,4
77,147,3,782,4
268,772,0,184,4
243,628,4,345,4
129,266,1,295,4
95,618,2,741,4
178,23,2,636,4
341,38,2,287,4
673,391,2,99,4
214,140,2,711,4
250,37,1,54,4
333,55,3,1023,4
96,61,1,674,4
492,724,2,538,4
451,1023,620,213,4
254,230,110,133,4
886,1023,409,904,4
207,251,218,773,4
862,1023,550,416,4
172,770,205,701,4
693,1023,35,174,4
105,74,3,934,4
268,395,1,196,4
530,275,2,730,4
6,21,2,270,4
819,429,2,1023,4
14,255,1,34,4
222,99,2,499,4
585,70,2,34,4
139,597,2,644,4
14,306,2,544,4
272,1023,716,1023,4
416,522,430,981,4
423,146,118,276,4
471,657,15,368,4
343,493,1,129,4
485,392,2,303,4
30,46,2,124,4
25,141,3,873,4
203,108,3,681,4
306,38,2,13,4
9,87,2,861,4
396,453,1,11,4
350,670,2,286,4
403,962,3,662,4
605,714,30,333,4
1023,1023,800,297,4
413,491,494,596,4
672,941,43,175,4
62,721,104,877,4
883,1023,252,24,4
360,754,372,884,4
274,423,107,366,4
232,589,8,1023,4
1023,442,2,137,4
197,233,27,344,4
513,176,2,199,4
353,151,1,492,4
17,331,2,245,4
536,312,3,399,4
216,644,2,153,4
145,271,2,3,4
140,1023,9,678,4
405,672,1,288,4
266,152,2,129,4
50,325,2,7,4
364,213,2,51,4
1023,1023,1023,42,4
558,314,290,200,4
2,181,55,248,4
20,48,4,1023,4
380,184,1,509,4
149,210,3,808,4
140,106,2,296,4
141,103,2,52,4
284,250,3,388,4
621,692,3,180,4
225,35,2,120,4
535,821,2,176,4
87,335,2,167,4
1023,1023,639,701,4
543,851,110,175,4
428,801,17,496,4
189,171,1,144,4
812,386,1,127,4
397,100,2,56,4
784,36,2,185,4
76,95,2,585,4
183,332,2,157,4
673,369,2,455,4
393,51,2,70,4
564,104,3,595,4
207,133,2,320,4
800,304,2,14,4
176,127,2,583,4
63,880,2,395,4
153,214,2,438,4
827,1023,3,880,4
291,512,526,979,4
997,1023,97,776,4
156,623,532,457,4
444,477,110,175,4
98,272,14,95,4
162,330,0,296,4
1023,348,3,691,4
90,298,2,299,4
1023,358,3,583,4
174,75,68,21,4
297,192,10,634,4
361,54,1,180,4
757,85,2,331,4
785,432,2,27,4
42,235,2,65,4
208,46,2,283,4
467,471,2,122,4
472,293,2,148,4
369,158,3,1023,4
395,517,38,115,4
661,428,4,32,4
691,377,1,249,4
80,129,2,673,4
328,33,3,857,4
456,51,3,733,4
255,27,2,312,4
151,141,2,604,4
455,155,3,979,4
417,300,2,206,4
727,255,2,563,4
99,14,2,135,4
491,470,2,138,4
176,1023,569,68,4
660,1023,536,0,4
40,343,439,11,4
85,494,130,1023,4
238,130,20,307,4
361,392,1,38,4
108,427,2,678,4
208,142,3,686,4
402,18,2,476,4
334,86,2,1006,4
159,180,2,77,4
860,322,3,712,4
33,13,2,374,4
285,98,2,50,4
502,307,2,331,4
499,85,2,373,4
221,255,2,94,4
455,666,2,29,4
14,135,2,14,4
28,67,2,234,4
80,17,2,408,4
112,163,572,1023,4
294,35,355,455,4
119,139,89,183,4
66,106,9,657,4
148,108,1,891,4
18,24,2,345,4
334,23,3,356,4
75,176,2,137,4
253,56,2,95,4
342,144,2,71,4
2,283,2,71,4
107,246,2,17,4
69,173,2,187,4
42,22,2,147,4
157,228,2,14,4
24,27,2,128,4
68,132,2,273,4
159,61,2,201,4
19,41,2,480,4
63,43,601,1023,4
3,6,73,697,4
15,23,340,1023,4
199,152,189,467,4
302,82,33,257,4
20,263,1,192,4
18,161,1,19,4
415,267,2,69,4
161,159,2,71,4
14,179,2,217,4
77,179,2,306,4
181,210,2,192,4
108,164,2,169,4
100,22,2,899,4
34,71,2,44,4
26,87,3,851,4
79,23,2,488,4
4,10,2,77,4
59,85,2,535,4
276,649,2,568,4
99,332,2,169,4
158,280,84,1023,4
228,216,234,933,4
50,111,55,155,4
26,285,4,481,4
295,899,1,334,4
393,351,1,102,4
219,248,2,30,4
106,150,3,928,4
236,287,379,1023,4
242,141,276,533,4
25,149,52,1023,4
56,109,225,1023,4
25,44,72,610,4
8,7,8,405,4
109,455,1,482,4
610,869,2,8,4
549,731,2,589,4
159,844,2,241,4
62,110,2,378,4
502,852,3,608,4
341,256,2,92,4
171,175,2,475,4
38,7,62,326,4
85,220,15,17,4
182,168,1,721,4
88,309,2,814,4
38,22,2,43,4
8,26,2,536,4
32,41,2,300,4
2,117,2,29,4
125,137,2,24,4
35,313,2,419,4
45,401,2,244,4
7,83,2,161,4
59,464,2,300,4
286,417,91,1023,4
520,404,288,862,4
345,448,72,280,4
455,539,6,1023,4
299,685,1,505,4
385,504,1,17,4
45,62,2,423,4
236,82,2,602,4
26,95,2,176,4
214,194,3,71,4
89,77,2,733,4
2,42,2,458,4
146,55,2,448,4
36,97,3,989,4
21,95,1,223,4
125,180,2,644,4
309,568,2,411,4
302,386,2,97,4
309,567,2,695,4
40,122,2,536,4
3,195,2,541,4
360,786,2,679,4
315,893,1,23,4
184,263,64,691,4
162,72,10,246,4
195,340,1,287,4
118,309,1,741,4
6,15,2,366,4
228,359,2,266,4
18,6,3,654,4
73,166,2,260,4
129,149,2,125,4
325,748,2,44,4
531,634,2,218,4
827,1023,623,31,4
21,454,184,71,4
186,144,34,41,4
8,303,2,140,4
76,181,1,42,4
138,248,2,7,4
165,246,2,44,4
72,64,2,104,4
122,182,2,10,4
79,230,2,29,4
76,122,2,120,4
269,388,2,30,4
35,122,2,0,4
23,9,2,93,4
71,222,2,21,4
152,138,2,114,4
30,132,2,29,4
46,177,2,25,4
4,27,2,76,4
22,7,2,0,4
41,15,2,79,4
138,204,2,48,4
8,41,2,56,4
151,107,2,65,4
0,5,2,6,4
66,129,2,107,4
0,11,2,26,4
20,97,2,40,4
210,260,2,55,4
333,381,2,0,4
43,173,2,46,4
520,679,2,26,4
132,275,2,18,4
54,47,2,56,4
246,550,2,50,4
78,256,2,76,4
311,533,2,26,4
79,157,2,37,4
175,261,2,80,4
12,49,2,0,4
52,53,2,109,4
123,157,2,24,4
5,29,2,19,4
75,44,2,66,4
138,267,2,0,4
179,185,2,43,4
150,370,2,9,4
36,21,2,49,4
136,222,2,67,4
137,291,2,24,4
68,168,2,80,4
46,15,2,4,4
57,103,2,26,4
136,298,2,69,4
66,122,2,0,4
41,89,2,61,4
19,100,2,53,4
78,80,2,68,4
153,210,2,51,4
51,117,2,35,4
67,239,2,124,4
139,140,2,28,4
9,37,2,60,4
1,179,2,87,4
29,34,2,0,4
32,60,2,82,4
18,46,2,26,4
138,248,2,1,4
43,65,2,61,4
41,76,2,31,4
13,6,2,127,4
95,147,2,1,4
50,99,2,0,4
145,198,2,128,4
43,9,2,0,4
47,78,2,84,4
0,35,2,60,4
24,66,2,24,4
21,22,2,87,4
1,104,2,21,4
71,35,2,98,4
67,41,2,7,4
62,37,2,7,4
107,148,2,122,4
55,60,2,0,4
137,194,2,77,4
52,56,2,39,4
12,18,2,46,4
143,176,2,66,4
17,11,2,6,4
48,81,2,95,4
136,78,2,23,5
6,6,2,0,5
208,182,2,109,5
8,146,2,0,5
66,94,2,78,5
53,53,2,34,5
12,32,2,13,5
133,143,2,83,5
87,100,2,0,5
29,48,2,115,5
92,131,2,24,5
54,46,2,72,5
84,128,2,93,5
27,87,2,0,5
166,190,2,78,5
192,193,2,47,5
77,35,2,10,5
3,30,2,74,5
38,51,2,9,5
286,431,2,63,5
103,140,2,48,5
116,107,2,0,5
129,110,2,80,5
38,6,2,14,5
73,67,2,59,5
117,83,2,33,5
1,7,2,49,5
153,199,2,108,5
11,73,2,29,5
47,54,2,36,5
61,76,2,5,5
13,237,2,131,5
96,42,2,106,5
12,35,2,10,5
69,124,2,76,5
98,31,2,43,5
3,17,2,49,5
57,18,2,6,5
7,22,2,42,5
117,82,2,100,5
81,134,2,48,5
103,144,2,53,5
35,15,2,93,5
96,188,2,4,5
131,181,2,59,5
47,62,2,37,5
12,26,2,61,5
55,100,2,119,5
86,100,2,0,5
23,27,2,112,5
31,43,2,11,5
76,112,2,26,5
112,181,2,126,5
86,97,2,0,5
46,94,2,80,5
14,93,2,39,5
6,71,2,39,5
40,6,2,92,5
77,89,2,1,5
2,14,2,92,5
131,102,2,13,5
20,13,2,32,5
140,143,2,107,5
19,29,2,19,5
137,171,2,85,5
60,8,2,0,5
94,155,2,30,5
244,274,2,31,5
197,397,1,0,5
169,200,2,95,5
88,55,2,22,5
98,102,2,0,5
94,86,2,91,5
84,80,2,34,5
36,44,2,58,5
37,35,2,15,5
19,26,2,48,5
131,142,2,75,5
34,84,2,3,5
59,65,2,96,5
256,187,2,17,5
52,50,2,27,5
171,251,2,35,5
8,63,2,24,5
87,149,2,125,5
32,5,2,0,5
78,84,2,6,5
200,230,2,103,5
29,51,2,1,5
75,96,2,165,5
135,166,2,50,5
46,63,2,0,5
152,161,2,99,5
131,78,2,0,5
96,156,2,69,5
46,54,2,49,5
25,49,2,32,5
139,221,2,70,5
135,291,2,0,5
190,172,2,105,5
281,283,2,7,5
7,64,2,60,5
166,132,2,131,5
103,106,2,0,5
97,140,2,135,5
70,50,2,41,5
11,22,2,38,5
124,147,2,97,5
37,28,2,33,5
85,91,2,89,5
79,126,2,0,5
0,56,2,38,5
161,154,2,106,5
29,33,2,0,5
132,115,2,86,5
9,80,2,25,5
15,7,2,36,5
116,61,2,68,5
41,98,2,0,5
108,42,2,100,5
156,130,2,8,5
18,103,2,114,5
59,72,2,176,5
62,99,2,49,5
130,181,2,75,5
67,56,2,37,5
7,19,2,39,5
122,140,2,48,5
54,35,2,38,5
109,78,2,123,5
77,92,2,3,5
99,175,2,0,5
181,272,2,82,5
6,19,2,19,5
54,12,2,63,5
105,92,2,81,5
4,53,2,98,5
89,135,2,75,5
44,59,2,29,5
121,158,2,106,5
97,120,2,19,5
45,63,2,22,5
95,96,2,101,5
77,111,2,7,5
73,98,2,62,5
60,58,2,40,5
27,202,2,0,5
272,271,2,82,5
283,471,1,71,5
202,246,2,438,5
92,121,2,0,5
0,23,2,27,5
73,31,2,120,5
12,77,2,1,5
63,135,2,44,5
95,55,2,59,5
28,6,2,59,5
97,166,2,52,5
64,15,2,37,5
112,44,2,117,5
125,144,2,0,5
47,83,2,0,5
94,85,2,151,5
47,141,2,11,5
60,45,2,36,5
161,87,2,136,5
99,97,2,19,5
5,35,2,35,5
60,46,2,35,5
53,26,2,95,5
101,125,2,5,5
82,109,2,23,5
109,110,2,67,5
38,36,2,0,5
17,30,2,73,5
3,5,2,17,5
7,28,2,33,5
195,233,2,85,5
1,38,2,2,5
72,97,2,6,5
91,100,2,13,5
78,111,2,0,5
45,53,2,62,5
0,48,2,0,5
36,29,2,98,5
61,43,2,40,5
14,23,2,14,5
60,105,2,37,5
43,31,2,0,5
96,125,2,43,5
16,51,2,7,5
16,50,2,101,5
30,36,2,145,5
111,94,2,6,5
80,93,2,159,5
48,72,2,30,5
12,12,2,0,5
131,135,2,77,5
47,85,2,0,5
11,38,2,108,5
34,41,2,43,5
64,67,2,27,5
33,52,2,76,5
26,62,2,7,5
68,88,2,51,5
274,490,2,101,5
