Ch1,Ch2,Ch3,Ch4,label
53,119,109,65,1
25,45,0,3,1
161,163,58,28,1
139,123,94,27,1
117,209,76,19,1
61,327,104,70,1
65,154,83,73,1
83,59,2,16,1
299,201,11,72,1
82,10,99,163,1
190,50,0,133,1
87,8,32,36,1
18,42,25,20,1
11,53,59,7,1
74,44,8,56,1
42,64,0,4,1
30,31,31,1,1
134,131,0,10,1
84,7,30,59,1
6,58,100,326,1
85,39,33,56,1
132,12,156,226,1
76,59,137,395,1
206,119,94,4,1
0,10,177,647,1
54,86,38,199,1
31,145,19,60,1
311,211,0,85,1
35,12,124,256,1
120,154,116,281,1
17,7,137,266,1
197,91,192,241,1
119,78,91,100,1
50,25,32,67,1
14,168,91,23,1
16,9,123,3,1
115,19,0,20,1
203,131,106,77,1
239,191,70,107,1
106,89,25,6,1
84,22,199,247,1
218,40,26,281,1
36,43,243,646,1
95,65,0,521,1
102,64,113,333,1
238,139,212,1023,1
74,63,231,465,1
185,149,246,631,1
164,35,112,166,1
97,49,33,81,1
313,158,84,106,1
5,57,57,58,1
41,28,114,117,1
255,23,34,241,1
75,232,299,443,1
448,26,326,165,1
340,290,263,291,1
308,141,29,150,1
124,49,253,55,1
142,221,94,236,1
97,14,374,251,1
122,153,8,226,1
186,168,286,326,1
69,171,124,311,1
134,109,55,353,1
156,75,182,330,1
139,216,116,130,1
44,16,52,136,1
22,54,62,325,1
439,355,162,122,1
160,28,235,83,1
76,21,126,28,1
231,114,772,384,1
247,132,7,397,1
442,100,290,246,1
477,475,208,78,1
197,209,48,452,1
150,51,418,855,1
178,154,548,886,1
270,70,186,259,1
9,105,279,136,1
216,30,29,181,1
182,57,435,722,1
63,35,36,66,1
148,108,547,487,1
178,93,311,97,1
43,40,405,337,1
138,105,124,27,1
35,14,623,659,1
106,129,10,17,1
257,56,602,783,1
388,194,12,100,1
69,40,307,17,1
331,121,199,446,1
190,172,639,201,1
268,311,483,657,1
193,232,80,18,1
28,80,286,72,1
48,200,340,486,1
181,223,125,496,1
158,99,77,308,1
235,281,109,121,1
60,59,399,285,1
188,67,446,91,1
315,118,159,598,1
176,161,249,43,1
520,223,197,86,1
434,246,672,536,1
45,10,237,74,1
162,7,940,501,1
491,449,889,338,1
185,230,1015,1023,1
37,122,743,234,1
236,147,434,441,1
122,9,426,695,1
37,66,531,293,1
253,380,674,478,1
269,213,167,315,1
725,453,469,515,1
58,33,188,184,1
105,14,121,12,1
32,167,88,287,1
67,150,92,407,1
459,139,439,910,1
921,647,799,882,1
7,31,409,849,1
231,80,388,327,1
161,166,33,318,1
166,155,154,621,1
146,36,373,519,1
359,241,9,17,1
109,14,885,617,1
180,26,315,149,1
188,34,61,859,1
222,259,496,1023,1
907,443,43,155,1
95,275,231,402,1
346,19,581,586,1
358,320,700,86,1
264,199,19,117,1
18,35,259,176,1
51,17,1023,122,1
51,70,1023,418,1
28,53,699,1023,1
313,122,138,164,1
109,60,520,433,1
160,147,114,94,1
459,163,314,187,1
437,467,428,243,1
274,29,886,296,1
66,234,297,71,1
153,50,1023,222,1
327,61,216,55,1
620,364,1023,784,1
437,83,894,1023,1
491,32,256,167,1
206,49,33,282,1
242,32,479,94,1
308,119,712,284,1
207,96,1023,544,1
329,75,1023,97,1
178,239,490,1023,1
39,11,608,382,1
12,58,1023,526,1
318,336,410,801,1
131,113,1023,453,1
4,31,39,505,1
116,85,653,572,1
22,139,88,612,1
216,162,474,502,1
83,190,1023,892,1
188,212,866,180,1
15,140,161,681,1
27,36,0,487,1
476,386,993,963,1
333,412,407,569,1
8,37,1023,543,1
212,15,413,93,1
157,173,894,367,1
110,30,537,394,1
179,367,1023,804,1
146,38,985,288,1
4,95,332,348,1
0,8,431,800,1
449,204,140,381,1
495,58,1023,1023,1
10,45,1023,426,1
284,147,170,341,1
68,267,765,899,1
148,256,424,193,1
53,206,449,58,1
242,194,634,85,1
113,168,11,31,1
231,403,780,198,1
207,180,488,195,1
444,217,571,78,1
2,77,587,348,1
91,99,1023,772,1
305,238,177,8,1
215,62,1023,760,1
58,91,11,330,1
125,122,849,673,1
409,282,424,81,1
420,298,461,533,1
405,288,1023,379,1
226,337,1023,518,1
35,126,1023,92,1
193,36,307,45,1
429,72,446,148,1
423,213,865,582,1
122,179,232,37,1
85,221,294,130,1
289,346,338,217,1
114,19,810,244,1
197,115,363,450,1
366,366,816,680,1
12,120,424,266,1
30,6,42,38,1
33,69,404,21,1
146,154,79,189,1
188,211,309,270,1
184,136,210,40,1
169,37,11,67,1
46,136,150,268,1
147,117,128,214,1
312,15,27,11,1
94,90,660,84,1
38,76,0,194,1
8,51,209,161,1
130,177,236,195,1
7,75,161,33,1
173,73,24,28,1
21,67,531,53,1
47,184,210,531,1
311,195,826,361,1
182,321,203,376,1
74,88,57,32,1
77,163,5,136,1
211,99,421,150,1
181,255,174,149,1
114,185,278,180,1
388,258,516,98,1
162,180,253,91,1
20,38,96,7,1
133,113,187,188,1
214,71,297,51,1
75,59,19,48,1
360,244,310,57,1
1,93,320,76,1
620,160,61,58,1
304,11,270,66,1
376,316,907,105,1
49,13,64,161,1
125,78,343,19,1
189,45,76,35,1
261,259,348,26,1
274,248,324,44,1
390,378,32,420,1
233,94,249,44,1
166,101,767,227,1
42,106,433,208,1
97,190,375,50,1
236,177,50,102,1
2,18,170,94,1
40,206,223,321,1
86,119,168,101,1
265,15,623,429,1
30,16,226,271,1
236,174,45,36,1
198,201,96,145,1
168,49,87,59,1
25,153,105,11,1
440,275,260,91,1
70,79,212,186,1
169,219,131,13,1
233,106,396,456,1
222,51,780,159,1
61,116,67,179,1
227,158,288,256,1
143,38,280,68,1
15,83,88,132,1
295,119,201,52,1
47,304,10,62,1
31,32,12,1,1
238,69,30,39,1
72,15,62,56,1
78,223,135,50,1
82,113,403,244,1
31,37,316,471,1
108,64,376,21,1
199,107,66,39,1
266,358,184,247,1
397,260,0,96,1
52,175,204,4,1
44,40,177,223,1
38,122,388,43,1
20,64,87,11,1
262,111,59,34,1
162,390,23,213,1
471,16,5,264,1
103,77,59,343,1
55,62,313,36,1
217,206,24,59,1
131,182,149,86,1
351,170,143,224,1
75,179,192,123,1
124,78,768,287,1
312,376,169,322,1
567,561,546,265,1
289,108,19,340,1
415,240,407,736,1
336,56,274,190,1
73,6,11,267,1
117,76,0,13,1
318,62,278,200,1
104,186,527,137,1
184,54,137,71,1
24,15,422,158,1
320,158,175,168,1
21,56,535,204,1
260,94,63,54,1
29,13,51,47,1
23,18,315,189,1
356,171,35,113,1
4,191,269,46,1
256,225,197,28,1
160,134,339,41,1
195,41,235,17,1
236,172,92,342,1
71,19,275,524,1
96,154,226,42,1
137,94,31,121,1
209,63,81,276,1
236,163,238,148,1
531,85,207,86,1
498,204,122,128,1
642,494,125,176,1
41,152,273,221,1
81,61,6,45,1
50,20,176,146,1
77,126,219,24,1
46,13,21,22,1
119,38,124,143,1
11,52,0,74,1
234,8,327,146,1
220,148,123,7,1
86,12,298,117,1
77,53,377,73,1
200,181,10,48,1
121,214,508,321,1
129,51,452,46,1
77,35,96,153,1
22,66,74,62,1
171,107,123,130,1
217,219,66,25,1
125,142,63,27,1
171,117,210,110,1
30,24,117,16,1
49,83,240,137,1
85,29,15,221,1
163,168,51,17,1
131,191,215,144,1
246,121,245,209,1
389,102,431,357,1
205,172,27,39,1
252,175,122,190,1
180,145,0,11,1
177,327,0,336,1
90,73,57,107,1
1,147,0,72,1
74,22,76,308,1
24,24,179,4,1
369,82,32,62,1
260,101,42,94,1
53,95,58,160,1
181,385,187,14,1
36,11,77,56,1
467,311,68,198,1
6,89,111,84,1
31,17,157,59,1
428,173,0,136,1
740,257,94,45,1
191,107,545,74,1
80,179,123,5,1
29,80,238,219,1
12,50,146,141,1
81,51,409,207,1
347,82,280,203,1
106,71,555,289,1
247,30,208,9,1
173,132,209,61,1
136,37,287,211,1
26,11,221,183,1
113,74,406,270,1
304,231,64,185,1
107,67,35,40,1
314,219,40,110,1
202,41,273,208,1
266,289,23,108,1
197,56,249,149,1
234,50,19,40,1
94,78,22,21,1
252,684,208,184,1
278,6,278,25,1
487,39,312,76,1
100,244,53,38,1
130,144,183,283,1
108,15,117,113,1
21,199,54,3,1
284,251,0,172,1
6,177,175,54,1
265,134,18,90,1
239,94,68,147,1
280,80,2,9,1
593,380,226,174,1
223,325,286,135,1
9,71,210,105,1
186,12,407,221,1
179,67,4,14,1
76,99,584,151,1
121,155,348,166,1
314,122,293,201,1
114,55,17,9,1
159,138,34,78,1
62,28,134,86,1
129,127,116,64,1
628,441,0,203,1
301,213,206,6,1
57,11,267,15,1
332,127,29,83,1
189,95,304,83,1
376,374,123,12,1
207,104,449,143,1
133,181,0,43,1
5,11,226,13,1
377,161,6,83,1
17,12,614,281,1
13,111,480,64,1
65,50,469,340,1
168,34,8,4,1
65,25,87,74,1
41,67,208,161,1
6,72,225,139,1
27,9,47,216,1
152,190,195,49,1
397,334,147,113,1
74,112,17,48,1
45,89,306,211,1
94,36,7,53,1
159,112,128,227,1
175,79,47,54,1
385,13,19,2,1
95,106,56,42,1
142,58,170,146,1
324,260,264,139,1
283,245,234,121,1
303,178,7,39,1
155,243,119,7,1
67,66,173,156,1
113,53,143,54,1
135,238,135,213,1
374,149,86,87,1
404,77,224,16,1
131,93,158,32,1
66,97,186,120,1
22,14,26,27,1
40,136,166,44,1
24,62,266,173,1
538,424,245,156,1
92,76,91,1,1
55,377,205,126,1
164,55,333,162,1
31,124,533,38,1
33,131,225,72,1
215,20,129,29,1
108,22,77,88,1
77,9,225,172,1
708,54,264,262,1
59,38,215,40,1
176,148,305,192,1
5,55,373,158,1
241,11,349,41,1
25,79,262,196,1
175,182,0,61,1
134,183,0,16,1
61,42,42,1,1
30,103,290,106,1
146,88,12,177,1
29,34,239,116,1
65,7,6,99,1
118,145,501,220,1
162,278,139,5,1
20,111,331,307,1
56,37,2,18,1
91,242,336,188,1
205,25,351,435,1
17,244,249,269,1
38,80,507,289,1
60,237,0,76,1
76,17,519,186,1
22,91,514,363,1
484,38,115,3,1
143,118,897,381,1
627,230,103,305,1
6,12,305,213,1
298,117,69,379,1
197,165,372,118,1
13,22,62,265,1
207,5,65,139,1
26,129,520,182,1
170,155,355,203,1
646,178,18,74,1
131,211,736,518,1
167,166,84,52,1
31,193,0,221,1
11,18,600,345,1
449,44,4,96,1
67,12,892,518,1
8,17,170,76,1
202,38,777,365,1
22,48,351,246,1
288,91,152,248,1
615,159,110,40,1
81,218,464,255,1
460,6,49,127,1
757,533,537,5,1
231,114,155,187,1
133,185,62,125,1
226,71,638,679,1
148,318,171,81,1
152,184,282,157,1
32,151,310,45,1
83,126,780,242,1
25,29,648,60,1
44,21,148,247,1
91,327,770,301,1
122,109,221,215,1
145,123,284,334,1
136,118,251,58,1
295,179,49,213,1
334,38,238,151,1
157,221,46,218,1
395,375,305,344,1
78,44,534,349,1
209,181,248,313,1
82,123,552,377,1
151,151,878,248,1
182,40,143,150,1
182,56,37,253,1
80,116,685,33,1
627,449,820,530,1
302,266,119,67,1
1023,544,505,272,1
205,112,710,598,1
389,297,108,16,1
339,266,447,202,1
10,95,453,365,1
107,37,35,232,1
110,234,87,269,1
5,78,705,397,1
390,215,789,675,1
38,217,128,33,1
36,27,287,465,1
153,77,0,24,1
69,172,558,355,1
41,335,491,438,1
130,219,479,350,1
35,88,905,229,1
47,135,40,215,1
51,118,172,454,1
234,10,662,147,1
531,120,146,17,1
189,101,372,133,1
31,188,265,196,1
65,138,597,157,1
147,17,1023,697,1
275,254,108,415,1
6,106,306,215,1
6,190,430,147,1
316,79,1023,456,1
361,164,782,70,1
146,134,729,634,1
530,249,110,398,1
71,29,426,805,1
184,336,51,342,1
347,201,89,176,1
36,98,392,87,1
90,236,1023,529,1
111,19,1023,887,1
167,46,111,230,1
221,211,1023,1023,1
204,267,608,192,1
559,380,321,321,1
47,241,365,122,1
495,165,391,148,1
331,286,157,76,1
332,99,95,192,1
176,76,1023,539,1
84,253,1004,420,1
160,67,98,321,1
352,39,587,71,1
80,187,456,462,1
40,16,30,2,1
315,46,57,79,1
150,10,875,315,1
372,330,21,374,1
93,264,839,518,1
47,20,217,853,1
63,34,650,91,1
328,460,1023,94,1
109,65,0,203,1
39,123,543,633,1
64,46,228,89,1
55,99,348,16,1
229,243,672,119,1
225,227,484,269,1
439,158,304,1023,1
122,244,775,456,1
45,92,828,15,1
414,81,927,575,1
228,30,449,78,1
181,36,443,338,1
181,193,8,336,1
356,13,863,154,1
140,148,900,539,1
125,155,408,291,1
174,134,626,129,1
122,197,206,248,1
41,107,577,366,1
48,25,184,439,1
358,95,367,627,1
68,7,136,57,1
57,13,10,242,1
132,63,403,295,1
54,250,589,47,1
171,48,260,476,1
50,30,358,469,1
119,34,115,325,1
161,201,850,53,1
373,331,270,370,1
54,65,928,122,1
426,353,369,207,1
415,381,82,226,1
31,355,1023,587,1
63,70,1023,265,1
12,57,604,313,1
291,317,228,51,1
123,75,962,158,1
8,151,542,291,1
44,13,15,3,1
149,111,498,322,1
95,10,10,327,1
22,65,119,210,1
116,11,353,78,1
6,209,226,319,1
120,26,283,142,1
61,21,371,213,1
159,181,470,229,1
102,145,442,15,1
309,39,567,389,1
308,111,405,247,1
111,77,297,79,1
3,34,278,63,1
328,13,496,19,1
23,79,544,114,1
177,23,709,575,1
20,99,515,618,1
88,23,32,311,1
198,14,378,203,1
52,94,975,470,1
62,215,689,28,1
19,22,0,88,1
286,376,491,190,1
90,151,18,89,1
115,578,636,12,1
532,417,309,110,1
172,36,208,401,1
3,99,367,229,1
246,133,442,201,1
287,119,501,38,1
347,29,808,96,1
59,187,86,59,1
305,217,348,22,1
175,237,476,22,1
184,87,246,41,1
203,122,159,83,1
244,153,66,124,1
162,106,74,60,1
220,91,60,328,1
6,236,503,186,1
94,13,415,258,1
255,17,336,93,1
12,23,374,323,1
22,135,94,268,1
353,82,458,162,1
464,226,100,165,1
34,88,554,98,1
50,70,106,88,1
59,12,458,94,1
74,185,351,74,1
104,120,69,251,1
60,35,577,138,1
165,286,683,34,1
21,68,160,239,1
312,266,102,7,1
165,370,186,28,1
145,52,348,99,1
106,52,129,81,1
145,129,156,87,1
46,36,216,131,1
14,9,471,327,1
124,51,84,142,1
117,155,685,175,1
167,309,329,147,1
301,266,388,145,1
125,404,85,16,1
571,296,355,258,1
391,59,46,336,1
88,175,23,94,1
247,369,651,127,1
62,150,142,178,1
88,30,280,100,1
222,40,178,92,1
200,19,223,107,1
392,236,10,61,1
96,92,233,71,1
241,206,0,189,1
59,281,247,53,1
89,268,309,297,1
13,78,106,65,1
4,114,0,182,1
266,252,31,20,1
476,276,365,163,1
108,46,141,50,1
82,121,58,76,1
68,181,6,225,1
38,61,46,157,1
230,76,0,263,1
54,105,540,206,1
165,238,125,376,1
186,97,142,12,1
230,46,179,83,1
42,58,535,100,1
43,63,238,8,1
351,207,46,65,1
110,71,257,160,1
79,62,168,136,1
292,201,552,189,1
39,148,130,37,1
77,25,526,430,1
156,32,250,49,1
220,21,496,405,1
313,62,293,324,1
21,43,128,39,1
153,64,389,209,1
68,51,3,182,1
68,53,10,162,1
238,115,117,45,1
132,146,218,136,1
15,119,125,304,1
22,73,71,123,1
203,136,107,144,1
210,199,217,126,1
22,16,385,254,1
249,263,428,239,1
506,169,90,70,1
308,106,509,227,1
126,117,281,441,1
12,173,119,92,1
249,93,364,429,1
252,242,693,9,1
37,295,1023,110,1
453,84,204,69,1
25,18,0,43,1
160,94,302,189,1
155,281,579,470,1
20,78,534,228,1
411,287,604,377,1
287,153,148,7,1
123,198,63,118,1
61,147,408,67,1
18,128,562,269,1
4,31,229,17,1
6,168,64,28,1
179,221,137,181,1
25,86,204,109,1
6,79,388,27,1
397,292,116,136,1
127,201,223,124,1
31,66,241,335,1
373,292,331,101,1
285,19,72,338,1
227,100,685,86,1
7,115,144,331,1
204,130,445,15,1
77,103,88,141,1
35,86,70,72,1
132,112,17,110,1
302,25,54,7,1
70,82,26,24,1
380,39,343,376,1
100,81,209,432,1
188,7,50,36,1
514,577,49,18,1
60,23,215,209,1
50,18,227,313,1
448,7,192,277,1
327,106,203,180,1
94,114,558,301,1
101,20,133,239,1
123,70,181,274,1
44,295,185,22,1
182,24,448,7,1
105,31,41,102,1
63,60,171,175,1
209,86,168,3,1
244,75,137,40,1
187,58,0,88,1
163,135,125,91,1
383,343,40,64,1
74,139,263,127,1
195,9,73,128,1
15,189,175,159,1
488,384,586,483,1
605,339,957,870,1
48,37,125,121,1
31,62,171,41,1
63,328,363,205,1
38,206,248,156,1
134,22,267,128,1
201,131,249,111,1
71,130,337,44,1
150,17,55,86,1
221,147,3,42,1
57,139,113,5,1
90,38,0,1,1
218,65,57,13,1
281,126,250,168,1
200,122,11,184,1
61,101,48,262,1
92,40,30,242,1
10,42,61,169,1
242,211,702,267,1
215,140,295,135,1
212,58,167,155,1
79,68,279,60,1
271,156,86,34,1
21,350,71,38,1
95,80,48,37,1
212,171,153,17,1
14,64,0,50,1
600,426,96,5,1
125,81,21,33,1
653,532,184,172,1
90,241,9,61,1
51,23,408,328,1
278,225,175,283,1
173,67,483,274,1
171,72,25,169,1
118,6,67,60,1
85,199,663,164,1
145,37,288,263,1
132,52,103,186,1
182,64,40,225,1
34,66,230,182,1
207,181,64,14,1
200,168,123,43,1
282,222,92,103,1
176,78,229,90,1
366,383,0,42,1
65,48,23,41,1
138,103,0,42,1
39,40,47,29,1
338,496,0,60,1
145,211,493,165,1
135,66,792,159,1
96,30,87,135,1
68,11,107,171,1
246,64,380,196,1
187,75,231,81,1
143,41,408,331,1
190,217,71,67,1
367,359,221,107,1
157,204,439,341,1
212,269,184,6,1
160,27,70,161,1
489,379,138,3,1
223,446,92,122,1
253,243,181,2,1
214,250,126,24,1
3,27,194,49,1
142,89,25,1,1
72,26,29,61,1
150,194,75,67,1
107,137,21,1,1
180,277,97,6,1
98,73,82,76,1
102,71,96,130,1
396,308,71,10,1
115,54,181,123,1
53,292,132,111,1
284,181,102,36,1
213,198,72,58,1
45,72,18,4,1
585,376,26,27,1
68,42,61,283,1
22,41,66,163,1
70,6,132,113,1
3,64,51,26,1
121,35,340,109,1
56,94,166,47,1
478,367,213,100,1
44,36,80,3,1
62,191,76,73,1
203,164,828,250,1
155,74,153,424,1
18,90,420,396,1
591,509,469,466,1
30,44,185,90,1
224,258,303,79,1
225,113,467,371,1
455,43,325,61,1
197,234,52,35,1
126,248,84,31,1
77,101,350,294,1
107,163,419,57,1
10,16,250,61,1
128,18,207,71,1
89,48,469,276,1
9,230,229,144,1
301,211,0,68,1
151,133,858,450,1
249,85,225,158,1
103,231,438,443,1
234,115,22,258,1
130,101,541,757,1
501,266,21,379,1
39,415,878,701,1
111,317,217,215,1
285,175,277,116,1
157,169,791,349,1
434,278,42,195,1
208,100,606,274,1
120,183,10,95,1
276,308,236,298,1
11,79,316,170,1
3,151,38,88,1
25,126,406,117,1
52,49,182,203,1
317,198,7,412,1
150,196,640,531,1
132,355,229,439,1
43,48,34,2,1
281,370,270,511,1
197,504,649,529,1
235,274,1009,649,1
97,54,177,453,1
57,43,548,325,1
65,91,26,257,1
384,373,102,195,1
29,102,598,41,1
25,113,210,155,1
154,239,858,227,1
167,394,345,125,1
453,354,846,496,1
372,80,1023,622,1
537,438,277,26,1
169,45,273,2,1
26,52,68,337,1
93,54,1023,561,1
66,190,917,818,1
77,19,74,70,1
114,107,303,253,1
8,75,406,100,1
268,22,149,224,1
314,275,738,552,1
92,120,114,808,1
280,72,872,998,1
351,139,10,485,1
217,14,381,213,1
185,194,1023,566,1
62,51,711,26,1
137,75,615,745,1
827,377,280,372,1
719,261,1023,703,1
147,359,995,272,1
173,47,409,68,1
410,92,195,34,1
174,175,202,243,1
26,17,614,115,1
330,199,337,275,1
36,233,269,246,1
458,28,875,705,1
87,101,676,371,1
94,76,427,380,1
8,78,317,16,1
152,11,52,375,1
74,73,142,219,1
94,14,577,266,1
0,45,590,154,1
59,39,20,54,1
293,98,245,5,1
51,26,1023,401,1
32,55,932,326,1
51,75,235,161,1
394,291,137,237,1
276,243,99,85,1
379,204,194,226,1
90,78,544,633,1
72,26,489,40,1
9,22,411,194,1
128,292,146,403,1
123,30,1023,409,1
42,143,983,301,1
108,31,377,40,1
88,39,411,761,1
189,499,299,89,1
202,163,453,520,1
5,378,1023,373,1
199,97,106,15,1
56,314,629,118,1
314,100,841,191,1
166,125,631,199,1
334,164,481,211,1
127,398,82,252,1
59,7,20,467,1
233,82,484,208,1
500,273,696,129,1
269,184,781,509,1
293,42,1023,157,1
131,136,736,800,1
360,49,462,268,1
167,158,723,1023,1
281,99,1023,1023,1
160,133,69,404,1
326,12,469,236,1
103,99,938,466,1
379,451,753,64,1
307,49,1023,84,1
135,72,299,82,1
109,110,70,63,1
119,170,668,985,1
19,38,392,177,1
332,31,441,718,1
97,10,323,165,1
81,68,1023,286,1
151,10,1023,218,1
8,35,710,838,1
7,51,272,115,1
412,321,1023,415,1
239,32,552,670,1
46,157,619,122,1
49,154,1014,1023,1
482,115,1023,846,1
67,171,779,390,1
419,209,853,501,1
57,329,1023,16,1
342,9,1023,626,1
107,107,839,496,1
179,47,198,335,1
15,201,861,708,1
107,19,393,24,1
263,195,182,49,1
62,188,211,229,1
264,292,290,474,1
475,73,250,1023,1
384,445,157,216,1
45,177,45,146,1
41,189,524,176,1
0,179,138,243,1
168,15,1023,300,1
232,58,1023,359,1
45,91,446,44,1
446,135,648,6,1
690,141,768,104,1
107,7,248,63,1
76,194,1023,377,1
50,94,97,93,1
280,138,131,190,1
279,145,37,51,1
52,28,235,136,1
324,19,2,45,1
386,59,321,183,1
90,105,423,7,1
142,388,282,32,1
61,62,127,7,1
123,9,161,202,1
199,116,141,143,1
48,16,853,450,1
331,43,988,845,1
277,54,186,59,1
24,34,30,158,1
46,54,350,40,1
124,50,722,150,1
28,6,382,334,1
218,84,375,27,1
8,91,564,92,1
152,243,173,34,1
237,37,137,404,1
11,115,761,271,1
395,417,407,30,1
70,51,61,97,1
41,34,41,62,1
371,199,497,226,1
538,21,117,90,1
261,127,289,112,1
180,66,353,191,1
291,275,406,71,1
119,159,453,20,1
9,23,383,238,1
41,16,553,88,1
398,382,1023,627,1
54,7,12,62,1
37,69,22,163,1
159,54,98,9,1
67,66,986,335,1
346,158,412,368,1
519,89,462,109,1
350,137,17,225,1
237,177,276,149,1
270,83,233,28,1
41,167,26,43,1
104,71,8,79,1
228,72,48,98,1
82,111,0,132,1
151,206,111,23,1
54,190,372,241,1
176,15,455,404,1
268,126,172,119,1
76,187,32,182,1
179,193,17,248,1
54,181,79,70,1
1,99,385,277,1
99,114,10,24,1
102,331,469,5,1
90,38,408,60,1
205,260,356,226,1
220,212,425,270,1
360,227,14,63,1
85,166,272,148,1
15,31,203,175,1
34,28,114,108,1
67,20,477,79,1
115,188,13,113,1
87,149,11,112,1
4,97,195,21,1
10,49,174,68,1
287,117,64,2,1
26,9,44,32,1
388,60,656,251,1
328,39,249,223,1
7,211,391,361,1
260,145,483,1023,1
281,128,31,271,1
4,15,323,37,1
170,120,108,142,1
9,125,273,224,1
215,19,230,18,1
256,180,282,99,1
58,271,73,200,1
203,182,271,11,1
214,203,52,531,1
68,22,133,85,1
19,61,275,18,1
146,10,240,21,1
153,14,299,57,1
328,26,571,327,1
89,14,380,224,1
281,52,52,18,1
144,9,495,302,1
13,6,306,249,1
274,41,599,129,1
239,144,464,299,1
104,114,65,20,1
138,70,130,370,1
4,23,411,53,1
146,43,229,214,1
75,259,239,244,1
4,51,47,42,1
14,20,456,4,1
368,227,315,179,1
320,316,266,438,1
357,163,631,17,1
109,150,16,176,1
184,333,82,22,1
301,71,52,53,1
120,143,234,125,1
182,58,145,45,1
102,18,260,24,1
89,167,503,85,1
135,138,145,437,1
219,79,416,306,1
36,84,114,223,1
107,142,390,209,1
32,124,49,123,1
9,84,236,113,1
469,184,22,1,1
18,60,18,284,1
161,293,379,186,1
183,119,518,101,1
159,119,303,309,1
115,6,21,245,1
40,42,14,7,1
218,180,207,351,1
16,284,63,370,1
110,103,324,198,1
295,190,328,7,1
67,197,664,298,1
186,155,0,102,1
64,22,168,33,1
16,96,63,34,1
25,93,9,84,1
56,16,53,302,1
79,415,131,326,1
117,67,114,83,1
2,25,259,176,1
561,391,777,367,1
478,593,175,123,1
7,6,53,97,1
221,99,485,85,1
591,275,771,191,1
321,193,247,173,1
98,93,79,48,1
118,137,193,58,1
277,23,287,119,1
55,54,166,80,1
102,62,271,150,1
164,157,209,71,1
72,14,76,55,1
249,187,417,223,1
160,74,73,295,1
97,33,429,258,1
264,103,437,21,1
281,77,88,17,1
4,77,333,79,1
319,79,194,20,1
50,166,134,81,1
211,33,78,30,1
274,115,90,38,1
13,57,344,198,1
190,363,67,51,1
75,46,297,376,1
400,579,134,70,1
219,298,525,20,1
58,178,331,328,1
1,42,623,413,1
105,84,127,49,1
115,90,0,113,1
113,19,260,7,1
43,145,79,224,1
38,109,96,153,1
202,92,58,58,1
8,40,115,15,1
4,27,357,234,1
0,27,22,28,1
99,36,220,160,1
146,15,161,49,1
98,59,119,42,1
368,199,162,24,1
49,357,320,73,1
57,78,83,81,1
312,124,88,112,1
5,188,29,27,1
51,102,171,261,1
139,270,171,295,1
91,37,293,27,1
7,10,185,156,1
162,40,0,193,1
307,59,143,65,1
298,130,8,29,1
462,281,115,9,1
258,454,492,206,1
44,133,109,150,1
218,186,59,220,1
92,153,22,106,1
144,31,91,3,1
331,297,363,186,1
133,88,147,80,1
176,119,38,113,1
98,72,461,154,1
138,121,87,30,1
1,56,154,14,1
146,140,87,39,1
244,88,158,156,1
57,268,47,59,1
23,11,94,47,1
14,201,151,337,1
142,40,0,67,1
231,90,123,262,1
34,25,10,102,1
190,114,259,154,1
296,92,104,333,1
140,113,201,179,1
299,157,21,43,1
177,12,105,125,1
113,175,108,8,1
96,190,139,33,1
45,12,219,35,1
111,35,63,14,1
151,72,55,19,1
204,241,304,97,1
4,100,390,123,1
87,13,96,44,1
5,13,0,37,1
98,109,312,190,1
14,69,11,3,1
125,101,175,200,1
56,144,278,210,1
108,11,335,43,1
10,152,21,90,1
201,154,23,33,1
29,96,89,52,1
254,343,165,51,1
128,66,213,130,1
85,84,122,142,1
70,160,225,133,1
3,40,91,163,1
146,153,294,7,1
81,229,223,94,1
145,30,35,302,1
25,32,264,55,1
605,460,203,316,1
214,92,80,27,1
144,11,423,131,1
266,44,235,35,1
110,150,260,80,1
195,148,6,52,1
52,37,216,29,1
74,265,305,3,1
99,137,72,31,1
87,11,209,23,1
165,11,4,11,1
140,247,171,48,1
111,197,14,44,1
131,209,0,7,1
32,131,18,7,1
68,31,14,20,1
181,159,42,6,1
37,190,127,94,1
57,95,32,202,1
109,407,52,50,1
130,152,108,60,1
228,172,154,148,1
199,33,140,80,1
175,25,128,11,1
16,154,41,21,1
11,77,39,18,1
130,6,7,24,1
21,14,33,153,1
67,191,502,223,1
575,477,266,120,1
147,184,8,125,1
95,75,168,136,1
67,268,17,5,1
173,182,26,14,1
89,49,247,158,1
300,360,36,25,1
285,167,69,63,1
337,180,116,95,1
218,167,0,21,1
70,139,221,141,1
311,202,30,56,1
128,45,188,151,1
21,102,82,240,1
11,53,44,75,1
60,105,545,186,1
94,65,34,22,1
189,9,333,451,1
124,140,206,49,1
24,54,767,701,1
20,81,157,450,1
8,204,217,169,1
53,25,28,171,1
225,11,221,182,1
532,69,575,308,1
66,17,15,52,1
166,289,116,23,1
29,149,478,296,1
228,90,480,126,1
262,10,75,392,1
290,182,24,64,1
42,63,226,371,1
47,91,253,832,1
122,227,197,552,1
70,26,42,515,1
162,247,169,269,1
104,66,216,12,1
170,177,175,371,1
84,93,0,208,1
18,36,440,484,1
285,294,320,270,1
271,217,96,199,1
76,192,318,229,1
228,41,132,294,1
200,60,87,90,1
19,47,56,586,1
129,95,295,445,1
54,129,283,299,1
10,93,0,247,1
268,163,439,156,1
183,192,50,54,1
190,57,52,343,1
254,176,199,114,1
149,58,130,114,1
56,32,0,304,1
148,245,103,140,1
188,5,85,140,1
361,286,18,211,1
599,560,285,161,1
18,179,87,499,1
53,92,619,633,1
280,140,235,359,1
84,91,410,434,1
15,142,337,505,1
91,11,62,164,1
56,41,710,989,1
126,146,128,171,1
94,37,547,460,1
95,266,0,255,1
48,457,220,364,1
1012,491,815,685,1
299,126,62,62,1
17,232,662,716,1
5,190,430,63,1
340,356,64,44,1
78,51,268,1023,1
507,10,239,242,1
281,160,18,1023,1
186,49,248,429,1
582,501,521,173,1
484,342,971,341,1
755,167,483,17,1
86,238,344,232,1
59,196,335,175,1
133,161,58,854,1
22,41,88,78,1
196,16,756,1023,1
66,45,329,223,1
305,295,141,354,1
31,96,102,141,1
408,37,628,21,1
305,313,404,146,1
170,111,1023,834,1
69,85,1014,596,1
197,15,109,406,1
153,14,654,569,1
20,335,673,648,1
82,191,235,377,1
162,20,166,474,1
408,316,866,345,1
461,41,941,321,1
338,250,816,713,1
207,35,115,130,1
183,101,1023,697,1
262,193,294,330,1
295,317,192,35,1
343,162,82,158,1
58,30,296,466,1
79,54,557,731,1
186,5,219,144,1
35,14,429,80,1
89,172,348,355,1
236,104,1023,412,1
53,38,1023,237,1
114,99,456,800,1
38,107,490,720,1
43,37,38,301,1
180,136,341,896,1
174,99,239,412,1
309,18,493,493,1
40,89,865,328,1
94,51,578,652,1
175,57,735,1023,1
341,173,367,169,1
372,337,1023,654,1
374,379,550,18,1
216,6,91,175,1
49,51,227,325,1
10,127,413,300,1
70,251,1023,548,1
191,182,652,501,1
268,15,631,921,1
59,93,511,32,1
151,101,672,559,1
166,276,830,53,1
482,525,161,163,1
81,34,768,220,1
38,20,553,124,1
167,24,544,245,1
143,22,196,61,1
307,97,185,331,1
292,347,483,41,1
133,81,142,155,1
7,6,1023,670,1
236,24,1023,397,1
240,161,14,247,1
1,153,251,17,1
178,4,1023,982,1
66,124,157,37,1
106,10,1023,677,1
394,126,908,82,1
7,22,432,96,1
0,276,361,525,1
33,7,282,234,1
55,49,1023,404,1
15,133,990,245,1
286,257,256,23,1
63,258,356,389,1
35,18,638,9,1
209,30,566,50,1
186,61,1023,304,1
86,48,910,27,1
228,22,864,652,1
0,74,1023,433,1
44,44,108,62,1
237,204,463,42,1
124,89,145,306,1
145,293,47,189,1
185,297,786,396,1
371,220,1023,109,1
75,104,187,44,1
324,412,1001,196,1
113,121,1023,79,1
498,156,711,164,1
185,209,46,172,1
210,195,291,98,1
579,263,94,154,1
81,58,269,580,1
210,88,544,225,1
339,329,119,236,1
233,270,459,20,1
100,69,133,172,1
168,247,520,220,1
177,27,570,431,1
91,121,823,718,1
53,28,890,67,1
484,431,637,363,1
38,203,638,408,1
61,4,1023,378,1
12,46,1023,47,1
50,37,674,562,1
96,87,654,294,1
281,77,618,168,1
98,61,630,8,1
221,200,149,314,1
77,52,751,350,1
91,67,32,196,1
315,385,264,449,1
259,28,181,100,1
634,327,727,327,1
205,104,323,50,1
12,59,126,291,1
21,56,122,37,1
56,73,32,146,1
31,200,111,282,1
70,54,554,28,1
33,16,131,805,1
104,7,539,369,1
262,262,279,263,1
581,477,1000,123,1
160,85,687,204,1
222,84,252,249,1
74,37,68,144,1
139,82,426,283,1
193,181,18,99,1
36,108,275,63,1
3,22,19,24,1
274,302,151,53,1
43,11,146,52,1
212,343,333,17,1
127,132,59,92,1
100,109,23,328,1
119,205,304,26,1
55,208,819,89,1
232,149,249,251,1
52,60,83,119,1
310,199,69,28,1
47,17,5,14,1
55,47,227,210,1
9,55,811,291,1
58,15,93,27,1
110,215,490,927,1
64,251,41,951,1
383,109,995,963,1
229,225,52,117,1
201,136,627,234,1
166,298,214,56,1
7,179,153,105,1
172,63,497,636,1
23,46,472,76,1
83,97,714,412,1
52,33,424,474,1
153,36,683,131,1
104,214,570,14,1
285,181,323,142,1
200,282,385,125,1
78,117,257,73,1
9,59,243,239,1
48,73,3,116,1
49,324,243,284,1
23,108,320,24,1
99,76,57,40,1
158,189,402,256,1
40,14,235,83,1
395,138,256,283,1
14,64,191,92,1
83,322,117,237,1
184,51,207,487,1
25,12,246,449,1
53,83,27,83,1
27,5,25,13,1
119,142,62,26,1
14,25,275,205,1
138,105,269,461,1
1,208,78,39,1
105,252,130,122,1
125,20,224,18,1
208,42,0,15,1
118,31,271,89,1
34,65,9,14,1
38,13,90,89,1
157,11,322,235,1
303,21,464,250,1
231,107,251,10,1
395,117,251,104,1
67,13,587,323,1
7,138,628,179,1
31,117,18,112,1
1,14,284,221,1
78,120,97,147,1
31,13,498,115,1
158,169,340,134,1
50,129,79,470,1
287,282,12,56,1
73,41,354,201,1
159,137,4,53,1
17,90,184,336,1
139,86,221,38,1
114,118,83,164,1
190,15,457,103,1
22,26,95,67,1
161,136,277,66,1
145,38,281,34,1
380,7,315,207,1
128,78,150,283,1
255,285,282,149,1
642,408,199,113,1
132,234,105,250,1
22,68,72,22,1
100,19,117,163,1
287,101,305,54,1
13,104,0,10,1
211,21,223,5,1
135,13,34,35,1
225,25,336,231,1
5,58,59,79,1
126,141,118,73,1
132,85,152,65,1
42,88,40,156,1
169,71,340,75,1
16,45,353,7,1
164,17,180,30,1
128,36,243,115,1
151,45,30,102,1
197,11,410,122,1
195,130,359,107,1
109,150,100,35,1
40,19,273,20,1
85,11,198,121,1
234,142,22,35,1
85,63,397,67,1
202,238,380,32,1
196,107,169,86,1
219,56,520,50,1
57,160,798,197,1
22,43,162,64,1
106,37,279,233,1
492,342,25,100,1
769,195,54,12,1
95,51,246,169,1
305,188,209,121,1
10,84,325,159,1
136,30,67,143,1
268,165,380,454,1
222,23,298,92,1
51,21,75,11,1
112,203,123,283,1
129,199,0,194,1
50,41,62,9,1
14,18,296,96,1
295,144,193,153,1
162,20,414,519,1
32,19,69,29,1
25,116,189,250,1
192,79,163,151,1
16,56,52,92,1
273,194,58,80,1
69,51,9,104,1
198,79,22,98,1
12,192,521,169,1
141,147,12,228,1
86,77,46,114,1
36,94,318,95,1
233,112,178,351,1
124,66,279,460,1
55,89,60,171,1
171,141,0,107,1
272,92,374,340,1
29,12,0,48,1
33,15,77,114,1
148,55,161,46,1
27,80,97,68,1
561,537,4,168,1
99,19,43,96,1
241,43,117,70,1
19,166,481,156,1
255,38,591,74,1
121,121,376,137,1
36,49,284,192,1
58,162,332,337,1
45,153,339,4,1
0,111,119,133,1
55,112,472,151,1
2,9,103,105,1
183,173,90,46,1
97,59,189,77,1
2,12,62,41,1
464,285,17,98,1
503,176,92,3,1
251,92,100,6,1
232,20,220,35,1
80,20,4,117,1
301,7,390,248,1
66,186,228,221,1
204,7,115,50,1
39,13,40,1,1
48,35,66,97,1
59,8,67,57,1
93,147,1,14,1
25,111,62,39,1
76,131,347,413,1
83,196,173,312,1
5,103,83,47,1
64,39,91,145,1
289,41,387,415,1
133,168,253,67,1
33,46,262,209,1
159,140,10,120,1
135,24,33,30,1
65,22,25,21,1
350,227,392,25,1
73,30,139,280,1
128,145,357,248,1
53,33,32,199,1
111,52,168,49,1
105,47,520,243,1
161,75,31,133,1
82,188,271,187,1
299,181,4,119,1
37,100,0,233,1
296,11,85,60,1
98,153,60,32,1
80,60,285,103,1
46,19,69,22,1
162,91,380,328,1
233,187,115,2,1
150,135,137,231,1
141,231,149,17,1
90,151,245,223,1
67,20,0,26,1
29,32,136,14,1
113,7,60,51,1
58,72,12,112,1
101,111,515,226,1
0,32,10,68,1
21,76,24,53,1
84,191,250,3,1
92,65,27,8,1
136,107,0,11,1
14,27,26,89,1
125,98,68,7,1
174,117,12,2,1
71,91,87,13,1
181,88,0,112,1
118,28,105,81,1
4,81,37,82,1
62,52,122,55,1
67,73,183,194,1
131,292,50,54,1
18,174,137,111,1
224,108,178,146,1
91,181,127,258,1
4,33,99,60,1
130,100,202,154,1
265,163,0,6,1
241,148,34,6,1
14,12,73,27,1
249,219,15,8,1
9,112,163,293,1
255,148,73,29,1
295,472,187,168,1
166,122,209,116,1
102,131,439,214,1
112,94,67,181,1
469,481,553,456,1
189,195,51,44,1
57,97,155,131,1
23,89,102,54,1
23,118,282,33,1
186,232,37,53,1
40,90,40,128,1
204,114,9,2,1
68,17,35,18,1
165,109,0,13,1
167,73,0,125,1
2,100,0,42,1
166,141,14,42,1
32,7,121,94,1
26,61,180,60,1
148,10,21,16,1
92,27,29,73,1
30,12,284,24,1
48,10,152,13,1
339,99,116,80,1
18,46,184,212,1
152,194,356,36,1
212,89,567,184,1
269,172,316,159,1
19,66,50,43,1
124,110,115,60,1
127,57,91,56,1
105,25,17,158,1
134,368,111,13,1
275,100,265,101,1
63,129,222,41,1
156,47,239,163,1
175,275,11,14,1
216,144,103,89,1
17,64,224,132,1
1,119,64,72,1
125,154,164,212,1
7,72,422,74,1
35,82,142,29,1
306,153,274,81,1
36,37,49,365,1
32,21,434,245,1
65,131,47,218,1
180,119,256,205,1
165,36,77,124,1
160,231,291,181,1
219,214,116,115,1
97,29,404,270,1
32,213,125,9,1
140,45,160,130,1
58,176,268,22,1
30,30,156,22,1
146,17,289,203,1
4,31,451,295,1
433,324,87,40,1
484,165,281,25,1
15,22,364,249,1
115,51,356,96,1
69,20,521,169,1
6,26,512,848,1
68,255,444,809,1
210,23,1023,1023,1
92,70,511,59,1
260,101,5,282,1
21,89,9,224,1
230,218,275,47,1
125,30,402,73,1
118,32,44,47,1
59,124,496,386,1
35,8,75,102,1
122,52,91,560,1
39,161,385,52,1
327,21,135,45,1
155,33,190,53,1
137,135,61,361,1
243,273,0,46,1
129,114,287,44,1
393,270,656,354,1
919,444,404,204,1
199,146,243,242,1
123,89,481,22,1
26,74,172,22,1
167,110,259,804,1
45,28,199,326,1
133,28,160,448,1
119,31,67,406,1
245,218,397,406,1
87,204,455,193,1
65,56,915,1023,1
27,205,387,873,1
419,117,1023,1023,1
237,140,53,302,1
143,15,294,122,1
111,67,55,6,1
285,392,185,11,1
185,183,297,312,1
19,15,305,196,1
83,35,165,80,1
239,364,492,249,1
276,31,740,317,1
47,11,580,792,1
80,107,771,575,1
834,310,67,441,1
399,190,498,671,1
88,145,852,472,1
133,291,449,541,1
18,29,673,290,1
46,8,24,210,1
96,81,8,57,1
6,12,259,248,1
201,61,110,282,1
290,119,0,357,1
33,133,428,77,1
128,101,582,395,1
50,23,110,87,1
120,171,486,383,1
196,189,760,201,1
131,77,70,197,1
366,180,83,535,1
16,26,247,19,1
59,72,339,119,1
51,87,927,348,1
217,78,94,234,1
96,82,67,425,1
46,60,264,184,1
285,196,266,445,1
333,152,280,148,1
39,97,513,556,1
191,38,1023,670,1
35,12,181,766,1
18,28,608,462,1
16,71,615,371,1
21,380,270,346,1
499,176,654,797,1
321,74,19,17,1
5,83,565,443,1
6,69,506,217,1
200,33,28,466,1
489,420,930,53,1
140,145,105,154,1
173,195,384,272,1
44,229,347,268,1
159,213,136,445,1
5,142,871,893,1
46,17,1023,698,1
300,171,316,185,1
99,97,78,623,1
63,53,296,442,1
154,121,22,33,1
82,173,685,204,1
139,142,145,1023,1
294,492,1023,1023,1
628,348,241,20,1
607,659,1023,459,1
166,269,562,447,1
103,85,696,101,1
127,18,764,704,1
218,192,1023,730,1
44,102,855,248,1
143,128,364,835,1
106,33,169,270,1
325,348,537,501,1
17,27,779,290,1
338,302,318,28,1
330,486,1023,1023,1
532,587,524,1023,1
12,165,73,231,1
12,15,558,306,1
68,37,177,309,1
81,22,739,331,1
130,174,295,133,1
284,240,699,150,1
83,132,625,65,1
65,39,1023,480,1
325,31,175,226,1
220,191,1023,741,1
17,51,1023,258,1
186,361,259,344,1
180,112,487,56,1
28,414,730,285,1
376,355,1023,50,1
28,73,692,1008,1
376,334,490,709,1
101,85,394,54,1
196,56,648,385,1
103,118,56,179,1
60,16,463,205,1
24,111,310,100,1
191,279,52,151,1
261,220,1023,513,1
502,389,1023,14,1
4,115,179,60,1
255,218,45,438,1
606,259,594,355,1
30,93,10,419,1
21,205,555,335,1
153,108,784,307,1
181,246,519,156,1
6,75,468,189,1
159,170,969,327,1
26,193,56,42,1
21,60,236,43,1
249,13,509,232,1
219,114,233,265,1
482,444,275,552,1
9,162,87,113,1
235,53,297,295,1
17,59,62,347,1
68,24,786,283,1
29,91,1023,312,1
637,232,685,326,1
134,90,228,94,1
111,58,567,235,1
134,99,291,382,1
11,39,47,80,1
9,9,185,344,1
279,56,799,175,1
172,40,851,24,1
5,33,437,148,1
162,11,271,138,1
7,68,147,73,1
56,22,588,204,1
182,192,156,184,1
134,103,213,111,1
10,177,73,7,1
64,114,559,91,1
28,176,185,600,1
244,149,9,136,1
355,424,438,372,1
59,105,230,290,1
184,130,104,6,1
33,47,308,152,1
69,78,171,246,1
19,61,2,108,1
61,165,491,45,1
4,148,786,4,1
203,393,161,461,1
104,82,630,52,1
84,67,451,125,1
52,24,28,75,1
3,98,0,40,1
193,95,364,405,1
102,31,525,72,1
267,135,414,126,1
297,130,281,123,1
194,141,29,57,1
313,237,70,25,1
388,315,380,209,1
126,44,113,31,1
93,17,714,129,1
167,234,423,347,1
15,18,265,380,1
383,183,575,14,1
358,117,120,8,1
60,48,206,52,1
168,124,110,172,1
65,21,0,53,1
33,82,205,302,1
321,534,193,35,1
251,70,190,102,1
23,52,144,45,1
43,171,990,324,1
186,61,257,11,1
217,16,242,102,1
104,120,351,72,1
130,71,353,40,1
193,60,31,221,1
24,104,373,12,1
209,17,288,57,1
182,21,142,11,1
118,70,35,5,1
43,42,36,24,1
48,37,239,24,1
219,174,54,43,1
339,175,23,282,1
134,193,701,182,1
104,226,161,37,1
475,269,309,106,1
34,47,135,213,1
117,45,39,62,1
50,115,176,294,1
329,141,18,77,1
18,106,87,271,1
15,78,129,93,1
600,782,485,609,1
25,9,135,168,1
178,76,165,314,1
11,105,51,54,1
54,106,381,325,1
265,112,241,322,1
67,21,37,277,1
170,48,807,308,1
5,205,199,83,1
140,20,193,202,1
13,8,283,276,1
22,15,116,81,1
435,305,195,196,1
236,28,191,125,1
124,181,17,145,1
55,29,13,9,1
89,137,69,141,1
204,196,17,309,1
194,88,153,80,1
319,251,42,56,1
410,202,0,67,1
110,195,313,12,1
158,41,55,6,1
300,149,96,168,1
109,95,650,210,1
448,283,519,121,1
267,137,717,263,1
32,172,532,170,1
8,150,5,90,1
37,93,167,148,1
81,118,244,175,1
346,236,260,99,1
14,35,22,169,1
26,83,147,167,1
29,95,137,223,1
30,96,387,226,1
258,215,39,81,1
72,57,72,22,1
174,232,191,82,1
97,75,265,276,1
35,97,575,437,1
266,19,797,340,1
161,206,261,137,1
127,41,212,65,1
12,67,33,192,1
31,101,166,182,1
178,163,53,107,1
320,231,229,66,1
217,98,31,284,1
628,186,295,177,1
32,84,353,78,1
148,145,200,228,1
132,20,81,16,1
169,229,162,146,1
71,255,558,281,1
343,277,419,184,1
350,251,220,128,1
63,90,66,45,1
75,208,39,1,1
55,33,79,111,1
150,155,190,180,1
180,184,184,100,1
99,71,124,287,1
107,24,156,234,1
68,60,51,14,1
13,6,286,105,1
193,98,292,83,1
255,69,239,32,1
74,102,366,32,1
68,9,112,89,1
16,31,291,10,1
170,55,190,17,1
62,37,56,9,1
51,19,15,15,1
106,23,170,159,1
213,174,0,75,1
231,178,127,112,1
384,191,206,228,1
226,232,54,16,1
242,60,6,22,1
72,117,118,51,1
131,36,9,105,1
2,188,161,102,1
100,311,1,14,1
453,502,249,249,1
121,120,149,10,1
157,50,172,93,1
3,37,217,123,1
60,34,421,234,1
234,71,378,296,1
283,245,179,34,1
60,247,212,94,1
125,99,7,3,1
87,47,232,409,1
54,37,98,87,1
178,113,347,203,1
199,158,86,92,1
244,164,46,100,1
462,200,2,43,1
143,114,195,131,1
72,86,265,85,1
439,74,277,138,1
46,15,251,151,1
113,305,109,84,1
150,62,154,34,1
250,13,484,130,1
430,414,581,44,1
259,117,337,136,1
199,136,156,29,1
243,5,172,51,1
44,46,303,167,1
2,40,70,16,1
25,121,100,78,1
11,165,52,14,1
98,62,68,93,1
66,75,518,176,1
311,35,735,241,1
113,293,157,74,1
46,98,66,177,1
178,185,0,167,1
97,67,55,176,1
111,38,45,74,1
39,55,41,32,1
42,129,365,128,1
9,27,39,49,1
107,38,125,148,1
49,81,299,179,1
107,166,88,55,1
476,270,158,171,1
14,46,0,9,1
136,47,311,210,1
42,101,34,4,1
70,127,471,194,1
13,105,2,223,1
49,143,108,42,1
74,84,465,316,1
232,54,109,1,1
120,63,96,27,1
204,107,375,200,1
221,230,126,152,1
27,81,241,371,1
180,222,53,154,1
184,85,136,33,1
299,159,100,83,1
63,43,132,3,1
4,103,122,44,1
6,203,60,65,1
4,76,325,173,1
246,10,0,16,1
6,56,120,10,1
20,135,134,14,1
125,203,268,199,1
15,19,156,114,1
48,75,4,91,1
240,48,51,51,1
105,48,99,88,1
64,74,162,50,1
46,36,57,10,1
95,76,191,15,1
335,12,65,92,1
67,421,109,34,1
568,243,0,4,1
135,212,22,18,1
241,244,1,9,1
286,47,111,25,1
266,13,51,110,1
199,123,38,121,1
232,202,279,83,1
176,53,8,38,1
28,131,85,88,1
58,85,130,142,1
262,231,179,180,1
5,94,180,162,1
49,92,120,102,1
15,78,18,83,1
114,166,230,43,1
83,42,117,27,1
131,13,71,4,1
105,61,0,207,1
62,219,22,4,1
60,27,40,65,1
53,13,280,6,1
308,63,338,53,1
119,137,1,58,1
329,187,0,5,1
140,137,206,58,1
54,109,89,164,1
310,56,371,20,1
149,168,476,144,1
516,362,211,51,1
196,347,198,138,1
10,43,25,220,1
16,20,244,210,1
13,176,256,140,1
91,176,228,170,1
279,308,31,4,1
95,39,110,46,1
69,28,59,78,1
123,116,63,34,1
171,30,170,27,1
475,232,50,22,1
50,358,20,41,1
172,201,210,45,1
62,64,125,92,1
29,15,93,23,1
10,100,72,3,1
112,148,151,101,1
15,16,351,98,1
67,36,13,232,1
325,78,318,296,1
155,44,0,199,1
286,18,292,87,1
116,306,170,69,1
388,93,51,29,1
488,316,61,10,1
275,265,168,181,1
58,202,572,338,1
286,111,431,157,1
72,185,785,531,1
202,66,492,163,1
211,168,0,118,1
112,55,545,348,1
245,12,59,186,1
220,100,79,34,1
92,93,215,160,1
404,382,497,367,1
330,189,914,834,1
207,25,411,410,1
251,146,986,746,1
175,333,40,7,1
51,329,115,207,1
239,276,156,50,1
124,61,151,2,1
138,132,123,91,1
62,27,350,194,1
519,53,519,150,1
155,93,620,321,1
167,44,189,358,1
136,21,396,481,1
131,30,132,130,1
28,21,3,67,1
75,179,796,299,1
84,162,336,8,1
107,15,454,166,1
78,21,622,493,1
57,113,79,93,1
201,265,4,226,1
20,113,714,575,1
533,86,118,171,1
318,213,100,183,1
129,116,412,192,1
55,134,15,157,1
183,9,16,150,1
32,27,182,152,1
99,121,43,4,1
368,20,58,223,1
193,24,733,504,1
13,22,644,126,1
350,39,74,545,1
47,106,27,203,1
18,81,448,439,1
10,334,272,161,1
65,48,286,171,1
199,218,530,249,1
385,228,37,244,1
231,72,552,5,1
60,35,99,79,1
323,198,243,416,1
59,140,824,1023,1
73,6,1023,26,1
695,290,13,571,1
325,158,1008,898,1
339,177,257,109,1
225,52,1023,588,1
58,167,606,85,1
339,96,505,463,1
113,129,807,909,1
1,29,272,17,1
203,93,572,602,1
185,157,40,32,1
142,167,258,66,1
101,11,162,253,1
96,16,674,621,1
79,21,96,214,1
478,286,528,293,1
161,166,209,116,1
23,37,188,68,1
481,455,89,875,1
199,124,144,634,1
23,16,52,185,1
75,119,517,292,1
25,10,371,360,1
25,32,358,453,1
49,29,61,22,1
377,52,392,298,1
328,102,780,285,1
563,318,384,270,1
70,125,147,381,1
258,70,4,357,1
314,334,561,470,1
65,93,923,1023,1
151,184,320,184,1
390,164,0,101,1
323,337,317,241,1
32,51,59,191,1
131,11,232,233,1
112,153,1,209,1
195,81,695,520,1
21,165,1023,967,1
98,28,130,184,1
181,74,790,822,1
119,47,145,203,1
164,7,59,583,1
386,293,620,549,1
221,22,1023,1023,1
178,176,7,261,1
104,124,572,695,1
22,125,1023,385,1
58,157,583,365,1
42,154,913,199,1
430,428,140,197,1
627,223,1023,305,1
193,169,148,18,1
261,268,731,50,1
314,100,134,165,1
81,37,423,262,1
214,105,488,261,1
12,57,324,139,1
12,99,440,44,1
247,218,84,95,1
105,165,662,326,1
50,17,547,479,1
80,58,686,63,1
161,16,228,143,1
85,93,236,129,1
194,88,542,530,1
343,451,769,69,1
150,229,348,608,1
179,112,658,127,1
284,69,663,356,1
136,115,1023,595,1
377,131,58,41,1
149,29,232,165,1
365,325,179,425,1
154,23,579,788,1
676,349,1023,744,1
296,127,1023,385,1
191,283,556,487,1
911,558,1023,637,1
103,135,652,293,1
116,126,503,58,1
201,63,76,409,1
25,132,648,343,1
120,73,207,205,1
138,7,18,44,1
71,160,165,377,1
19,35,149,314,1
44,37,438,149,1
22,277,837,621,1
136,8,509,436,1
197,188,177,26,1
133,24,35,146,1
94,187,700,65,1
259,78,661,289,1
55,194,181,77,1
169,88,484,422,1
439,533,332,203,1
957,585,594,4,1
328,18,473,413,1
639,230,936,610,1
35,104,1023,443,1
21,245,514,310,1
308,39,43,236,1
166,329,295,226,1
182,223,401,51,1
1,29,627,84,1
467,293,393,117,1
18,74,1023,358,1
2,54,327,89,1
98,47,3,25,1
141,49,8,121,1
291,10,598,288,1
197,78,478,521,1
30,178,175,79,1
133,83,257,41,1
232,34,658,158,1
52,7,169,96,1
52,40,979,146,1
177,38,1023,362,1
114,76,140,52,1
162,31,31,208,1
31,276,271,123,1
62,158,0,142,1
266,71,2,77,1
138,81,594,162,1
144,16,114,73,1
7,10,429,273,1
209,80,320,194,1
66,14,634,462,1
292,49,397,69,1
93,168,235,162,1
214,131,236,109,1
463,443,160,42,1
22,85,21,196,1
295,131,679,35,1
143,95,1023,243,1
86,126,538,501,1
183,160,107,58,1
83,87,10,38,1
93,41,431,581,1
90,20,164,52,1
56,151,563,528,1
245,171,578,345,1
575,295,543,111,1
111,166,0,17,1
5,110,73,136,1
95,49,26,288,1
283,135,398,79,1
98,128,227,284,1
108,22,373,169,1
189,407,61,192,1
345,227,155,760,1
40,72,41,127,1
116,55,314,203,1
251,360,37,120,1
103,200,166,5,1
286,241,279,14,1
502,345,828,347,1
115,161,499,273,1
177,7,399,113,1
189,254,460,31,1
347,269,137,75,1
100,140,45,67,1
28,17,68,23,1
87,90,46,114,1
4,35,140,197,1
16,73,50,41,1
188,131,113,77,1
34,39,13,49,1
38,154,181,124,1
481,311,56,164,1
497,330,41,96,1
136,37,303,216,1
6,41,434,105,1
34,182,280,90,1
170,40,358,135,1
31,33,335,191,1
466,318,77,29,1
708,516,177,356,1
15,58,361,114,1
159,70,185,34,1
115,13,227,129,1
365,161,37,83,1
105,208,112,37,1
215,76,646,401,1
135,252,358,118,1
4,8,69,263,1
214,92,394,134,1
228,297,172,100,1
64,181,775,495,1
248,201,712,414,1
114,299,420,343,1
69,14,628,98,1
4,49,68,3,1
96,243,176,67,1
102,75,90,111,1
138,126,478,385,1
226,135,182,43,1
119,59,42,20,1
657,406,27,128,1
26,73,52,18,1
39,45,188,75,1
410,61,62,44,1
22,113,250,184,1
36,161,39,233,1
72,59,106,51,1
247,259,478,479,1
13,84,167,18,1
143,129,674,96,1
31,114,686,36,1
16,261,665,610,1
117,224,272,21,1
249,202,355,18,1
41,142,171,89,1
86,100,164,144,1
334,125,18,119,1
402,125,382,196,1
176,28,89,470,1
137,75,119,97,1
87,261,68,110,1
415,313,312,25,1
148,285,40,65,1
291,299,448,207,1
2,81,342,232,1
177,289,33,21,1
49,132,108,184,1
139,96,35,115,1
310,64,291,158,1
187,110,306,196,1
39,19,6,51,1
51,13,29,36,1
40,117,203,24,1
94,30,415,48,1
128,134,642,54,1
13,27,152,282,1
122,7,51,249,1
59,289,24,11,1
94,21,157,109,1
459,466,69,50,1
90,126,131,14,1
104,158,191,8,1
443,243,58,51,1
111,110,21,106,1
20,56,0,5,1
80,7,144,4,1
115,41,204,103,1
33,71,326,223,1
110,19,34,163,1
236,201,260,66,1
125,159,211,304,1
325,311,316,434,1
113,179,300,146,1
82,7,32,61,1
148,179,0,134,1
135,189,10,160,1
135,248,98,49,1
54,59,33,53,1
49,63,97,346,1
439,414,121,48,1
247,46,253,4,1
338,88,13,54,1
174,232,376,317,1
71,15,186,10,1
34,85,272,238,1
83,67,179,62,1
267,55,46,85,1
220,149,234,112,1
9,10,17,20,1
161,214,260,228,1
148,20,13,283,1
78,99,447,288,1
22,45,84,25,1
157,332,240,218,1
359,49,0,91,1
372,101,112,69,1
53,18,30,99,1
100,69,61,19,1
4,18,105,6,1
5,174,81,120,1
218,340,192,128,1
60,38,177,15,1
181,144,180,77,1
13,10,18,78,1
68,129,87,59,1
4,11,395,245,1
438,146,121,144,1
205,294,331,365,1
266,166,110,21,1
44,338,71,77,1
423,332,140,40,1
169,159,297,60,1
387,170,104,79,1
178,47,70,232,1
0,12,47,96,1
126,69,347,264,1
22,35,119,150,1
41,8,270,124,1
272,68,125,79,1
167,38,442,209,1
189,154,0,359,1
85,146,94,155,1
138,178,272,419,1
117,138,103,97,1
119,64,485,354,1
232,313,182,130,1
214,127,273,149,1
82,123,59,3,1
129,36,65,139,1
410,269,187,45,1
141,276,154,54,1
74,79,292,146,1
105,64,55,3,1
130,193,521,296,1
84,129,290,123,1
14,61,82,219,1
114,25,88,20,1
47,176,69,192,1
295,158,116,78,1
45,37,58,61,1
40,23,7,78,1
66,12,82,111,1
187,201,131,299,1
76,156,26,56,1
27,472,9,88,1
14,74,29,42,1
152,150,0,14,1
14,59,106,53,1
15,90,17,51,1
124,49,201,24,1
243,177,113,10,1
506,211,50,101,1
363,324,382,258,1
14,111,228,39,1
169,222,75,214,1
220,21,162,221,1
273,164,450,493,1
57,97,78,52,1
124,91,162,113,1
214,152,284,193,1
109,161,0,1,1
157,133,95,203,1
425,407,147,191,1
6,9,4,1,1
110,92,37,52,1
42,162,147,33,1
59,194,0,9,1
176,12,64,8,1
163,127,39,8,1
193,169,47,91,1
233,326,161,39,1
259,207,18,74,1
54,165,1,58,1
92,134,58,25,1
84,14,26,123,1
30,72,78,19,1
31,69,212,165,1
51,145,283,172,1
163,84,13,245,1
369,248,190,122,1
26,33,192,110,1
130,178,27,25,1
119,136,110,114,1
170,260,283,164,1
213,156,67,118,1
59,119,170,87,1
477,183,36,103,1
99,7,58,6,1
13,71,212,99,1
49,39,105,32,1
189,16,0,25,1
15,117,292,10,1
35,130,88,75,1
8,107,112,97,1
223,207,12,142,1
106,232,284,221,1
189,200,0,75,1
117,74,164,288,1
355,203,150,120,1
340,397,310,138,1
280,280,261,197,1
207,286,0,22,1
324,297,412,186,1
30,213,123,71,1
33,117,197,83,1
76,60,69,57,1
80,28,142,15,1
3,32,0,31,1
80,34,185,133,1
48,175,1,8,1
117,21,100,112,1
50,90,400,16,1
61,101,121,300,1
42,19,140,37,1
284,248,363,451,1
35,110,122,210,1
306,94,12,66,1
35,26,387,139,1
132,66,20,191,1
422,126,265,215,1
247,99,9,69,1
294,48,549,197,1
195,19,183,74,1
211,61,150,153,1
46,9,171,190,1
225,317,17,34,1
308,279,260,183,1
154,34,328,185,1
161,10,262,81,1
235,92,287,135,1
32,35,59,29,1
60,63,67,133,1
17,192,123,278,1
186,242,7,120,1
25,13,20,365,1
155,122,249,80,1
186,215,193,195,1
20,69,80,9,1
79,44,120,17,1
63,72,370,116,1
37,15,611,30,1
7,45,5,137,1
4,12,24,272,1
378,358,473,411,1
125,153,3,27,1
68,68,90,73,1
82,9,69,97,1
31,182,250,267,1
156,335,277,400,1
147,250,404,440,1
149,139,233,568,1
41,77,319,260,1
5,129,105,25,1
62,24,53,544,1
236,59,419,579,1
144,234,55,321,1
188,300,170,131,1
496,409,39,140,1
128,51,722,394,1
203,63,311,17,1
202,183,516,98,1
76,140,2,150,1
271,123,1023,774,1
33,93,366,139,1
230,307,136,798,1
145,42,90,50,1
107,89,517,245,1
632,184,817,62,1
336,162,193,610,1
403,328,150,40,1
266,211,254,261,1
14,69,35,20,1
44,59,228,391,1
34,97,104,370,1
113,45,188,104,1
627,242,56,4,1
399,165,179,508,1
35,217,618,116,1
328,7,199,349,1
308,166,444,194,1
3,32,675,246,1
35,236,99,696,1
109,66,332,564,1
97,233,659,191,1
136,26,0,315,1
13,10,326,470,1
285,192,253,234,1
323,152,397,786,1
23,13,7,369,1
122,11,641,361,1
122,140,653,231,1
382,45,409,357,1
49,333,983,5,1
405,278,486,38,1
74,146,423,325,1
392,118,394,84,1
97,131,0,63,1
358,143,151,334,1
23,31,498,644,1
130,26,424,68,1
301,28,13,107,1
217,98,301,5,1
38,27,107,88,1
212,14,623,387,1
36,86,144,235,1
185,114,121,103,1
101,93,314,876,1
38,9,672,440,1
592,296,53,318,1
281,9,142,449,1
120,68,140,385,1
199,104,483,442,1
212,10,137,166,1
363,319,153,436,1
82,142,627,509,1
435,433,595,87,1
463,308,133,467,1
156,70,600,362,1
27,71,340,23,1
218,268,75,63,1
126,169,524,171,1
209,315,894,106,1
192,205,300,24,1
203,122,372,294,1
36,41,386,200,1
555,298,491,128,1
706,240,444,240,1
46,119,702,13,1
176,377,292,456,1
86,111,944,321,1
442,337,204,526,1
141,112,565,111,1
113,90,270,313,1
20,110,879,314,1
165,136,95,12,1
155,52,613,122,1
315,214,324,158,1
106,187,888,55,1
197,334,105,744,1
174,258,974,1023,1
151,53,686,383,1
452,330,332,1023,1
337,348,0,172,1
182,245,181,39,1
46,9,1023,211,1
501,201,589,229,1
107,32,543,55,1
186,111,499,90,1
21,196,934,1023,1
86,106,372,1014,1
31,60,386,493,1
101,69,2,37,1
287,38,577,634,1
329,47,231,208,1
188,26,109,4,1
444,182,286,162,1
295,99,503,324,1
104,44,187,50,1
88,155,1023,493,1
239,189,510,32,1
433,336,392,11,1
88,18,147,119,1
87,141,726,847,1
144,188,1023,409,1
315,127,576,25,1
254,263,39,103,1
238,162,100,71,1
49,20,60,505,1
41,25,519,611,1
8,138,197,286,1
224,71,0,92,1
84,174,1022,276,1
24,99,466,142,1
21,309,179,59,1
178,92,79,182,1
112,106,514,463,1
73,83,93,171,1
133,145,198,132,1
191,144,995,211,1
14,105,907,30,1
248,363,115,322,1
361,258,534,327,1
48,25,817,193,1
47,219,153,13,1
277,375,637,357,1
134,26,388,46,1
142,173,402,480,1
506,433,563,434,1
18,63,50,207,1
210,191,0,690,1
33,29,423,311,1
146,90,920,419,1
214,203,78,193,1
346,364,371,211,1
302,480,62,306,1
67,126,428,322,1
167,115,13,98,1
475,309,229,306,1
273,411,521,668,1
118,188,0,258,1
112,255,465,215,1
409,282,992,382,1
39,142,8,67,1
71,59,515,399,1
318,398,714,471,1
393,157,41,62,1
14,97,313,40,1
472,439,403,221,1
179,38,738,50,1
67,129,124,202,1
181,107,479,60,1
82,36,317,320,1
277,464,127,68,1
206,87,609,257,1
283,257,196,294,1
276,323,486,3,1
114,62,122,93,1
37,20,402,78,1
7,133,107,43,1
190,58,412,85,1
43,83,126,300,1
44,39,182,159,1
20,85,752,63,1
440,112,0,24,1
416,102,45,101,1
72,131,456,246,1
42,64,223,43,1
22,21,236,262,1
114,59,257,165,1
4,9,61,311,1
85,14,259,196,1
29,28,542,87,1
133,104,136,18,1
138,17,337,37,1
28,136,689,277,1
174,240,993,438,1
101,79,177,132,1
129,141,512,261,1
36,278,571,320,1
230,60,58,52,1
263,315,370,12,1
0,134,313,253,1
14,30,43,164,1
115,50,182,330,1
11,21,732,217,1
135,264,553,307,1
233,393,440,174,1
325,164,101,225,1
23,28,178,193,1
193,228,398,422,1
169,212,241,132,1
28,46,147,174,1
94,51,411,311,1
381,76,151,111,1
16,8,550,273,1
16,89,925,311,1
47,166,556,178,1
70,169,344,68,1
240,410,346,553,1
3,328,16,189,1
133,15,387,70,1
31,69,148,73,1
107,51,606,221,1
83,183,1,59,1
78,28,74,143,1
148,261,132,197,1
17,17,162,208,1
266,256,55,129,1
91,219,310,39,1
36,336,574,251,1
127,79,0,158,1
425,185,519,221,1
95,200,0,180,1
114,76,314,171,1
210,50,604,290,1
23,9,18,217,1
235,88,531,206,1
125,40,26,95,1
107,108,56,35,1
120,31,90,57,1
96,103,220,265,1
93,313,830,78,1
406,460,11,508,1
171,17,717,657,1
158,37,245,191,1
137,33,61,224,1
56,113,0,99,1
86,73,51,57,1
103,338,215,40,1
94,56,100,44,1
108,79,279,153,1
132,62,270,414,1
100,76,571,121,1
242,30,28,404,1
40,278,444,69,1
123,9,50,268,1
102,131,155,5,1
114,42,518,72,1
48,65,453,123,1
70,77,15,153,1
52,7,447,307,1
163,324,57,146,1
89,28,556,183,1
27,284,121,120,1
379,250,444,136,1
192,143,15,13,1
47,87,510,166,1
463,454,712,203,1
65,258,248,216,1
71,233,429,124,1
409,84,96,59,1
253,35,2,125,1
25,16,291,136,1
230,121,43,48,1
174,186,241,17,1
271,294,230,138,1
26,81,476,496,1
44,40,90,27,1
490,267,90,286,1
466,269,120,44,1
134,103,14,3,1
111,30,181,12,1
442,161,414,413,1
61,75,940,376,1
139,115,251,239,1
147,114,12,64,1
39,25,627,130,1
379,75,522,80,1
38,33,14,101,1
8,15,17,155,1
289,123,344,246,1
10,9,661,162,1
39,184,489,194,1
237,220,58,136,1
80,27,6,29,1
46,37,53,12,1
49,26,238,120,1
129,86,702,301,1
128,17,31,283,1
103,177,880,549,1
138,35,62,3,1
359,21,239,98,1
26,40,551,69,1
405,268,172,261,1
82,97,332,304,1
24,239,64,222,1
286,184,219,107,1
170,31,122,23,1
142,311,105,32,1
134,38,10,205,1
178,87,197,77,1
166,34,172,17,1
184,129,99,2,1
5,109,171,58,1
120,17,359,191,1
222,219,624,132,1
99,38,213,150,1
103,21,131,63,1
10,40,55,220,1
104,88,248,311,1
38,100,122,163,1
10,30,112,9,1
36,150,139,118,1
223,27,295,259,1
158,21,436,152,1
386,182,11,84,1
57,68,43,301,1
126,288,473,332,1
173,43,312,91,1
108,55,5,182,1
262,214,97,36,1
615,557,244,296,1
136,7,117,25,1
203,49,260,118,1
220,74,330,139,1
298,52,168,24,1
59,33,133,1,1
354,117,53,117,1
68,59,74,59,1
50,17,28,150,1
21,106,377,28,1
104,56,433,95,1
68,11,190,128,1
121,36,247,196,1
263,156,270,539,1
47,36,3,132,1
420,125,603,1023,1
120,178,87,157,1
59,184,221,287,1
127,144,218,219,1
63,113,29,16,1
101,56,35,16,1
105,129,10,56,1
69,26,105,1,1
135,271,20,13,1
245,254,14,44,1
113,30,15,83,1
289,47,778,326,1
197,494,428,25,1
44,25,542,554,1
233,8,558,256,1
187,12,1,106,1
140,28,326,138,1
20,29,169,59,1
35,116,109,62,1
14,13,7,51,1
2,41,368,173,1
256,151,78,42,1
142,10,118,15,1
374,347,40,22,1
90,23,44,36,1
486,321,167,68,1
133,79,73,19,1
127,76,157,37,1
160,134,160,145,1
267,346,45,79,1
174,151,496,228,1
2,33,71,187,1
269,187,334,25,1
39,106,47,52,1
186,138,0,182,1
176,284,109,37,1
84,119,338,216,1
164,19,398,65,1
368,352,490,233,1
677,844,67,51,1
98,46,87,19,1
277,345,282,13,1
301,184,181,53,1
191,263,145,1,1
222,91,6,28,1
131,62,5,5,1
227,204,96,141,1
146,77,4,27,1
23,119,101,40,1
409,438,136,39,1
218,42,97,54,1
86,195,23,61,1
380,169,20,26,1
69,33,49,30,1
90,13,69,28,1
198,195,7,57,1
42,11,620,216,1
80,395,443,107,1
248,177,425,276,1
69,118,34,18,1
64,78,101,87,1
64,6,626,245,1
18,190,135,229,1
319,249,699,380,1
3,205,27,61,1
6,129,164,40,1
12,53,128,62,1
148,193,97,149,1
215,351,21,3,1
75,123,53,4,1
16,151,7,19,1
79,137,84,34,1
32,78,10,23,1
33,89,7,2,1
224,200,40,3,1
127,24,60,173,1
338,117,307,135,1
188,286,332,160,1
196,6,348,185,1
114,373,212,78,1
51,147,66,80,1
247,265,680,133,1
210,155,25,12,1
532,191,237,109,1
206,21,235,100,1
281,246,0,67,1
146,106,0,61,1
12,23,9,15,1
18,142,121,22,1
117,47,0,3,1
37,83,1,53,1
25,87,182,49,1
24,7,259,2,1
136,125,140,84,1
180,69,223,8,1
104,52,74,27,1
179,225,556,91,1
122,87,175,151,1
40,227,696,344,1
120,157,81,200,1
141,120,23,1,1
377,246,339,2,1
24,102,79,71,1
77,126,129,53,1
169,211,160,217,1
154,80,71,19,1
28,21,299,78,1
1,16,13,4,1
387,145,97,134,1
103,190,53,82,1
168,15,347,67,1
383,64,406,107,1
193,150,94,68,1
66,177,30,207,1
108,34,287,83,1
41,139,306,69,1
228,99,81,71,1
1,149,320,304,1
151,189,381,185,1
323,7,114,59,1
256,31,168,77,1
160,21,280,108,1
375,241,90,6,1
2,117,161,44,1
390,250,162,93,1
294,109,689,710,1
57,19,139,244,1
195,115,328,578,1
149,208,424,295,1
59,219,634,296,1
80,118,679,284,1
95,127,476,494,1
205,162,549,295,1
176,92,108,425,1
538,16,550,167,1
138,62,1023,384,1
200,33,426,142,1
6,8,540,1023,1
120,221,162,444,1
246,211,390,613,1
151,160,668,213,1
137,70,533,301,1
64,150,25,4,1
256,389,93,333,1
199,17,170,108,1
175,105,184,81,1
240,53,115,198,1
31,104,108,224,1
372,114,247,298,1
221,125,167,263,1
151,291,118,629,1
4,25,313,120,1
153,167,534,97,1
3,131,24,152,1
305,111,711,180,1
151,46,283,172,1
38,121,1023,513,1
37,92,650,305,1
131,73,198,140,1
289,393,303,99,1
133,164,280,453,1
16,212,323,74,1
413,263,94,783,1
214,181,11,13,1
27,80,306,41,1
85,71,141,97,1
163,229,39,32,1
266,95,377,215,1
148,223,228,61,1
145,15,126,120,1
227,25,39,345,1
92,174,239,96,1
7,102,23,63,1
73,290,289,440,1
135,11,694,424,1
45,65,217,1023,1
2,13,1010,1023,1
60,68,11,181,1
172,68,747,521,1
172,130,0,225,1
338,159,2,271,1
66,61,641,25,1
43,16,223,146,1
143,65,306,315,1
9,31,461,183,1
71,49,234,440,1
105,45,681,244,1
107,191,151,447,1
121,117,516,613,1
308,205,302,339,1
71,358,310,234,1
17,21,624,133,1
113,31,157,58,1
451,296,1023,600,1
271,150,921,72,1
212,20,473,876,1
492,345,265,14,1
130,24,30,36,1
181,177,296,278,1
257,228,214,298,1
74,7,216,67,1
60,66,928,883,1
157,249,1023,859,1
230,20,463,81,1
164,179,214,196,1
175,234,77,1009,1
441,21,57,817,1
498,105,199,548,1
647,367,815,208,1
506,418,429,225,1
401,378,441,172,1
236,224,461,394,1
170,86,410,187,1
147,96,216,7,1
172,248,554,344,1
101,65,266,125,1
663,38,713,628,1
116,53,391,78,1
415,571,357,621,1
170,135,1023,156,1
29,244,805,84,1
274,453,378,544,1
118,232,601,475,1
66,48,1023,699,1
314,177,1023,303,1
78,222,540,374,1
349,155,490,553,1
41,106,467,276,1
28,33,241,122,1
75,273,755,318,1
123,143,12,105,1
7,148,298,236,1
549,159,994,177,1
527,535,357,88,1
88,72,721,65,1
352,11,673,177,1
32,79,10,140,1
106,56,1023,6,1
234,332,94,549,1
63,116,312,617,1
244,181,1010,465,1
50,70,706,230,1
91,169,864,374,1
43,13,524,326,1
180,200,11,193,1
225,183,192,362,1
85,34,29,550,1
152,20,603,26,1
143,72,103,584,1
275,354,455,298,1
558,365,734,415,1
382,271,20,352,1
396,161,126,72,1
131,225,627,280,1
374,328,61,21,1
339,46,596,161,1
306,118,164,45,1
218,141,756,196,1
48,264,747,210,1
108,92,632,19,1
47,155,112,310,1
15,70,57,8,1
569,401,904,530,1
139,8,817,193,1
11,23,193,126,1
87,190,886,513,1
2,269,148,59,1
168,64,554,363,1
40,374,865,57,1
70,12,513,157,1
217,380,1023,82,1
512,155,609,147,1
158,145,281,154,1
456,295,317,33,1
91,172,22,65,1
212,99,355,43,1
47,208,0,258,1
292,51,629,47,1
221,120,1023,1023,1
33,322,258,95,1
264,369,0,1023,1
92,170,786,84,1
30,268,982,588,1
271,144,410,466,1
357,194,611,468,1
343,149,15,163,1
195,218,571,598,1
170,55,949,174,1
451,542,759,63,1
407,362,119,14,1
276,122,177,44,1
71,139,137,562,1
77,81,226,1023,1
158,224,215,186,1
27,23,1023,308,1
74,142,22,97,1
86,109,183,28,1
113,138,463,388,1
32,18,314,104,1
155,190,311,204,1
120,391,203,159,1
460,297,22,217,1
850,219,202,32,1
254,70,108,92,1
303,149,416,84,1
547,94,657,399,1
108,379,724,596,1
184,94,532,202,1
48,15,426,44,1
0,111,90,2,1
205,53,46,54,1
15,13,204,3,1
11,190,102,112,1
175,146,109,18,1
161,64,692,334,1
0,240,927,209,1
221,169,9,51,1
143,207,321,63,1
454,432,96,185,1
272,256,641,47,1
75,14,226,522,1
457,114,471,133,1
182,213,13,231,1
92,205,776,450,1
258,75,300,206,1
323,260,42,42,1
121,173,21,2,1
206,299,102,248,1
49,178,723,76,1
198,87,717,90,1
309,168,443,16,1
264,227,128,88,1
423,26,25,100,1
496,314,1,39,1
209,10,250,172,1
95,548,36,20,1
159,209,0,181,1
107,21,138,230,1
235,222,559,103,1
256,89,1023,139,1
14,114,50,57,1
242,136,107,29,1
233,51,171,137,1
175,18,167,9,1
317,411,285,274,1
40,54,483,85,1
136,16,224,192,1
278,168,624,464,1
479,350,235,9,1
74,19,458,99,1
422,21,10,178,1
37,85,2,64,1
108,210,32,20,1
34,61,561,342,1
347,307,258,182,1
60,18,23,33,1
730,548,137,67,1
118,234,321,228,1
252,217,387,72,1
174,305,267,428,1
54,49,216,155,1
56,157,135,339,1
166,66,355,413,1
311,16,187,193,1
227,241,340,216,1
110,11,469,816,1
396,129,370,315,1
170,59,53,1,1
31,77,208,282,1
301,192,179,249,1
250,131,1,22,1
124,88,83,297,1
34,37,229,378,1
678,267,503,229,1
261,7,25,59,1
32,42,118,48,1
129,80,49,59,1
127,33,0,237,1
101,48,167,255,1
76,27,684,85,1
114,25,241,60,1
85,45,275,139,1
35,85,6,251,1
417,309,572,434,1
170,59,319,96,1
4,91,103,69,1
10,53,0,117,1
481,183,252,424,1
244,35,115,402,1
104,18,299,87,1
591,31,110,215,1
1023,464,122,28,1
60,115,249,69,1
94,111,324,187,1
451,225,172,124,1
81,131,480,231,1
220,7,18,101,1
448,11,107,259,1
66,62,361,151,1
49,31,215,267,1
57,9,148,62,1
108,53,24,74,1
11,20,177,89,1
125,125,163,89,1
37,55,0,127,1
115,125,5,185,1
184,46,297,524,1
397,247,714,853,1
101,13,102,79,1
136,161,190,261,1
414,355,56,151,1
115,10,4,24,1
161,177,318,146,1
294,186,521,418,1
111,46,229,29,1
111,203,4,82,1
5,44,488,6,1
92,56,573,8,1
161,131,449,377,1
23,153,403,557,1
79,12,117,484,1
167,132,201,117,1
40,154,43,29,1
60,68,360,116,1
82,79,81,157,1
10,189,9,121,1
207,270,30,68,1
426,303,245,354,1
197,8,378,366,1
119,12,77,163,1
9,56,114,64,1
224,340,13,33,1
171,149,21,93,1
24,82,197,412,1
42,154,321,310,1
211,156,119,137,1
31,54,285,274,1
86,13,183,48,1
96,9,24,128,1
539,221,21,227,1
93,84,205,261,1
154,52,152,475,1
625,329,111,115,1
304,275,111,123,1
57,54,42,17,1
24,117,1,26,1
80,13,149,2,1
27,44,0,22,1
98,85,60,6,1
144,114,48,29,1
9,73,155,105,1
323,171,190,214,1
141,155,174,14,1
240,175,420,74,1
77,84,370,152,1
131,144,134,151,1
89,69,157,131,1
80,21,100,190,1
66,103,108,73,1
545,229,527,140,1
4,50,331,24,1
114,211,506,102,1
138,66,344,84,1
93,122,198,252,1
83,53,77,228,1
170,54,246,65,1
90,26,257,120,1
154,50,543,54,1
198,52,122,198,1
139,163,92,22,1
143,128,114,8,1
88,299,219,6,1
177,219,118,65,1
91,6,451,425,1
189,61,269,183,1
374,125,408,424,1
453,142,138,67,1
255,245,465,590,1
195,149,208,160,1
35,138,477,272,1
219,391,0,185,1
168,49,158,159,1
109,76,68,386,1
34,118,514,112,1
122,260,69,91,1
369,86,53,8,1
120,23,251,387,1
26,51,262,230,1
27,137,7,64,1
13,126,404,306,1
94,109,115,110,1
393,219,158,205,1
580,297,25,2,1
4,46,2,52,1
45,68,110,31,1
7,114,571,281,1
165,133,40,161,1
13,62,613,346,1
282,292,25,53,1
87,206,254,139,1
218,273,202,300,1
289,24,284,582,1
149,43,0,160,1
62,15,0,19,1
46,115,7,253,1
256,200,0,173,1
36,27,114,72,1
60,126,162,298,1
0,42,3,137,1
199,389,145,487,1
309,271,11,61,1
63,119,170,85,1
112,19,93,160,1
141,250,94,68,1
394,337,110,98,1
50,174,0,27,1
8,73,0,191,1
121,111,187,9,1
286,297,213,67,1
171,80,142,6,1
84,99,75,2,1
180,30,222,30,1
191,149,68,79,1
35,57,236,244,1
81,38,364,105,1
46,87,504,171,1
66,163,0,10,1
348,134,141,31,1
127,43,156,226,1
123,10,100,13,1
153,43,118,98,1
187,97,62,42,1
258,7,672,308,1
166,14,607,58,1
226,194,335,439,1
94,187,15,3,1
131,262,114,56,1
58,31,268,181,1
250,146,0,10,1
254,116,236,94,1
42,201,12,108,1
49,240,5,4,1
158,5,9,74,1
5,18,133,112,1
130,43,3,127,1
57,283,48,22,1
124,85,123,59,1
208,192,29,6,1
4,11,70,106,1
141,19,365,197,1
245,68,266,171,1
193,123,248,146,1
155,46,295,2,1
4,27,182,91,1
161,73,17,67,1
351,239,21,30,1
222,177,151,90,1
129,87,202,67,1
22,254,68,101,1
165,46,0,149,1
164,136,11,24,1
118,73,0,16,1
87,170,21,22,1
222,93,93,65,1
106,164,162,66,1
72,147,56,57,1
193,107,7,51,1
2,147,48,69,1
84,121,21,80,1
165,129,101,81,1
246,93,190,198,1
84,9,353,92,1
77,72,112,53,1
49,65,12,75,1
262,135,47,10,1
37,208,109,109,1
214,108,24,83,1
515,324,7,38,1
41,96,2,19,1
172,245,83,23,1
33,119,17,10,1
27,63,98,29,1
124,178,259,30,1
115,49,7,2,1
124,157,155,82,1
86,371,70,59,1
200,51,275,175,1
259,99,163,230,1
171,133,483,390,1
44,178,185,6,1
95,166,181,2,1
3,34,88,66,1
30,27,0,37,1
114,149,206,183,1
76,280,55,28,1
116,132,50,138,1
170,53,45,37,1
596,50,96,87,1
340,201,70,23,1
139,127,188,60,1
234,65,97,15,1
6,58,78,6,1
2,127,202,43,1
77,15,451,127,1
117,128,94,307,1
212,24,434,332,1
152,156,386,330,1
79,16,26,82,1
138,60,137,140,1
316,266,80,60,1
201,177,259,46,1
136,245,48,93,1
265,165,9,121,1
77,234,305,196,1
287,199,558,45,1
356,348,263,104,1
28,137,119,38,1
402,179,168,39,1
260,110,339,190,1
209,90,134,169,1
106,83,138,58,1
23,159,82,253,1
285,248,99,44,1
360,260,122,54,1
118,192,129,2,1
7,21,147,73,1
169,99,340,313,1
605,289,6,189,1
71,16,264,689,1
63,50,38,234,1
0,107,548,1023,1
25,46,7,215,1
71,47,432,346,1
65,112,12,185,1
240,462,268,129,1
218,147,113,56,1
30,21,388,365,1
138,223,471,293,1
197,124,695,474,1
255,240,187,67,1
68,70,0,81,1
223,299,537,229,1
306,369,352,52,1
306,153,323,123,1
9,23,238,330,1
81,150,256,257,1
123,159,251,480,1
244,41,273,216,1
55,18,696,230,1
294,231,405,815,1
0,115,640,81,1
108,371,233,786,1
49,258,128,300,1
242,204,33,23,1
136,12,1023,1023,1
369,451,976,175,1
324,72,356,1023,1
210,90,463,93,1
92,249,647,387,1
197,152,788,7,1
20,109,368,153,1
148,33,367,316,1
45,25,145,578,1
295,344,145,341,1
146,74,718,1023,1
65,16,732,218,1
231,279,738,430,1
222,142,57,157,1
150,79,54,227,1
189,9,329,61,1
178,279,426,154,1
165,121,0,349,1
308,201,14,76,1
399,80,866,507,1
162,132,337,91,1
122,159,134,986,1
65,181,3,1023,1
123,124,56,101,1
266,90,25,305,1
54,109,460,143,1
516,467,98,72,1
36,60,762,221,1
229,215,162,329,1
544,59,470,161,1
6,76,183,145,1
104,19,421,910,1
87,175,448,197,1
139,276,346,310,1
383,299,479,96,1
354,12,100,237,1
12,47,301,197,1
287,127,218,412,1
56,58,527,275,1
97,104,400,67,1
101,199,577,293,1
300,257,424,602,1
116,238,537,55,1
190,191,396,355,1
623,548,193,247,1
35,105,898,389,1
67,43,925,314,1
635,281,188,265,1
145,131,672,124,1
269,229,24,377,1
78,66,168,309,1
371,204,953,451,1
311,210,595,159,1
348,144,317,32,1
23,46,43,662,1
80,69,217,29,1
236,24,913,954,1
182,153,146,412,1
170,529,516,329,1
550,774,442,518,1
121,176,199,7,1
125,234,240,285,1
23,274,0,94,1
115,59,551,292,1
5,205,1023,223,1
27,84,1023,488,1
299,13,336,285,1
294,142,204,325,1
243,7,862,115,1
62,11,605,322,1
177,93,516,327,1
104,162,91,561,1
561,385,13,235,1
112,19,648,195,1
185,31,860,59,1
146,24,295,377,1
222,119,891,857,1
175,47,1023,954,1
44,277,1023,199,1
28,73,806,697,1
702,182,887,193,1
38,96,294,454,1
338,59,263,75,1
101,138,678,132,1
7,149,91,5,1
320,256,131,206,1
119,106,466,28,1
125,9,328,35,1
243,213,584,641,1
118,83,251,9,1
229,36,279,1013,1
0,33,286,365,1
150,34,612,233,1
174,137,407,41,1
30,73,715,574,1
157,124,38,288,1
218,111,826,239,1
378,135,1007,1023,1
233,322,160,591,1
101,242,15,813,1
23,29,634,613,1
246,271,79,25,1
267,155,93,117,1
583,367,6,22,1
337,12,644,172,1
144,88,724,499,1
120,102,856,530,1
215,312,1023,284,1
342,134,910,551,1
11,101,1023,334,1
79,86,396,345,1
169,154,278,282,1
151,125,246,145,1
313,213,941,240,1
233,25,107,15,1
219,292,254,163,1
430,91,271,127,1
466,327,499,98,1
23,234,209,69,1
547,517,301,126,1
89,58,477,348,1
140,185,489,374,1
410,248,508,156,1
123,45,442,147,1
35,30,203,315,1
84,115,102,203,1
279,267,261,25,1
373,335,86,330,1
114,149,262,59,1
42,169,112,160,1
312,211,576,428,1
134,140,585,340,1
105,56,60,174,1
143,26,515,323,1
197,20,53,5,1
92,11,520,186,1
163,22,338,191,1
101,82,204,134,1
122,209,417,5,1
193,12,66,124,1
250,63,478,197,1
58,164,424,193,1
20,90,359,100,1
35,84,557,148,1
69,61,46,171,1
102,94,9,349,1
256,369,613,722,1
127,155,103,196,1
45,33,287,66,1
93,209,104,90,1
289,37,457,9,1
203,146,45,210,1
35,174,164,312,1
365,143,146,17,1
91,38,729,371,1
50,54,70,51,1
139,204,41,8,1
208,212,312,153,1
234,91,476,340,1
95,49,570,161,1
164,95,369,197,1
374,452,620,81,1
441,176,151,412,1
179,22,150,278,1
213,27,162,133,1
409,100,250,13,1
180,170,2,198,1
280,139,347,52,1
164,77,22,9,1
21,110,274,62,1
86,125,30,71,1
13,50,259,68,1
44,45,679,110,1
78,144,50,183,1
85,135,283,229,1
62,37,370,94,1
302,65,667,57,1
41,16,761,130,1
92,112,8,130,1
191,134,213,12,1
19,64,560,140,1
181,73,639,234,1
232,258,101,393,1
235,481,19,183,1
154,268,327,156,1
200,197,768,108,1
112,11,68,1,1
186,36,187,98,1
89,97,276,98,1
73,75,427,31,1
611,457,228,317,1
352,212,360,20,1
148,265,324,89,1
83,107,423,42,1
46,35,12,50,1
15,11,25,337,1
91,13,272,339,1
88,5,320,189,1
21,43,385,422,1
27,7,240,189,1
268,116,486,355,1
461,48,31,134,1
51,57,92,139,1
74,15,387,156,1
42,217,668,112,1
106,311,128,345,1
106,57,292,281,1
3,124,58,201,1
56,44,158,102,1
68,41,115,298,1
308,288,578,170,1
56,54,699,432,1
174,261,224,13,1
172,23,2,564,1
111,71,38,196,1
17,146,144,19,1
133,153,114,62,1
92,351,541,279,1
17,22,10,284,1
21,65,79,48,1
21,12,1023,538,1
323,256,582,123,1
43,207,2,25,1
44,185,417,254,1
215,144,141,51,1
87,157,509,217,1
357,286,183,372,1
144,194,412,507,1
31,51,109,55,1
7,14,275,2,1
277,169,278,291,1
219,16,148,117,1
7,39,124,11,1
509,109,117,103,1
8,146,126,147,1
298,50,115,75,1
212,110,243,100,1
275,83,56,220,1
80,103,43,35,1
128,48,152,5,1
450,255,66,73,1
315,13,167,29,1
159,89,6,217,1
259,127,86,104,1
527,403,314,220,1
1,63,376,110,1
220,41,56,170,1
84,67,23,1,1
244,166,184,191,1
112,41,168,156,1
324,155,150,70,1
223,199,101,17,1
49,46,109,77,1
87,91,332,31,1
29,14,257,223,1
213,152,139,432,1
222,239,241,97,1
11,9,13,24,1
199,265,468,30,1
127,108,70,483,1
291,256,570,826,1
141,62,370,99,1
54,71,279,70,1
452,255,166,40,1
84,146,108,69,1
1,55,122,21,1
70,165,193,7,1
243,135,146,49,1
173,30,215,8,1
157,70,146,64,1
51,11,196,244,1
336,248,407,314,1
80,45,99,45,1
48,105,185,171,1
138,67,148,121,1
95,58,274,18,1
20,105,259,40,1
54,146,115,17,1
12,101,73,249,1
3,22,13,15,1
97,10,232,208,1
32,160,62,16,1
13,9,34,135,1
140,63,121,132,1
295,91,86,16,1
241,109,284,278,1
156,49,309,85,1
277,152,4,243,1
361,57,47,153,1
221,223,40,11,1
15,74,289,164,1
385,291,472,290,1
306,297,186,253,1
10,30,459,399,1
134,30,1,24,1
154,67,159,138,1
65,183,156,106,1
101,154,232,162,1
298,166,147,65,1
168,31,309,308,1
142,96,178,171,1
42,87,103,167,1
0,23,7,142,1
100,13,341,229,1
49,19,219,15,1
74,53,65,138,1
381,510,2,150,1
35,204,47,191,1
203,145,169,41,1
142,230,439,68,1
80,37,737,215,1
348,15,604,25,1
104,66,161,238,1
262,237,50,27,1
63,111,145,75,1
51,37,209,160,1
294,283,11,120,1
143,122,326,39,1
234,155,12,156,1
418,317,381,260,1
61,75,1,19,1
283,235,228,62,1
68,84,89,7,1
42,61,352,107,1
241,85,57,47,1
105,28,352,122,1
64,68,41,219,1
14,66,251,504,1
134,74,0,60,1
173,160,70,80,1
234,281,196,104,1
75,91,249,114,1
6,127,110,96,1
104,8,28,339,1
52,8,235,126,1
385,297,99,41,1
2,45,109,119,1
84,25,23,47,1
56,102,214,90,1
139,54,30,39,1
162,40,186,7,1
138,190,249,68,1
66,73,2,82,1
181,101,137,2,1
311,53,147,260,1
11,77,102,25,1
23,314,205,188,1
314,108,63,214,1
138,298,195,67,1
159,110,263,5,1
189,144,21,85,1
62,23,177,11,1
196,154,279,143,1
105,43,166,108,1
5,26,7,134,1
48,11,52,51,1
7,27,277,162,1
85,127,0,19,1
51,36,131,278,1
62,154,34,113,1
9,23,22,292,1
81,133,23,48,1
94,141,51,59,1
63,76,109,222,1
307,296,403,347,1
10,31,97,89,1
114,31,219,193,1
7,43,48,63,1
130,88,191,8,1
124,7,0,74,1
202,24,0,3,1
196,139,134,65,1
2,52,0,24,1
6,166,16,22,1
151,127,15,11,1
145,51,81,21,1
25,121,266,7,1
132,182,86,334,1
162,14,211,233,1
66,63,130,303,1
358,256,314,172,1
137,76,180,142,1
242,227,280,67,1
43,134,164,91,1
20,36,259,222,1
335,145,199,92,1
172,102,156,82,1
55,111,46,70,1
26,34,56,11,1
166,73,141,81,1
1,100,60,145,1
0,123,0,202,1
19,19,356,193,1
221,45,0,320,1
290,219,698,407,1
40,32,118,69,1
158,120,113,26,1
18,13,324,190,1
35,22,4,118,1
47,54,0,130,1
179,40,14,83,1
285,290,0,21,1
9,244,120,55,1
259,245,366,75,1
61,78,76,6,1
17,69,51,10,1
56,51,42,47,1
129,55,229,93,1
246,123,380,174,1
83,83,66,154,1
16,18,244,141,1
23,12,260,246,1
16,79,168,77,1
60,125,142,60,1
83,29,241,89,1
211,138,250,158,1
50,29,138,69,1
102,8,0,44,1
176,63,153,63,1
5,39,28,55,1
17,37,131,292,1
300,195,0,27,1
209,181,169,40,1
42,41,274,95,1
114,233,119,210,1
50,104,56,101,1
14,84,10,90,1
127,132,359,65,1
112,45,92,2,1
214,110,172,87,1
3,20,111,29,1
88,133,0,70,1
190,110,71,42,1
201,203,58,27,1
108,85,66,21,1
283,201,98,4,1
56,168,53,86,1
282,93,38,44,1
133,89,20,37,1
43,183,13,48,1
112,9,239,85,1
113,72,80,65,1
112,90,237,134,1
180,101,11,40,1
117,168,0,34,1
19,51,13,8,1
166,268,88,74,1
4,124,221,292,1
164,45,17,88,1
158,166,136,237,1
165,114,21,35,1
7,121,69,1,1
159,132,245,131,1
199,149,8,66,1
193,190,206,52,1
316,236,153,2,1
167,60,322,160,1
148,92,49,38,1
70,72,291,118,1
132,129,189,168,1
144,314,126,226,1
350,54,240,20,1
18,63,64,67,1
109,116,164,1,1
30,66,0,87,1
16,49,4,20,1
376,135,310,16,1
274,90,108,31,1
168,42,168,60,1
377,76,278,4,1
15,21,155,43,1
107,212,141,78,1
81,171,362,538,1
37,58,252,65,1
286,167,167,67,1
80,34,27,90,1
54,24,310,360,1
133,149,124,48,1
32,197,501,161,1
4,206,751,76,1
146,313,91,158,1
6,211,686,796,1
86,199,288,528,1
91,92,889,630,1
90,95,849,283,1
18,17,751,355,1
140,167,132,625,1
406,105,23,273,1
220,162,271,209,1
86,28,493,298,1
253,83,206,454,1
287,135,371,461,1
823,729,83,66,1
217,324,282,192,1
116,37,101,221,1
32,14,115,87,1
191,43,177,14,1
129,131,333,377,1
84,55,94,112,1
114,36,707,483,1
132,117,543,70,1
33,128,171,395,1
477,267,282,98,1
36,147,356,202,1
331,246,169,4,1
366,86,0,46,1
0,168,491,480,1
167,214,62,187,1
227,176,254,110,1
465,86,301,300,1
463,491,407,497,1
340,226,177,86,1
268,175,1023,679,1
94,260,571,28,1
599,568,969,379,1
153,141,518,116,1
96,188,167,309,1
198,124,58,502,1
291,149,469,459,1
401,158,213,669,1
144,68,692,527,1
302,273,210,91,1
153,129,88,258,1
113,119,280,164,1
126,316,20,312,1
143,25,389,126,1
44,122,114,96,1
298,290,93,200,1
159,232,149,148,1
347,212,34,150,1
170,47,159,101,1
155,171,19,353,1
2,110,281,386,1
265,22,34,223,1
646,153,335,410,1
290,163,105,217,1
6,114,120,250,1
59,257,0,43,1
168,31,527,564,1
40,83,812,377,1
328,222,634,603,1
239,23,451,359,1
306,122,778,608,1
394,26,141,229,1
167,124,1023,803,1
42,180,66,327,1
197,174,266,1023,1
28,26,575,565,1
234,44,83,495,1
62,88,299,8,1
55,19,438,13,1
70,117,1023,426,1
51,84,183,12,1
186,53,133,312,1
184,108,43,182,1
111,268,170,100,1
29,15,151,128,1
109,227,59,903,1
97,45,974,590,1
385,169,747,208,1
0,9,814,314,1
475,417,882,315,1
308,97,88,389,1
584,457,685,431,1
93,81,248,384,1
60,55,259,138,1
394,234,548,196,1
150,124,733,327,1
9,15,913,90,1
230,85,221,184,1
114,109,376,158,1
267,35,339,113,1
32,12,833,395,1
349,280,984,721,1
96,63,144,526,1
25,263,288,251,1
10,46,522,129,1
47,256,420,153,1
53,106,560,511,1
424,144,44,594,1
7,161,102,59,1
37,339,533,15,1
324,470,524,149,1
83,24,342,340,1
204,167,172,311,1
257,115,985,488,1
266,162,156,327,1
411,615,756,133,1
183,257,544,62,1
157,174,329,36,1
37,102,649,82,1
294,293,1023,1023,1
389,330,1023,1023,1
160,48,353,402,1
393,313,1023,905,1
100,43,167,103,1
17,25,736,397,1
635,134,751,73,1
310,76,685,430,1
125,174,502,172,1
122,33,13,35,1
61,131,7,67,1
197,146,412,673,1
106,61,182,560,1
130,64,662,363,1
270,28,37,297,1
754,288,921,279,1
273,60,29,10,1
146,169,75,11,1
572,396,3,75,1
620,254,597,14,1
59,244,354,228,1
208,75,1023,726,1
181,244,724,360,1
80,20,788,740,1
99,133,392,267,1
207,147,112,256,1
200,68,1023,734,1
51,82,286,194,1
64,91,1023,966,1
164,161,76,109,1
361,280,160,359,1
102,164,155,729,1
325,122,493,704,1
332,366,315,173,1
89,334,695,838,1
16,106,102,207,1
111,157,462,162,1
88,70,1023,611,1
73,30,264,234,1
195,30,818,485,1
202,37,92,195,1
44,173,889,777,1
91,129,79,92,1
8,45,138,9,1
99,137,262,9,1
479,35,659,374,1
768,56,1023,562,1
92,255,162,29,1
174,197,714,99,1
368,337,14,832,1
355,42,709,660,1
7,51,227,110,1
216,298,262,153,1
97,103,390,150,1
134,182,386,212,1
36,72,391,217,1
55,34,79,201,1
29,11,172,11,1
389,292,725,355,1
57,17,273,24,1
65,131,291,56,1
135,86,487,145,1
14,37,70,218,1
102,5,52,15,1
176,36,393,204,1
82,39,350,280,1
192,148,569,316,1
133,95,459,343,1
77,57,467,364,1
158,46,0,150,1
274,393,65,80,1
38,216,300,359,1
77,221,521,131,1
254,102,452,302,1
130,119,1023,104,1
61,92,61,52,1
50,77,239,114,1
104,91,143,10,1
120,6,187,88,1
5,45,396,42,1
290,278,24,862,1
5,106,767,439,1
15,8,128,174,1
96,26,58,344,1
67,23,432,588,1
175,8,235,240,1
373,260,234,145,1
498,282,88,181,1
123,80,20,26,1
307,303,260,368,1
98,114,366,404,1
50,57,583,24,1
25,77,161,99,1
175,143,208,60,1
166,80,226,187,1
70,31,135,261,1
361,159,388,176,1
271,35,223,188,1
287,63,655,463,1
103,8,632,206,1
104,88,25,63,1
132,154,191,82,1
48,123,285,40,1
115,43,53,40,1
254,259,45,58,1
128,78,424,70,1
31,77,410,171,1
138,51,239,388,1
109,5,187,61,1
89,41,116,84,1
105,178,478,202,1
78,200,224,135,1
40,208,198,49,1
72,19,111,80,1
195,71,358,12,1
164,121,724,51,1
105,74,674,542,1
234,62,220,520,1
20,138,128,84,1
175,80,82,36,1
256,127,0,4,1
260,109,135,43,1
124,21,258,30,1
63,162,385,186,1
127,105,0,74,1
222,42,623,389,1
83,146,267,184,1
41,56,399,163,1
109,6,31,246,1
262,89,285,28,1
56,36,35,21,1
69,162,236,275,1
1,113,26,96,1
120,299,248,94,1
131,68,46,103,1
45,27,606,360,1
138,86,3,216,1
165,180,329,645,1
393,178,2,190,1
188,80,160,12,1
30,74,462,219,1
481,322,463,263,1
227,206,364,620,1
313,151,239,336,1
102,29,376,106,1
132,8,27,548,1
175,258,131,398,1
101,12,608,474,1
71,161,287,284,1
241,149,59,76,1
291,165,172,61,1
370,365,209,210,1
31,20,24,123,1
176,122,333,249,1
10,24,240,44,1
1,33,79,39,1
25,63,190,18,1
159,237,68,295,1
197,167,359,279,1
71,156,198,241,1
9,109,353,74,1
137,11,186,13,1
196,92,178,83,1
6,42,462,264,1
248,8,103,288,1
235,327,104,22,1
17,179,109,264,1
48,320,263,155,1
160,143,200,188,1
164,273,3,130,1
67,10,66,156,1
241,53,575,58,1
22,34,231,197,1
266,134,409,178,1
4,29,381,56,1
43,106,2,19,1
11,41,208,85,1
10,103,165,88,1
27,74,103,429,1
252,163,61,688,1
152,82,564,277,1
97,42,94,405,1
142,155,79,24,1
310,69,151,201,1
78,244,1,211,1
556,407,110,109,1
29,13,0,49,1
92,62,96,60,1
101,151,662,233,1
36,13,61,13,1
213,141,449,379,1
198,88,17,19,1
37,38,45,184,1
188,169,111,124,1
172,73,25,231,1
330,10,317,15,1
216,72,14,10,1
386,178,71,69,1
75,147,274,422,1
245,10,202,165,1
47,14,90,96,1
231,28,0,168,1
171,50,0,50,1
22,54,25,66,1
224,35,248,91,1
12,179,107,54,1
78,109,197,56,1
58,19,268,31,1
207,193,387,256,1
225,15,266,339,1
48,18,78,586,1
103,83,119,664,1
2,9,75,164,1
48,26,9,78,1
7,14,140,89,1
58,41,105,52,1
64,35,221,213,1
32,66,258,75,1
6,152,198,104,1
394,115,185,377,1
586,166,125,181,1
102,65,73,3,1
478,316,182,119,1
1,101,217,63,1
109,160,508,208,1
3,81,118,81,1
58,54,82,67,1
151,114,347,266,1
95,115,496,118,1
97,59,41,73,1
44,25,145,13,1
57,18,98,128,1
117,63,225,6,1
222,50,109,134,1
14,25,334,204,1
270,50,8,170,1
15,125,301,152,1
128,91,156,127,1
241,10,15,97,1
162,85,144,56,1
19,119,84,99,1
30,15,181,18,1
35,33,0,13,1
27,5,95,9,1
30,28,122,40,1
31,60,4,214,1
20,73,125,184,1
82,31,105,84,1
275,87,88,59,1
98,23,0,305,1
182,213,84,314,1
70,137,0,66,1
126,46,179,450,1
204,128,78,131,1
188,20,115,140,1
157,134,288,27,1
186,388,0,77,1
91,113,67,65,1
152,184,97,34,1
158,169,117,24,1
275,61,230,86,1
87,18,367,129,1
95,84,579,240,1
8,47,50,8,1
157,102,14,117,1
94,177,279,292,1
155,210,0,226,1
75,49,11,340,1
10,279,361,298,1
164,104,165,216,1
50,173,191,72,1
52,162,250,185,1
391,295,57,56,1
177,249,38,71,1
26,64,108,39,1
121,144,247,65,1
164,106,333,40,1
254,74,347,6,1
155,357,316,161,1
1,91,249,123,1
166,205,73,130,1
312,129,185,287,1
49,117,86,19,1
130,274,486,285,1
25,28,348,66,1
27,70,149,211,1
196,52,150,25,1
94,79,56,195,1
283,87,229,144,1
132,182,73,48,1
73,86,192,46,1
271,215,28,6,1
159,266,20,38,1
83,175,143,91,1
6,39,135,44,1
25,86,321,33,1
196,204,32,31,1
85,44,191,70,1
50,75,302,202,1
67,88,130,75,1
4,41,66,29,1
187,185,117,28,1
198,22,94,47,1
39,73,172,67,1
84,58,184,4,1
105,48,54,39,1
187,176,36,97,1
8,19,90,124,1
181,107,129,11,1
391,123,123,66,1
57,338,0,12,1
613,91,22,31,1
225,83,43,73,1
191,28,22,4,1
11,10,167,281,1
175,19,56,126,1
221,12,53,258,1
3,43,391,240,1
143,79,66,30,1
22,99,496,401,1
182,116,92,20,1
92,136,7,33,1
56,150,20,58,1
125,26,8,67,1
228,98,82,72,1
223,23,64,6,1
6,47,16,29,1
12,24,0,51,1
305,251,22,15,1
293,265,248,39,1
202,85,169,40,1
258,31,29,22,1
290,57,125,4,1
72,80,275,418,1
116,93,118,44,1
4,12,560,367,1
39,59,32,26,1
34,102,208,97,1
258,312,342,110,1
244,248,18,18,1
13,117,215,107,1
72,184,4,25,1
58,11,7,2,1
61,65,0,25,1
136,182,53,13,1
12,13,240,14,1
135,110,96,30,1
24,155,149,1,1
251,282,68,18,1
45,23,189,2,1
211,277,67,268,1
19,36,62,82,1
49,98,440,266,1
275,191,0,93,1
124,23,10,103,1
385,19,329,554,1
3,61,8,57,1
102,31,152,311,1
697,400,99,181,1
105,145,83,48,1
119,11,105,91,1
187,27,55,33,1
21,72,116,64,1
43,172,162,3,1
89,134,199,203,1
18,123,228,21,1
201,298,136,151,1
44,31,0,59,1
10,87,379,132,1
6,34,188,22,1
25,47,27,17,1
192,87,191,30,1
181,26,533,215,1
197,65,328,6,1
105,77,22,80,1
47,51,135,229,1
198,186,215,214,1
257,179,1,283,1
278,240,20,165,1
370,197,303,8,1
346,124,107,124,1
285,163,220,316,1
109,29,18,205,1
4,107,0,134,1
297,98,201,15,1
41,38,249,36,1
81,22,416,143,1
61,157,85,86,1
209,224,139,266,1
53,27,97,175,1
127,46,148,218,1
605,328,148,70,1
12,115,589,481,1
11,43,199,17,1
212,157,571,391,1
10,81,234,118,1
18,9,624,125,1
157,42,167,38,1
57,306,419,525,1
193,156,131,109,1
137,41,6,427,1
25,102,564,338,1
33,139,124,58,1
236,190,481,329,1
99,61,193,589,1
31,39,247,99,1
157,265,464,277,1
9,97,218,469,1
155,171,219,237,1
353,283,371,401,1
293,20,382,1023,1
82,112,576,1023,1
364,117,1023,1023,1
81,14,519,234,1
623,390,313,451,1
64,139,305,147,1
365,231,98,171,1
41,74,352,225,1
3,57,582,314,1
161,99,24,220,1
215,73,626,396,1
213,225,108,62,1
87,34,570,52,1
262,17,199,6,1
327,169,148,139,1
65,90,797,12,1
238,362,61,31,1
205,104,473,133,1
112,63,272,64,1
75,119,270,407,1
54,111,412,904,1
361,228,127,146,1
67,127,328,1023,1
308,131,205,11,1
41,130,317,272,1
94,32,94,163,1
51,93,602,642,1
41,15,502,390,1
132,114,161,109,1
195,189,69,24,1
44,318,292,36,1
30,35,323,285,1
194,93,642,789,1
337,354,186,33,1
66,45,1023,666,1
33,219,1023,344,1
256,243,198,229,1
318,118,317,145,1
587,86,261,237,1
104,73,316,90,1
56,152,125,377,1
17,145,985,434,1
220,50,304,940,1
84,16,927,518,1
132,22,136,396,1
80,17,342,232,1
98,11,346,191,1
318,297,382,353,1
85,135,955,403,1
94,256,1023,689,1
142,173,377,397,1
119,38,540,117,1
107,111,295,26,1
110,23,884,627,1
282,191,231,670,1
230,62,227,797,1
82,58,419,309,1
125,61,1023,611,1
33,145,173,157,1
84,44,845,578,1
329,302,451,280,1
33,46,139,417,1
111,113,512,405,1
111,136,223,309,1
116,257,372,142,1
118,195,568,732,1
504,67,270,547,1
29,181,1023,754,1
3,94,561,19,1
533,154,57,229,1
89,106,831,106,1
206,65,241,335,1
72,94,1023,1023,1
102,106,1023,1023,1
137,22,232,459,1
15,26,673,541,1
308,356,427,653,1
214,450,971,327,1
466,457,198,281,1
143,37,86,278,1
320,120,714,314,1
245,203,61,1023,1
203,268,977,1023,1
137,128,240,995,1
109,6,928,698,1
52,90,177,1015,1
171,213,1023,1023,1
135,275,70,27,1
352,189,1023,564,1
31,19,237,415,1
241,25,1023,1023,1
184,160,454,417,1
47,9,635,235,1
16,238,268,219,1
57,49,868,911,1
16,225,1023,790,1
307,39,532,60,1
51,4,1023,765,1
19,7,80,83,1
572,226,68,166,1
385,203,540,193,1
256,73,907,456,1
176,53,525,492,1
255,191,667,503,1
111,19,21,626,1
390,255,530,122,1
18,63,282,213,1
150,215,596,36,1
116,326,1023,890,1
25,186,679,296,1
128,83,604,318,1
479,385,163,83,1
115,85,499,350,1
318,14,81,291,1
113,88,253,40,1
116,96,364,299,1
119,22,81,113,1
520,252,822,408,1
60,268,69,518,1
218,341,576,180,1
1,131,713,501,1
74,56,424,37,1
73,7,1023,558,1
5,208,837,143,1
7,125,1023,492,1
344,139,63,337,1
59,147,678,138,1
124,179,435,415,1
153,62,1023,71,1
137,223,1023,433,1
115,241,127,247,1
541,411,1023,402,1
7,68,244,608,1
333,131,469,709,1
363,49,667,529,1
258,227,910,62,1
169,273,377,279,1
167,250,359,395,1
146,19,1023,504,1
365,122,988,224,1
47,234,452,48,1
163,135,328,114,1
9,52,49,72,1
84,85,154,169,1
15,87,340,129,1
0,133,1023,525,1
36,173,1023,658,1
57,32,392,283,1
58,73,864,220,1
263,212,549,215,1
75,33,135,58,1
130,62,527,11,1
132,69,443,25,1
208,9,358,180,1
107,112,158,249,1
57,127,242,177,1
216,84,264,173,1
223,123,46,254,1
147,291,169,53,1
26,30,167,213,1
107,159,71,202,1
3,73,435,238,1
31,14,783,263,1
101,113,581,185,1
31,37,233,257,1
4,47,32,72,1
99,103,144,291,1
174,45,442,151,1
85,25,464,72,1
358,172,137,129,1
348,147,156,21,1
35,221,358,477,1
75,301,379,623,1
44,50,207,77,1
2,194,14,272,1
83,13,186,381,1
277,195,253,165,1
341,77,87,117,1
47,83,199,167,1
406,358,197,219,1
228,167,12,57,1
31,27,259,175,1
231,69,173,61,1
141,147,0,124,1
248,238,17,219,1
349,18,129,225,1
258,192,139,125,1
259,248,123,62,1
134,128,223,243,1
135,21,83,18,1
118,143,378,293,1
75,22,50,12,1
237,67,555,276,1
123,226,1023,13,1
38,67,19,242,1
384,50,130,128,1
245,48,51,115,1
272,171,76,93,1
73,24,128,6,1
13,52,470,133,1
67,12,548,62,1
108,67,260,65,1
200,241,146,201,1
141,177,259,4,1
45,15,4,373,1
48,12,466,251,1
24,166,208,29,1
34,188,350,166,1
70,51,245,276,1
32,32,462,193,1
29,28,207,317,1
338,251,255,164,1
35,8,10,268,1
350,113,137,106,1
241,69,142,138,1
162,334,328,64,1
212,47,33,115,1
88,16,518,189,1
174,111,341,175,1
71,97,35,530,1
347,247,395,15,1
48,86,310,80,1
99,186,320,13,1
110,267,411,84,1
127,192,103,67,1
65,185,151,75,1
274,152,97,325,1
162,183,438,313,1
380,20,276,101,1
65,38,5,33,1
128,245,0,7,1
155,226,513,333,1
135,113,168,28,1
99,194,91,29,1
233,16,421,198,1
69,6,350,168,1
128,11,514,244,1
48,35,12,281,1
44,23,299,365,1
38,51,582,397,1
49,127,129,153,1
6,83,136,56,1
258,186,269,19,1
276,256,73,125,1
155,43,92,127,1
72,162,27,178,1
19,21,142,163,1
90,74,170,22,1
37,45,117,116,1
28,55,26,98,1
24,22,326,65,1
9,38,317,141,1
155,79,184,54,1
97,112,298,157,1
20,97,118,139,1
141,70,846,268,1
289,112,375,356,1
69,91,60,241,1
51,106,503,408,1
66,215,339,340,1
19,58,3,39,1
150,110,70,11,1
73,109,132,27,1
124,26,21,2,1
190,11,62,13,1
96,122,286,80,1
46,11,241,82,2
119,19,173,104,2
76,280,210,189,2
91,55,0,30,2
297,93,269,521,2
4,69,40,662,2
228,263,374,887,2
21,10,488,902,2
66,68,423,495,2
14,78,261,142,2
0,216,350,343,2
99,25,485,2,2
24,16,6,11,2
425,38,317,173,2
71,42,64,45,2
368,109,705,316,2
175,96,209,87,2
114,22,827,497,2
83,138,110,208,2
21,53,432,25,2
51,141,147,396,2
228,220,490,288,2
243,213,152,366,2
206,56,135,60,2
129,25,245,235,2
20,23,160,139,2
17,27,36,80,2
128,7,211,189,2
107,32,76,12,2
25,68,49,160,2
131,32,149,29,2
175,25,468,25,2
80,119,124,181,2
5,30,190,361,2
323,116,51,215,2
130,110,146,510,2
1,36,0,310,2
293,230,64,11,2
364,320,15,32,2
9,273,42,97,2
163,31,125,18,2
6,109,79,102,2
179,95,397,368,2
87,133,37,482,2
138,110,559,533,2
21,99,199,1023,2
59,17,73,432,2
115,43,447,117,2
254,134,408,241,2
94,328,232,157,2
110,97,113,124,2
43,145,33,45,2
32,17,143,112,2
115,101,89,4,2
230,191,21,87,2
180,103,22,51,2
1,57,165,261,2
68,10,105,85,2
22,110,211,1,2
227,162,199,182,2
73,7,135,179,2
181,57,10,213,2
60,69,0,46,2
62,49,369,461,2
82,150,38,67,2
4,42,96,149,2
29,12,174,238,2
344,196,316,120,2
73,42,432,238,2
152,187,4,69,2
242,247,169,93,2
67,119,0,164,2
393,65,210,245,2
625,238,30,244,2
63,59,138,143,2
3,6,68,99,2
140,59,511,141,2
39,87,5,436,2
215,284,79,201,2
89,54,197,280,2
74,171,75,216,2
64,80,46,237,2
121,150,0,48,2
63,140,126,199,2
14,114,71,26,2
241,224,21,153,2
100,66,218,189,2
16,24,22,61,2
404,104,190,96,2
61,120,173,22,2
253,378,219,74,2
188,25,71,254,2
41,43,319,298,2
148,167,255,83,2
112,23,27,21,2
24,63,94,86,2
155,40,670,869,2
61,27,443,296,2
57,91,481,819,2
15,69,81,205,2
34,65,58,23,2
47,22,184,176,2
64,176,117,81,2
81,40,131,14,2
38,227,64,169,2
362,16,37,217,2
324,86,148,64,2
190,37,83,6,2
9,46,120,207,2
12,70,99,134,2
12,60,199,677,2
0,8,147,553,2
286,281,127,1023,2
21,32,0,227,2
166,18,317,407,2
171,111,67,53,2
169,210,0,171,2
27,11,48,34,2
8,225,239,72,2
294,153,8,124,2
119,295,50,103,2
102,225,160,156,2
232,65,1,105,2
87,199,293,71,2
77,45,376,108,2
98,181,226,131,2
173,53,162,61,2
54,323,201,25,2
174,181,12,98,2
193,118,94,14,2
131,147,150,39,2
20,11,95,20,2
41,8,186,335,2
64,76,34,17,2
46,134,39,423,2
44,8,33,15,2
49,45,82,90,2
104,24,62,205,2
63,358,164,161,2
309,83,37,196,2
52,343,16,221,2
75,40,16,5,2
2,53,163,382,2
188,69,157,148,2
49,55,96,185,2
67,53,0,39,2
66,233,151,2,2
130,166,41,101,2
67,93,133,135,2
45,84,141,27,2
162,52,86,127,2
179,184,518,345,2
25,15,101,80,2
24,34,87,82,2
269,60,49,76,2
73,224,0,57,2
9,19,23,1,2
284,183,19,45,2
15,48,112,44,2
187,196,0,87,2
0,62,21,98,2
287,173,34,14,2
243,21,56,20,2
192,84,131,30,2
381,75,7,27,2
91,242,0,40,2
242,117,74,6,2
12,105,66,206,2
127,157,109,92,2
429,205,111,258,2
211,389,267,111,2
106,42,70,62,2
3,6,127,65,2
21,147,171,63,2
154,115,25,18,2
223,220,23,371,2
108,152,144,287,2
121,9,523,675,2
127,116,7,1,2
69,73,132,142,2
351,73,68,46,2
150,71,36,98,2
111,199,38,17,2
200,273,63,74,2
116,153,0,4,2
42,105,66,5,2
216,62,191,83,2
47,10,50,297,2
86,50,161,63,2
143,188,294,197,2
98,95,161,129,2
94,88,0,1,2
18,56,420,162,2
221,83,237,420,2
65,74,268,141,2
25,141,242,404,2
332,178,99,198,2
260,106,110,127,2
120,82,202,207,2
292,36,243,185,2
295,48,172,84,2
51,113,359,33,2
94,97,306,191,2
305,98,231,178,2
58,358,498,469,2
192,87,27,142,2
6,31,445,321,2
171,169,432,251,2
14,126,298,252,2
69,29,48,63,2
65,11,289,173,2
1,54,214,211,2
79,76,17,41,2
26,18,239,121,2
35,35,997,774,2
191,130,315,338,2
519,408,1023,764,2
62,174,134,170,2
36,137,56,140,2
50,61,64,68,2
91,50,178,28,2
275,162,121,5,2
352,179,173,127,2
110,99,67,51,2
132,26,202,141,2
153,6,163,66,2
170,88,0,35,2
16,59,110,231,2
6,62,40,21,2
0,33,577,319,2
75,89,48,89,2
103,98,689,939,2
153,15,599,97,2
47,14,54,1023,2
225,171,1023,665,2
328,246,20,1023,2
240,29,115,121,2
369,8,157,358,2
217,114,453,260,2
210,168,207,444,2
295,216,226,169,2
65,63,414,21,2
9,25,20,106,2
53,44,0,581,2
351,186,210,126,2
341,92,109,93,2
54,107,427,11,2
451,339,255,11,2
204,147,99,110,2
274,100,404,1023,2
82,177,442,756,2
214,105,389,413,2
196,21,62,297,2
167,291,606,721,2
15,184,574,902,2
54,64,977,584,2
112,155,599,482,2
176,173,259,171,2
260,20,68,233,2
209,119,153,136,2
568,46,6,46,2
107,146,293,451,2
21,68,339,513,2
75,246,275,260,2
249,71,141,108,2
245,131,560,737,2
125,77,155,40,2
261,258,239,227,2
350,327,367,408,2
4,183,142,32,2
77,195,305,124,2
604,716,0,263,2
42,121,652,316,2
96,41,43,423,2
141,85,234,705,2
49,144,628,155,2
50,225,760,677,2
160,71,197,236,2
803,575,77,317,2
457,405,901,876,2
128,319,452,47,2
47,307,369,479,2
794,544,485,225,2
185,23,407,268,2
39,24,368,505,2
133,10,337,502,2
229,126,79,226,2
45,324,804,129,2
29,147,898,142,2
117,106,956,766,2
64,35,1023,686,2
551,373,251,262,2
307,100,791,512,2
169,91,367,133,2
164,30,221,314,2
263,152,250,325,2
177,72,150,529,2
142,114,0,614,2
158,46,9,109,2
134,514,288,202,2
118,313,1023,1023,2
173,43,1023,602,2
493,377,842,1023,2
411,205,585,833,2
556,273,30,285,2
124,7,365,277,2
305,12,735,499,2
306,144,3,13,2
508,133,641,291,2
175,19,39,1011,2
113,180,767,763,2
144,132,445,455,2
59,187,1023,496,2
94,90,1023,1023,2
65,26,101,425,2
529,221,545,240,2
270,38,397,299,2
153,42,346,177,2
26,173,1023,507,2
140,40,748,476,2
5,244,1023,1023,2
404,41,954,42,2
84,45,711,1023,2
382,6,1023,1023,2
217,171,36,507,2
418,162,1023,418,2
4,133,405,31,2
45,57,882,419,2
298,153,1009,1010,2
220,229,1023,1023,2
132,178,403,132,2
70,58,905,143,2
32,131,125,1023,2
219,223,589,450,2
13,7,872,772,2
173,125,676,201,2
77,84,1023,971,2
25,95,437,570,2
185,254,1023,446,2
23,31,1023,392,2
36,17,275,59,2
131,132,1023,1017,2
658,66,747,200,2
461,375,217,326,2
98,104,2,36,2
522,312,738,157,2
47,59,571,1023,2
871,559,1023,440,2
217,50,900,1023,2
113,88,1023,972,2
304,56,640,176,2
133,131,146,103,2
143,12,504,174,2
140,38,22,426,2
36,40,1023,389,2
3,138,1023,661,2
3,159,732,350,2
149,37,388,485,2
28,79,872,519,2
172,14,968,586,2
41,10,116,225,2
83,151,688,25,2
257,372,66,147,2
261,113,656,381,2
245,86,497,194,2
150,358,562,10,2
154,76,306,218,2
80,55,886,418,2
248,166,501,259,2
248,106,367,454,2
262,187,984,285,2
54,156,1023,494,2
10,410,376,112,2
214,171,540,75,2
79,181,830,107,2
127,245,508,18,2
253,235,27,196,2
15,35,149,106,2
70,157,351,54,2
149,314,398,166,2
155,30,62,78,2
137,99,107,100,2
196,367,86,62,2
56,266,125,59,2
60,78,120,16,2
60,101,1023,184,2
208,11,368,347,2
108,66,691,722,2
594,5,412,437,2
76,162,83,9,2
232,16,47,17,2
309,122,523,277,2
107,38,251,267,2
100,53,479,158,2
141,11,17,201,2
166,19,887,321,2
141,64,250,42,2
100,282,124,93,2
166,244,446,70,2
141,11,51,304,2
1,139,282,197,2
214,288,346,9,2
324,52,109,57,2
83,162,452,203,2
42,137,31,141,2
425,222,6,117,2
349,279,12,320,2
258,335,243,114,2
287,41,366,271,2
126,80,162,154,2
361,10,21,15,2
231,23,438,309,2
280,248,389,66,2
262,306,709,224,2
159,160,398,14,2
20,120,375,79,2
328,317,663,4,2
196,61,481,506,2
2,174,452,145,2
424,239,17,28,2
458,248,392,432,2
128,300,225,428,2
231,16,395,351,2
22,90,490,226,2
265,215,444,354,2
448,349,600,323,2
29,26,181,101,2
37,13,147,60,2
163,124,50,88,2
268,118,707,370,2
38,39,275,211,2
523,175,781,665,2
518,212,215,330,2
209,51,254,86,2
188,44,175,48,2
387,102,192,14,2
95,138,527,83,2
85,6,270,330,2
5,95,263,298,2
208,31,238,156,2
146,132,283,116,2
30,268,664,172,2
159,39,298,86,2
342,284,306,225,2
50,70,401,61,2
52,96,389,384,2
195,15,920,436,2
45,17,584,115,2
83,115,344,328,2
148,134,675,288,2
44,14,135,151,2
48,89,463,298,2
6,91,290,414,2
242,26,29,160,2
367,25,4,21,2
177,88,39,71,2
48,30,152,203,2
195,130,381,119,2
116,77,145,42,2
91,51,128,320,2
91,26,306,24,2
93,101,229,152,2
202,13,0,36,2
228,157,95,8,2
441,228,220,3,2
327,79,18,51,2
127,87,216,475,2
221,8,318,199,2
18,66,38,132,2
126,75,218,182,2
88,55,297,179,2
139,112,188,35,2
173,117,20,1,2
84,115,229,31,2
76,79,278,369,2
56,43,107,374,2
58,6,21,74,2
65,108,454,142,2
73,17,163,133,2
239,220,176,160,2
252,156,9,78,2
116,177,70,149,2
60,51,320,168,2
28,146,116,194,2
184,71,669,186,2
178,14,0,184,2
234,151,425,222,2
233,34,84,15,2
121,185,417,72,2
87,59,103,212,2
68,31,226,16,2
36,13,260,202,2
16,7,56,185,2
6,11,265,90,2
28,87,6,329,2
438,300,614,425,2
270,60,0,222,2
146,92,162,10,2
68,178,489,282,2
137,149,206,5,2
59,13,522,263,2
61,82,181,6,2
72,141,96,92,2
131,24,223,50,2
163,85,0,94,2
7,17,131,82,2
110,61,462,44,2
59,104,4,45,2
173,195,101,160,2
136,83,54,113,2
5,55,196,9,2
98,37,100,95,2
17,39,89,112,2
300,132,107,212,2
365,125,1,174,2
130,256,0,43,2
192,128,258,209,2
196,8,0,53,2
279,75,281,278,2
11,26,238,116,2
43,75,241,207,2
215,194,232,87,2
324,205,270,51,2
326,77,370,197,2
146,7,49,103,2
24,173,289,92,2
273,110,570,379,2
15,102,28,152,2
17,44,86,26,2
156,130,637,488,2
338,205,0,15,2
142,51,169,103,2
100,115,336,127,2
29,85,0,61,2
21,98,42,136,2
9,5,91,13,2
247,535,66,234,2
178,69,174,141,2
211,39,575,344,2
55,208,42,144,2
16,17,0,81,2
179,294,195,193,2
93,158,227,204,2
117,37,257,26,2
211,96,62,10,2
4,49,4,65,2
115,296,0,237,2
27,165,18,5,2
49,79,345,132,2
36,83,90,308,2
151,234,119,197,2
61,57,345,228,2
9,14,205,31,2
63,32,95,83,2
182,105,445,194,2
41,8,271,95,2
12,148,258,92,2
64,71,119,6,2
160,156,366,188,2
10,54,160,55,2
73,65,23,206,2
87,47,67,123,2
41,130,0,93,2
63,81,181,61,2
215,137,0,78,2
339,302,35,19,2
276,93,31,25,2
70,68,62,55,2
287,88,363,165,2
48,231,175,21,2
145,43,313,251,2
44,117,303,368,2
3,119,27,208,2
51,286,184,312,2
81,8,208,39,2
32,60,126,80,2
220,315,93,26,2
260,54,220,228,2
19,71,20,21,2
313,208,143,53,2
2,47,0,149,2
113,118,9,42,2
94,67,35,33,2
87,231,399,203,2
62,119,387,316,2
203,228,269,47,2
27,90,255,110,2
175,165,216,4,2
92,104,205,7,2
254,290,224,38,2
100,63,199,198,2
287,89,65,15,2
205,161,97,58,2
28,241,388,159,2
260,225,207,39,2
263,24,264,107,2
280,256,74,11,2
129,62,72,32,2
12,22,234,151,2
167,18,309,188,2
106,157,309,107,2
40,120,273,8,2
192,79,111,17,2
93,22,100,109,2
7,159,272,293,2
168,95,79,9,2
290,117,382,245,2
30,46,46,9,2
221,217,194,67,2
338,201,17,65,2
372,303,227,120,2
14,21,93,10,2
239,284,31,31,2
294,183,136,7,2
134,67,252,186,2
7,181,241,187,2
30,85,222,150,2
199,224,386,35,2
208,38,129,60,2
228,129,18,110,2
23,199,347,3,2
115,14,451,141,2
83,149,204,220,2
87,171,272,44,2
66,177,121,59,2
16,80,259,20,2
50,75,112,24,2
39,57,103,54,2
193,170,225,51,2
103,12,106,19,2
49,94,318,20,2
229,105,27,4,2
19,80,48,21,2
356,223,149,38,2
641,404,89,29,2
77,18,156,8,2
284,262,22,6,2
28,81,0,2,2
45,29,46,41,2
20,9,192,202,2
190,122,278,187,2
13,83,469,253,2
18,79,308,200,2
113,223,221,108,2
167,420,49,29,2
36,27,0,2,2
34,57,123,89,2
152,27,0,23,2
331,197,36,19,2
247,231,10,2,2
158,6,107,89,2
112,91,0,12,2
250,165,260,21,2
56,27,122,59,2
70,219,79,17,2
11,71,12,20,2
210,153,101,82,2
20,99,165,78,2
0,109,49,11,2
31,204,306,19,2
70,163,134,2,2
33,99,236,263,2
188,30,114,125,2
269,272,160,204,2
345,116,57,2,2
787,380,177,19,2
177,214,97,19,2
17,112,85,70,2
11,28,125,73,2
206,28,8,13,2
193,75,132,23,2
24,29,89,61,2
2,25,27,44,2
16,25,186,110,2
32,29,167,63,2
251,185,173,148,2
117,214,178,115,2
84,93,70,202,2
10,79,10,7,2
93,103,174,25,2
48,77,237,199,2
148,120,71,41,2
43,6,73,64,2
336,161,59,27,2
37,12,88,21,2
152,13,45,32,2
156,24,78,185,2
23,86,134,59,2
102,156,122,144,2
282,216,42,10,2
57,42,27,36,2
125,69,348,315,2
58,17,43,33,2
47,22,51,117,2
80,195,79,66,2
112,170,83,84,2
99,31,56,157,2
200,89,247,140,2
175,282,397,244,2
478,532,157,144,2
197,177,274,124,2
34,271,81,127,2
549,520,27,6,2
178,328,582,280,2
17,23,103,4,2
564,488,201,113,2
313,136,7,283,2
145,218,29,28,2
15,56,176,91,2
311,51,778,575,2
326,80,253,443,2
83,164,360,298,2
153,32,193,337,2
167,94,200,33,2
154,95,85,88,2
193,169,598,258,2
319,195,370,928,2
159,137,672,357,2
41,149,302,1023,2
64,137,398,44,2
261,169,9,344,2
126,112,173,130,2
209,171,827,50,2
88,109,1020,674,2
14,209,8,186,2
99,90,435,674,2
397,211,752,985,2
40,105,749,675,2
183,38,387,1023,2
387,274,296,174,2
170,80,116,309,2
32,12,35,344,2
393,58,678,364,2
207,127,912,382,2
286,102,173,138,2
198,71,582,304,2
46,148,295,171,2
123,8,207,301,2
57,11,555,243,2
209,72,500,6,2
3,73,164,171,2
289,176,295,358,2
376,235,72,17,2
121,222,1023,954,2
479,198,929,815,2
89,76,718,683,2
246,18,936,420,2
36,42,84,247,2
114,163,272,154,2
111,80,618,109,2
287,255,699,1023,2
218,17,446,286,2
52,90,560,757,2
33,131,1023,287,2
11,362,1023,335,2
166,199,78,90,2
428,216,413,140,2
181,22,637,456,2
206,72,223,35,2
85,212,745,56,2
94,10,1023,1023,2
17,53,1023,432,2
55,253,466,1023,2
217,79,766,415,2
42,101,319,235,2
162,137,656,942,2
73,8,966,1023,2
203,55,368,68,2
33,23,946,480,2
800,385,805,288,2
12,129,791,434,2
385,239,172,240,2
2,11,537,423,2
308,87,294,214,2
71,114,386,202,2
75,257,488,115,2
137,82,107,311,2
830,556,918,977,2
513,149,628,59,2
35,111,1015,854,2
122,154,140,1023,2
172,359,121,791,2
204,246,546,1023,2
88,40,223,550,2
48,172,0,5,2
40,17,0,473,2
35,54,244,85,2
249,314,500,154,2
50,7,366,102,2
157,221,262,391,2
11,125,252,318,2
27,23,118,191,2
133,77,513,440,2
65,67,494,71,2
137,38,85,1023,2
6,8,273,842,2
148,189,474,566,2
534,346,826,1010,2
216,96,283,28,2
95,278,1023,1023,2
468,222,1023,571,2
301,201,207,590,2
10,28,840,190,2
244,158,85,1,2
504,174,182,314,2
205,190,585,312,2
109,53,91,22,2
129,259,486,267,2
124,95,1023,531,2
15,204,124,818,2
395,357,845,1023,2
208,333,150,8,2
423,346,118,181,2
29,33,1023,214,2
7,87,1023,464,2
88,138,1019,654,2
388,7,721,485,2
23,52,1023,1023,2
154,115,1023,425,2
303,129,750,684,2
189,143,930,733,2
30,105,334,666,2
144,200,447,112,2
291,87,175,87,2
183,85,241,216,2
36,16,421,35,2
188,333,1023,606,2
52,119,968,21,2
132,201,279,490,2
244,211,363,666,2
188,61,1023,294,2
226,176,44,1023,2
217,20,467,1023,2
244,82,682,509,2
107,39,543,182,2
15,149,561,161,2
9,95,649,202,2
161,416,466,154,2
402,248,368,436,2
110,371,484,399,2
30,312,257,184,2
14,194,144,782,2
117,8,892,510,2
121,195,1023,576,2
110,91,1023,511,2
197,10,817,609,2
140,160,621,133,2
14,94,183,134,2
157,25,1023,521,2
213,111,67,729,2
66,19,820,996,2
282,230,565,279,2
126,162,410,17,2
34,285,602,444,2
85,17,217,54,2
266,233,1023,554,2
344,229,548,326,2
399,290,136,266,2
67,85,515,199,2
341,471,117,339,2
132,67,820,455,2
46,76,655,288,2
196,12,1023,646,2
316,427,1023,672,2
458,295,257,468,2
465,279,8,1023,2
222,228,664,884,2
76,390,168,107,2
24,387,134,2,2
436,373,445,176,2
351,456,739,179,2
15,21,178,7,2
8,28,125,53,2
131,119,75,167,2
5,159,122,290,2
267,40,0,139,2
130,83,108,7,2
157,111,137,71,2
41,123,506,204,2
95,84,298,116,2
7,93,391,59,2
189,49,0,70,2
11,62,633,497,2
460,203,142,12,2
394,199,364,277,2
5,66,197,185,2
105,191,88,122,2
0,146,27,366,2
130,80,468,614,2
242,55,598,19,2
130,47,3,387,2
116,88,184,317,2
20,60,285,108,2
15,28,264,64,2
93,179,295,53,2
131,21,587,132,2
85,97,61,50,2
18,42,313,31,2
195,196,484,401,2
52,141,401,198,2
905,318,510,315,2
382,311,545,380,2
239,185,30,5,2
263,52,172,268,2
124,29,455,429,2
19,18,109,48,2
98,10,255,59,2
103,212,13,147,2
174,95,198,21,2
334,101,165,104,2
450,112,543,81,2
408,154,983,316,2
138,236,260,146,2
219,111,225,118,2
127,264,97,345,2
108,33,220,706,2
200,102,196,375,2
52,112,332,714,2
35,271,84,29,2
242,314,560,4,2
119,51,431,298,2
200,9,15,68,2
186,171,492,104,2
93,38,189,158,2
7,21,102,5,2
25,134,336,373,2
24,131,341,253,2
135,147,5,205,2
303,64,221,6,2
402,10,548,360,2
176,52,740,122,2
361,78,300,758,2
434,364,121,836,2
126,262,187,322,2
196,35,373,70,2
198,49,182,232,2
30,18,0,22,2
191,24,409,244,2
74,66,88,75,2
52,57,71,253,2
12,72,86,81,2
27,45,103,474,2
260,202,128,85,2
31,12,662,191,2
31,14,57,5,2
181,241,691,395,2
7,160,222,216,2
43,255,5,7,2
232,51,537,190,2
149,272,788,219,2
173,157,87,90,2
11,12,382,170,2
39,81,197,631,2
72,159,334,364,2
164,63,76,250,2
7,25,0,163,2
5,48,409,283,2
161,155,400,63,2
462,182,778,439,2
34,173,58,216,2
30,87,452,417,2
336,159,441,494,2
8,191,292,13,2
232,38,47,221,2
27,29,355,322,2
88,201,172,85,2
30,234,182,10,2
225,353,146,34,2
29,14,288,62,2
373,326,128,119,2
311,149,423,13,2
72,82,63,72,2
18,89,548,535,2
171,112,716,505,2
29,22,99,60,2
35,157,374,169,2
8,118,238,199,2
42,69,1023,220,2
133,7,942,347,2
50,155,181,305,2
89,107,343,119,2
250,15,117,204,2
38,160,4,28,2
53,27,73,22,2
239,128,61,3,2
628,346,476,106,2
60,73,246,358,2
27,76,565,615,2
202,27,162,21,2
261,51,481,238,2
19,79,70,65,2
15,83,313,78,2
45,84,134,93,2
302,28,399,195,2
12,123,0,89,2
68,46,517,153,2
105,68,258,109,2
7,96,25,49,2
14,14,42,132,2
211,57,276,378,2
5,109,554,317,2
13,59,180,73,2
202,124,52,100,2
40,94,48,69,2
201,137,486,103,2
123,51,13,165,2
299,89,269,39,2
6,167,554,158,2
295,102,261,343,2
5,23,327,271,2
179,49,490,419,2
95,218,219,124,2
20,90,141,110,2
59,6,84,76,2
79,171,49,446,2
80,97,236,115,2
11,67,182,45,2
129,102,111,1,2
39,179,295,118,2
178,165,469,275,2
21,5,380,148,2
469,294,188,141,2
63,10,14,12,2
173,45,200,37,2
20,197,75,180,2
133,107,95,300,2
81,79,200,106,2
159,53,182,124,2
95,58,72,79,2
175,102,281,145,2
81,16,30,1,2
194,23,131,147,2
128,82,140,105,2
24,35,37,86,2
68,30,250,128,2
268,47,14,319,2
9,211,0,150,2
341,271,42,81,2
112,51,109,21,2
52,127,437,319,2
281,147,262,6,2
313,249,311,126,2
58,76,198,152,2
512,201,321,108,2
397,58,109,213,2
50,82,106,91,2
75,107,213,109,2
280,165,533,146,2
252,48,70,142,2
126,137,33,97,2
123,129,268,241,2
143,229,185,267,2
72,91,111,186,2
0,62,383,428,2
8,57,106,75,2
352,249,180,143,2
15,61,148,257,2
96,34,21,41,2
10,148,0,7,2
30,32,162,62,2
205,95,130,118,2
38,135,180,64,2
18,87,35,23,2
136,269,129,9,2
35,125,21,98,2
3,64,17,34,2
95,15,137,59,2
83,24,15,35,2
121,72,175,83,2
24,77,76,38,2
47,73,28,59,2
84,10,70,15,2
48,148,113,92,2
4,35,0,20,2
97,182,79,30,2
34,220,297,144,2
285,61,90,201,2
313,133,228,42,2
442,135,0,131,2
58,147,54,75,2
217,145,332,196,2
171,21,379,60,2
48,81,150,146,2
31,11,21,35,2
71,25,170,214,2
76,20,384,249,2
85,14,287,36,2
1,102,425,300,2
12,31,16,37,2
83,102,555,287,2
186,47,310,244,2
519,165,256,281,2
305,133,410,129,2
281,177,39,2,2
68,179,309,70,2
58,119,445,14,2
312,355,106,40,2
158,27,40,34,2
116,45,257,36,2
123,32,56,56,2
10,54,143,97,2
18,31,524,268,2
232,240,213,171,2
124,25,589,294,2
232,114,47,74,2
8,78,232,213,2
9,79,72,177,2
60,70,38,24,2
31,37,314,148,2
255,272,1,83,2
39,131,40,41,2
95,52,71,3,2
62,84,151,436,2
45,139,253,90,2
296,186,136,206,2
68,131,214,10,2
305,204,46,50,2
85,95,141,87,2
40,10,400,30,2
114,109,0,195,2
152,177,248,37,2
33,19,0,39,2
103,6,311,46,2
29,12,49,74,2
172,81,0,31,2
38,24,681,62,2
64,22,418,26,2
213,315,177,105,2
171,159,156,42,2
128,39,55,103,2
234,235,319,16,2
202,55,225,95,2
50,28,28,24,2
4,20,49,1,2
178,77,31,102,2
120,29,0,1,2
181,12,40,117,2
122,71,12,41,2
58,11,77,164,2
229,218,194,67,2
223,102,7,13,2
197,87,183,140,2
83,344,106,5,2
13,113,144,101,2
35,78,53,19,2
15,8,339,76,2
12,62,25,31,2
20,34,51,56,2
43,150,53,22,2
38,205,6,30,2
184,38,22,6,2
268,7,5,20,2
127,28,132,77,2
119,145,62,35,2
30,77,99,117,2
159,233,96,90,2
61,124,50,2,2
45,83,58,43,2
166,171,73,23,2
14,28,9,25,2
49,127,163,46,2
286,72,528,358,2
262,85,168,122,2
220,244,698,330,2
104,74,0,110,2
18,21,3,137,2
79,71,167,5,2
32,127,262,235,2
33,75,442,74,2
263,70,485,90,2
159,106,453,313,2
59,27,20,64,2
267,85,169,60,2
97,23,542,144,2
144,98,0,129,2
87,55,164,151,2
156,58,309,175,2
288,190,265,16,2
49,9,866,124,2
62,144,118,122,2
2,21,719,104,2
90,79,283,115,2
302,199,399,51,2
148,124,443,283,2
89,9,136,3,2
83,9,331,253,2
1,218,46,39,2
239,248,421,359,2
153,122,83,22,2
143,106,49,47,2
459,127,94,1,2
44,6,7,133,2
66,163,314,3,2
36,74,542,211,2
53,122,779,284,2
9,56,260,31,2
152,190,161,226,2
22,29,98,18,2
96,24,171,99,2
220,71,106,269,2
109,77,37,90,2
69,107,59,131,2
326,111,209,263,2
31,97,130,173,2
252,138,563,219,2
231,153,280,64,2
149,365,59,21,2
152,321,731,69,2
402,276,594,241,2
344,186,390,308,2
266,208,57,226,2
61,52,681,916,2
133,112,527,561,2
18,94,357,631,2
189,107,294,239,2
17,328,284,403,2
155,46,238,17,2
163,98,5,146,2
26,77,153,4,2
48,72,62,197,2
24,52,507,427,2
247,136,193,61,2
171,36,6,371,2
119,9,146,51,2
79,9,187,117,2
408,67,243,85,2
413,133,191,305,2
101,64,274,282,2
375,157,314,94,2
94,13,558,642,2
60,42,56,83,2
98,96,209,164,2
324,334,327,685,2
269,99,205,71,2
32,217,808,392,2
312,193,379,417,2
33,212,372,82,2
412,570,317,313,2
79,251,672,756,2
444,164,215,279,2
364,148,409,32,2
22,54,222,912,2
410,183,745,817,2
30,369,861,532,2
452,15,464,436,2
18,95,684,97,2
240,135,121,73,2
111,45,382,262,2
163,6,839,351,2
291,97,591,279,2
48,15,21,93,2
16,122,472,831,2
231,151,580,156,2
145,68,675,1023,2
333,27,1023,581,2
583,303,602,29,2
106,22,102,14,2
40,25,1023,251,2
45,114,891,226,2
210,245,149,62,2
336,119,786,69,2
288,348,269,47,2
50,51,323,96,2
65,242,111,246,2
211,291,618,372,2
19,207,696,77,2
386,249,784,574,2
274,26,361,170,2
138,86,536,387,2
164,54,203,162,2
92,61,405,82,2
241,67,422,315,2
165,313,822,231,2
142,72,756,1023,2
648,373,292,41,2
63,7,308,1023,2
307,274,210,1023,2
394,197,515,633,2
210,336,35,71,2
35,59,585,223,2
196,36,706,693,2
104,104,292,171,2
29,22,81,103,2
443,142,760,443,2
271,60,93,91,2
287,270,457,381,2
1,14,139,85,2
137,103,232,32,2
213,37,192,252,2
364,129,636,919,2
126,237,1023,1023,2
656,305,699,162,2
436,99,111,572,2
29,124,779,678,2
65,56,722,521,2
125,56,557,26,2
19,113,519,298,2
112,107,187,777,2
19,15,279,362,2
229,249,142,411,2
254,441,1023,488,2
11,115,177,37,2
467,129,750,609,2
417,106,388,18,2
50,158,783,480,2
294,16,513,465,2
280,98,115,110,2
9,109,407,364,2
290,51,92,675,2
275,145,1001,719,2
54,9,1023,924,2
8,59,270,78,2
130,105,1023,551,2
57,75,90,52,2
255,51,1023,731,2
230,219,163,338,2
308,63,1023,371,2
171,282,16,56,2
295,219,1023,304,2
126,386,1023,98,2
117,66,65,392,2
271,341,162,65,2
337,587,80,211,2
100,106,727,361,2
63,145,415,126,2
441,203,585,296,2
282,61,1023,207,2
28,174,727,54,2
481,236,153,280,2
207,178,479,446,2
156,151,484,412,2
983,549,1023,460,2
1023,601,343,633,2
105,10,955,529,2
156,18,362,391,2
308,142,919,491,2
46,10,12,177,2
30,40,772,188,2
261,220,321,19,2
148,87,777,408,2
121,45,527,49,2
276,139,601,670,2
227,198,179,536,2
309,186,696,371,2
14,19,498,497,2
9,41,935,547,2
143,173,133,11,2
7,61,408,62,2
427,408,121,75,2
189,421,652,266,2
81,71,407,391,2
803,431,182,368,2
897,154,591,354,2
132,86,29,160,2
145,176,18,106,2
649,14,1023,181,2
177,189,33,31,2
116,264,645,369,2
47,109,154,143,2
146,91,43,87,2
87,140,305,229,2
6,11,67,41,2
240,49,231,187,2
85,17,61,726,2
93,70,15,1,2
154,9,559,224,2
10,61,368,61,2
291,36,508,191,2
67,69,146,691,2
226,101,211,173,2
212,70,387,50,2
118,19,539,95,2
155,25,81,191,2
9,103,597,388,2
1,106,116,91,2
410,25,15,79,2
797,525,292,205,2
400,457,220,85,2
367,175,205,290,2
610,225,183,246,2
936,240,415,84,2
3,9,518,287,2
130,41,130,221,2
84,57,237,256,2
43,72,191,790,2
35,24,277,678,2
44,66,611,15,2
181,239,0,220,2
180,78,320,260,2
141,175,192,60,2
336,114,145,1022,2
93,53,202,458,2
150,113,357,432,2
119,112,279,300,2
335,42,296,225,2
104,93,353,246,2
5,118,421,208,2
162,11,190,24,2
84,20,222,212,2
272,161,86,86,2
126,193,169,500,2
39,77,463,103,2
29,15,82,158,2
23,46,271,56,2
259,169,253,492,2
15,134,603,444,2
43,148,331,145,2
232,11,76,254,2
263,201,226,271,2
206,59,613,669,2
74,82,71,391,2
396,213,1,77,2
63,75,48,378,2
46,267,78,114,2
332,313,202,211,2
77,241,75,59,2
85,239,271,131,2
116,167,330,150,2
62,78,363,104,2
97,124,37,8,2
157,89,200,95,2
350,278,444,178,2
66,178,213,112,2
512,73,31,160,2
131,55,292,378,2
182,23,407,137,2
109,183,323,244,2
13,169,689,243,2
58,62,1023,60,2
111,154,145,126,2
152,51,59,125,2
0,5,427,137,2
7,11,332,31,2
171,22,394,166,2
59,14,178,154,2
13,11,180,291,2
131,234,257,211,2
41,70,279,794,2
11,19,862,596,2
41,27,374,75,2
13,14,142,69,2
61,59,319,208,2
152,97,16,94,2
373,111,26,129,2
569,235,96,96,2
159,13,313,70,2
78,108,103,181,2
122,92,86,14,2
237,87,241,30,2
80,170,375,447,2
213,269,586,438,2
240,228,383,165,2
171,37,81,777,2
290,28,102,367,2
87,29,0,89,2
37,17,59,174,2
25,26,577,187,2
61,70,244,36,2
36,10,300,113,2
64,108,218,107,2
115,134,28,361,2
118,70,468,169,2
107,44,45,142,2
19,6,379,35,2
195,111,145,40,2
68,86,190,181,2
13,15,40,82,2
212,127,533,261,2
71,102,55,10,2
100,28,498,216,2
51,95,409,27,2
202,266,372,372,2
270,350,514,121,2
9,70,42,44,2
7,17,0,80,2
1,52,212,181,2
24,33,20,76,2
20,34,244,220,2
91,113,458,72,2
81,150,22,141,2
81,38,149,104,2
55,79,402,34,2
85,90,172,343,2
60,170,494,307,2
64,10,48,180,2
15,56,6,90,2
43,93,356,82,2
345,42,475,106,2
163,11,436,5,2
77,167,49,62,2
445,399,0,2,2
159,191,66,36,2
107,42,30,44,2
45,112,185,91,2
141,24,543,273,2
96,88,372,40,2
196,82,530,281,2
218,146,0,42,2
58,15,81,23,2
90,74,553,478,2
140,64,21,122,2
68,208,558,379,2
282,251,494,241,2
30,7,51,185,2
186,107,354,482,2
68,14,6,634,2
57,32,33,388,2
69,193,120,41,2
310,15,125,20,2
122,142,87,43,2
189,205,55,44,2
6,58,60,21,2
139,52,116,96,2
55,9,78,30,2
285,81,53,54,2
48,136,76,79,2
135,22,270,176,2
59,19,321,337,2
159,118,159,74,2
58,24,441,26,2
46,23,108,6,2
217,13,121,62,2
18,93,10,35,2
21,21,257,202,2
322,229,22,313,2
58,70,2,83,2
32,54,233,252,2
65,139,54,18,2
99,9,95,69,2
210,145,147,46,2
57,64,106,77,2
475,339,7,2,2
174,244,33,21,2
122,26,82,105,2
176,89,256,357,2
44,22,163,231,2
8,61,236,227,2
68,137,83,93,2
298,133,9,18,2
288,123,0,15,2
34,18,126,233,2
32,46,76,26,2
94,14,57,3,2
447,166,36,30,2
40,136,16,24,2
172,143,126,29,2
195,114,126,11,2
88,17,65,177,2
56,7,107,14,2
284,166,397,202,2
88,54,29,181,2
131,147,125,84,2
48,6,148,98,2
156,26,0,65,2
290,189,140,186,2
91,9,117,151,2
148,175,7,52,2
110,10,86,35,2
39,47,179,160,2
275,133,97,32,2
289,80,100,45,2
33,21,54,7,2
174,222,104,20,2
88,117,342,207,2
7,68,43,15,2
95,31,169,262,2
17,9,0,60,2
56,171,55,18,2
59,91,159,91,2
226,22,142,34,2
130,67,298,180,2
29,93,0,1,2
12,11,169,344,2
64,145,294,38,2
36,155,0,115,2
19,33,301,81,2
50,70,189,130,2
181,279,72,15,2
1,39,110,72,2
198,178,398,79,2
28,154,62,105,2
16,123,211,84,2
355,266,104,4,2
81,65,27,50,2
104,320,116,18,2
382,64,57,60,2
391,323,6,122,2
249,96,51,33,2
91,28,120,22,2
20,44,153,86,2
121,207,139,95,2
27,159,79,146,2
49,79,22,145,2
79,114,35,71,2
53,153,141,123,2
247,75,101,125,2
304,16,9,4,2
119,33,0,61,2
435,567,102,111,2
213,116,3,54,2
100,82,80,19,2
171,216,110,84,2
42,143,136,64,2
208,89,119,11,2
104,154,19,200,2
56,71,582,405,2
15,16,213,119,2
15,53,211,450,2
192,89,158,89,2
427,198,186,103,2
1,22,296,57,2
98,230,14,88,2
114,13,132,0,2
17,74,212,127,2
224,260,35,47,2
13,106,41,66,2
64,41,104,103,2
156,194,153,120,2
200,204,23,49,2
277,107,125,34,2
107,80,162,83,2
134,45,317,120,2
241,169,93,118,2
204,255,30,105,2
171,52,17,75,2
368,231,4,15,2
45,47,4,172,2
87,13,219,77,2
18,67,234,80,2
30,73,0,76,2
156,144,163,23,2
194,61,53,45,2
150,9,64,38,2
84,13,151,35,2
141,167,118,131,2
48,7,503,289,2
39,57,366,283,2
233,125,21,172,2
42,23,565,68,2
8,44,386,3,2
209,289,338,32,2
83,56,113,119,2
201,16,45,48,2
93,48,354,4,2
241,12,144,138,2
100,247,411,1,2
1,24,528,294,2
244,213,99,348,2
196,63,153,90,2
191,294,1,411,2
120,308,318,49,2
227,80,339,107,2
229,16,208,451,2
174,37,24,22,2
109,155,165,356,2
227,416,0,37,2
9,76,293,105,2
16,94,0,89,2
480,382,402,518,2
271,320,180,99,2
4,32,171,93,2
285,30,265,499,2
223,45,32,368,2
58,8,471,355,2
245,46,262,53,2
146,79,337,89,2
172,8,134,91,2
202,56,33,340,2
89,191,302,17,2
31,229,152,12,2
98,42,206,193,2
295,189,181,731,2
206,244,103,207,2
13,121,404,1023,2
63,118,807,147,2
250,7,258,370,2
26,181,107,479,2
430,215,371,339,2
91,151,924,1023,2
189,18,979,388,2
63,121,425,656,2
166,18,893,489,2
251,147,190,143,2
102,38,10,141,2
9,122,359,212,2
48,209,337,1014,2
571,30,98,494,2
115,27,282,487,2
95,12,582,210,2
402,176,720,273,2
286,132,0,162,2
314,171,90,382,2
85,80,44,17,2
8,148,412,259,2
187,45,17,72,2
129,47,815,91,2
161,33,966,431,2
8,74,105,966,2
447,487,132,174,2
26,124,65,779,2
84,83,16,205,2
135,87,639,66,2
37,15,306,93,2
386,242,421,90,2
302,280,308,342,2
22,95,174,395,2
271,192,387,710,2
77,28,66,72,2
74,49,381,858,2
80,6,838,1023,2
500,104,286,280,2
202,134,75,206,2
110,57,472,580,2
107,137,472,33,2
322,198,778,493,2
264,280,806,50,2
25,138,102,382,2
200,221,103,904,2
336,261,440,794,2
43,136,680,767,2
10,25,1023,1023,2
331,254,0,161,2
173,262,808,707,2
391,93,736,436,2
89,12,548,192,2
42,61,34,114,2
283,348,576,747,2
7,161,194,46,2
332,440,429,720,2
317,101,625,494,2
32,61,1023,640,2
538,356,162,508,2
362,177,574,365,2
174,51,433,104,2
246,207,306,515,2
65,77,395,70,2
122,233,1023,478,2
195,388,660,256,2
372,265,1023,1023,2
11,246,716,119,2
30,61,1023,1023,2
200,122,949,796,2
339,179,905,951,2
230,421,888,608,2
230,180,826,702,2
669,513,498,436,2
282,181,478,226,2
337,127,801,251,2
147,189,934,953,2
28,386,128,219,2
61,304,1023,1023,2
452,233,504,103,2
105,185,1023,834,2
64,336,745,276,2
255,112,694,744,2
26,267,215,188,2
262,187,392,315,2
403,77,298,211,2
444,490,370,2,2
708,519,382,101,2
417,154,146,119,2
81,26,939,41,2
376,140,477,50,2
730,444,246,276,2
88,178,410,189,2
389,37,1023,822,2
178,26,283,615,2
281,171,756,1023,2
25,116,204,27,2
79,16,643,137,2
334,388,99,562,2
153,45,723,953,2
119,281,466,138,2
231,29,642,631,2
203,71,369,128,2
140,78,1023,682,2
127,290,313,149,2
340,118,1023,1023,2
71,119,1023,426,2
331,119,1023,1023,2
423,275,577,173,2
244,27,289,327,2
174,40,983,444,2
824,684,726,301,2
477,449,1023,617,2
573,77,1023,113,2
179,51,819,1023,2
768,492,1023,666,2
186,279,230,741,2
256,60,472,1023,2
367,36,697,612,2
10,42,366,320,2
68,30,1023,694,2
84,183,855,629,2
195,138,364,179,2
3,7,266,634,2
66,20,11,162,2
17,170,1023,530,2
138,223,301,105,2
190,284,1023,924,2
220,229,60,49,2
74,318,1023,1023,2
16,223,1023,1023,2
232,96,412,17,2
220,304,1023,842,2
287,141,675,410,2
595,285,27,540,2
224,62,253,563,2
375,100,413,108,2
282,63,224,226,2
147,332,1023,309,2
247,193,907,266,2
278,325,1023,344,2
82,41,883,621,2
93,23,1023,510,2
1,8,1019,748,2
146,118,200,270,2
336,105,1023,952,2
30,16,394,498,2
842,546,348,330,2
148,150,145,61,2
157,108,762,199,2
440,371,504,479,2
437,34,648,322,2
30,173,652,587,2
6,139,183,247,2
2,16,467,356,2
69,11,303,510,2
0,9,514,35,2
65,56,343,232,2
237,195,84,215,2
325,158,667,457,2
566,6,1023,164,2
311,303,526,47,2
6,124,619,216,2
523,137,176,48,2
120,66,56,237,2
21,138,85,23,2
109,198,248,712,2
53,82,825,514,2
216,93,248,195,2
194,81,416,286,2
51,12,175,107,2
35,132,1023,1023,2
128,90,1023,1023,2
28,45,69,397,2
183,68,464,140,2
160,56,321,90,2
31,18,567,523,2
41,69,171,117,2
363,31,427,74,2
22,143,643,246,2
7,52,318,155,2
129,88,463,14,2
0,26,27,4,2
183,36,201,157,2
173,28,951,467,2
183,117,215,369,2
183,75,213,2,2
232,97,44,113,2
1,20,687,345,2
69,137,619,202,2
357,196,221,159,2
551,335,61,174,2
11,47,414,413,2
115,119,372,296,2
129,71,400,109,2
199,142,757,241,2
33,44,251,331,2
177,34,651,17,2
178,131,277,613,2
70,258,406,229,2
35,13,499,281,2
34,42,15,125,2
335,173,316,199,2
518,372,406,156,2
84,26,185,20,2
646,317,342,154,2
286,42,221,195,2
131,33,247,172,2
99,29,230,218,2
183,14,5,328,2
17,80,231,58,2
366,41,167,301,2
77,89,138,93,2
18,67,355,139,2
313,324,171,66,2
126,95,147,211,2
90,50,451,840,2
110,85,322,807,2
95,35,35,101,2
80,56,11,111,2
54,118,42,192,2
11,6,35,233,2
207,349,179,103,2
387,295,56,93,2
21,91,131,90,2
26,134,167,237,2
126,201,165,208,2
235,12,222,45,2
185,166,333,131,2
170,12,96,36,2
269,54,424,26,2
90,63,324,3,2
128,83,211,131,2
182,19,528,660,2
6,174,25,331,2
93,69,309,163,2
49,93,212,210,2
7,111,581,540,2
183,174,280,55,2
107,80,478,475,2
76,8,123,23,2
5,92,265,65,2
2,132,339,559,2
234,142,162,366,2
60,346,582,7,2
247,185,592,262,2
62,136,16,296,2
208,55,292,392,2
248,66,280,177,2
193,171,336,16,2
76,57,328,362,2
321,82,223,200,2
132,303,99,216,2
50,27,444,200,2
66,94,308,261,2
55,52,564,221,2
307,197,110,680,2
92,185,764,483,2
34,191,36,338,2
140,83,774,86,2
2,131,388,81,2
213,85,188,225,2
94,25,131,290,2
124,348,347,116,2
234,204,70,23,2
40,58,180,139,2
94,18,271,273,2
95,141,350,112,2
21,17,234,162,2
90,18,277,438,2
53,23,339,7,2
205,42,129,106,2
8,74,302,43,2
126,132,280,349,2
247,89,98,166,2
44,182,0,154,2
100,116,58,549,2
327,141,380,462,2
46,106,66,97,2
37,184,36,37,2
31,111,210,42,2
35,95,169,9,2
178,152,110,181,2
36,99,316,43,2
217,202,59,53,2
112,151,226,466,2
264,89,167,164,2
30,18,65,69,2
14,58,351,762,2
155,137,80,203,2
91,126,46,371,2
510,234,10,40,2
188,76,402,203,2
127,138,84,50,2
38,58,99,37,2
57,102,19,36,2
311,216,441,297,2
86,30,273,32,2
55,173,14,172,2
63,99,51,227,2
133,176,496,253,2
80,158,116,94,2
151,20,10,68,2
121,27,98,60,2
87,89,213,117,2
201,62,79,104,2
2,10,208,148,2
264,11,230,76,2
62,12,669,109,2
230,133,394,94,2
69,41,8,99,2
38,33,80,43,2
10,5,243,75,2
62,215,119,519,2
88,12,303,275,2
32,10,359,276,2
184,145,142,135,2
80,12,413,330,2
280,101,145,53,2
232,149,302,151,2
15,60,433,204,2
109,81,234,162,2
139,203,217,50,2
161,109,118,99,2
170,31,181,86,2
30,123,46,109,2
21,11,113,167,2
334,71,203,109,2
108,25,0,37,2
13,13,35,11,2
75,54,55,53,2
29,91,293,482,2
453,205,165,492,2
33,142,146,120,2
16,145,177,22,2
89,177,0,78,2
73,120,122,26,2
90,47,65,58,2
48,53,93,84,2
117,48,0,22,2
337,142,254,109,2
136,84,112,179,2
214,177,337,215,2
89,61,406,115,2
117,158,143,233,2
45,141,384,176,2
2,75,124,56,2
88,58,1,2,2
26,20,0,33,2
44,21,158,131,2
202,111,66,7,2
105,123,153,70,2
85,37,97,149,2
380,67,236,3,2
502,155,0,80,2
20,95,95,67,2
190,246,34,118,2
161,127,0,160,2
129,166,143,58,2
69,70,148,91,2
162,15,49,54,2
155,68,63,65,2
165,176,70,404,2
97,93,197,132,2
70,91,229,480,2
171,202,346,218,2
43,41,103,110,2
65,101,348,288,2
8,10,37,11,2
220,38,124,216,2
366,514,206,197,2
166,60,0,33,2
134,124,67,99,2
16,98,130,17,2
433,257,0,96,2
236,24,50,1,2
109,151,183,95,2
390,96,45,143,2
314,138,133,154,2
86,152,0,135,2
68,189,691,322,2
0,30,306,96,2
108,62,426,275,2
13,11,1,5,2
5,44,211,75,2
194,71,182,149,2
207,130,112,38,2
0,11,28,13,2
202,239,164,64,2
9,86,179,47,2
12,54,216,61,2
69,13,233,311,2
103,7,195,124,2
117,271,56,239,2
239,153,84,61,2
70,57,265,145,2
13,20,171,149,2
166,83,208,89,2
55,49,13,112,2
113,80,257,48,2
59,13,156,90,2
231,246,36,99,2
72,70,74,45,2
54,108,2,77,2
1,9,120,64,2
98,88,103,89,2
193,39,232,137,2
161,112,69,16,2
92,200,141,71,2
237,233,39,65,2
289,202,8,68,2
14,13,12,120,2
36,40,338,214,2
440,214,223,34,2
42,195,457,245,2
241,274,15,58,2
231,151,283,100,2
58,69,443,311,2
100,50,319,67,2
119,146,656,363,2
129,145,7,23,2
198,220,271,196,2
197,24,102,79,2
214,265,271,36,2
5,48,61,69,2
398,401,72,62,2
448,157,84,22,2
103,125,87,2,2
83,198,368,61,2
96,165,132,27,2
142,126,3,6,2
26,45,103,2,2
143,94,490,95,2
71,111,81,113,2
311,287,255,157,2
217,48,549,257,2
21,58,153,184,2
56,54,23,44,2
64,293,86,4,2
0,159,147,110,2
92,35,86,5,2
251,6,199,158,2
117,334,11,34,2
39,24,211,91,2
192,199,79,14,2
308,212,29,2,2
76,40,207,57,2
206,208,217,3,2
114,94,41,17,2
94,112,0,93,2
11,15,7,61,2
65,35,37,79,2
33,136,53,1,2
4,7,56,49,2
15,71,56,34,2
225,350,394,250,2
227,358,214,143,2
152,20,593,427,2
22,40,108,34,2
254,237,75,84,2
160,94,102,93,2
85,17,128,47,2
110,176,46,33,2
251,59,96,3,2
98,92,149,2,2
5,12,99,54,2
97,72,249,25,2
163,17,258,66,2
30,105,4,4,2
169,69,291,146,2
79,149,325,200,2
270,215,587,299,2
113,61,58,71,2
103,140,118,106,2
81,52,237,27,2
32,64,23,7,2
43,291,15,60,2
23,262,171,77,2
158,120,64,32,2
11,67,753,290,2
246,49,47,95,2
29,110,326,111,2
321,276,318,222,2
38,63,268,19,2
86,67,416,29,2
69,7,2,199,2
224,135,69,126,2
3,234,623,62,2
263,149,713,349,2
50,25,313,277,2
68,207,836,173,2
171,149,80,93,2
70,167,528,399,2
133,179,211,56,2
318,342,426,92,2
149,69,160,216,2
195,142,93,193,2
170,110,268,238,2
44,80,20,5,2
218,156,427,282,2
179,210,369,227,2
24,57,354,340,2
54,126,314,128,2
166,15,435,356,2
165,21,120,122,2
129,152,527,298,2
94,116,392,152,2
345,174,80,153,2
180,272,525,332,2
48,12,135,314,2
62,35,267,242,2
149,370,220,359,2
10,35,459,142,2
206,111,405,401,2
88,93,299,80,2
153,268,310,50,2
33,31,220,149,2
348,342,129,108,2
324,134,106,26,2
12,119,195,42,2
796,303,175,434,2
159,71,1000,275,2
199,134,1023,916,2
141,15,46,559,2
35,125,520,444,2
355,286,17,211,2
233,109,292,9,2
159,93,473,2,2
198,44,446,678,2
39,69,130,239,2
18,223,935,722,2
295,367,122,402,2
41,225,216,148,2
249,58,446,875,2
100,73,54,82,2
114,81,1023,1017,2
23,13,506,150,2
122,48,354,600,2
62,31,220,316,2
85,94,88,44,2
128,31,8,280,2
149,423,536,609,2
214,39,685,214,2
180,98,433,793,2
380,219,667,947,2
576,176,249,60,2
593,553,190,335,2
80,84,484,102,2
22,14,828,219,2
11,168,126,12,2
264,513,258,88,2
151,303,25,203,2
140,233,800,377,2
308,155,1023,443,2
107,12,40,64,2
151,33,42,222,2
97,9,605,12,2
59,150,36,295,2
79,196,273,424,2
72,52,1023,270,2
51,54,651,335,2
108,99,226,593,2
266,225,43,615,2
235,243,533,717,2
86,92,395,159,2
69,75,520,484,2
117,74,803,642,2
134,280,40,464,2
330,275,97,253,2
293,17,719,318,2
359,69,35,299,2
6,73,416,326,2
152,150,114,109,2
87,11,633,21,2
182,15,500,562,2
92,49,81,57,2
29,33,609,408,2
201,17,98,526,2
1,117,166,236,2
116,29,1023,348,2
102,72,243,1023,2
56,1,1023,1023,2
120,284,225,15,2
50,656,975,308,2
553,365,49,443,2
214,414,1023,876,2
16,73,327,210,2
100,14,467,730,2
112,39,122,230,2
205,180,134,18,2
83,41,116,235,2
33,57,133,207,2
93,78,193,117,2
40,84,84,463,2
50,130,247,539,2
53,8,479,405,2
40,131,877,627,2
91,95,565,313,2
62,26,575,525,2
136,151,632,554,2
554,447,1023,94,2
176,114,382,272,2
466,172,336,317,2
237,117,970,77,2
38,10,825,504,2
214,201,1023,929,2
51,39,298,694,2
132,14,1023,1023,2
42,258,15,227,2
278,17,1023,1013,2
258,65,87,179,2
668,438,395,71,2
123,107,1023,1023,2
880,271,1023,1023,2
578,126,527,345,2
447,55,1013,700,2
13,82,282,11,2
87,17,640,132,2
88,179,104,244,2
149,11,909,571,2
382,182,107,406,2
195,20,1023,466,2
275,53,551,80,2
30,17,317,530,2
22,54,189,177,2
269,102,649,463,2
65,33,157,227,2
161,152,529,74,2
5,112,826,215,2
511,376,33,750,2
691,303,1023,1023,2
800,691,221,523,2
47,206,237,306,2
146,125,279,251,2
21,166,247,767,2
161,99,262,120,2
213,113,928,586,2
83,191,1018,330,2
152,162,946,374,2
270,182,851,290,2
242,304,880,365,2
110,62,14,38,2
228,71,97,62,2
254,154,1015,413,2
232,140,257,472,2
81,52,1023,1023,2
356,218,186,19,2
35,28,718,175,2
262,125,1023,229,2
215,68,422,233,2
68,16,1023,32,2
159,95,405,391,2
212,218,487,338,2
254,137,253,55,2
202,92,516,8,2
271,89,1023,310,2
368,53,1023,774,2
25,48,821,173,2
