Ch1,Ch2,Ch3,Ch4,label
30,71,2,2,1
107,142,2,39,1
126,62,2,10,1
225,201,2,39,1
27,64,2,73,1
246,262,2,54,1
208,333,2,4,1
22,25,2,10,1
141,184,2,2,1
51,114,2,95,1
31,75,2,90,1
64,61,2,89,1
71,80,2,63,1
83,102,2,33,1
92,73,2,109,1
26,8,3,23,1
134,146,2,105,1
10,24,2,48,1
163,150,2,51,1
36,12,2,44,1
150,165,2,51,1
124,189,2,60,1
30,41,2,24,1
71,127,2,12,1
68,108,2,132,1
9,6,2,0,1
174,189,2,94,1
93,90,2,33,1
1,9,2,44,1
1,15,2,76,1
82,90,2,64,1
92,122,2,84,1
25,17,2,29,1
12,8,2,11,1
4,73,2,100,1
2,61,2,3,1
39,50,2,117,1
88,20,2,62,1
53,120,2,29,1
51,142,2,71,1
51,102,2,66,1
25,47,2,63,1
43,59,2,47,1
28,12,2,2,1
8,59,2,144,1
23,31,2,19,1
18,80,2,70,1
49,33,2,23,1
5,15,2,4,1
15,31,2,95,1
62,40,2,56,1
243,313,2,90,1
106,146,2,6,1
52,12,2,3,1
12,25,2,99,1
26,129,2,9,1
147,154,2,73,1
12,27,2,73,1
53,72,2,0,1
9,41,2,85,1
80,52,2,38,1
7,24,2,68,1
39,6,2,68,1
47,32,2,49,1
54,96,2,32,1
63,126,2,0,1
62,88,2,53,1
199,246,2,91,1
32,34,2,3,1
103,119,2,141,1
41,10,2,31,1
164,172,2,85,1
5,24,2,4,1
257,254,2,0,1
67,133,2,159,1
21,23,2,0,1
110,118,2,145,1
24,16,2,104,1
0,24,2,31,1
50,56,2,172,1
317,315,2,44,1
0,11,2,150,1
222,225,2,0,1
137,118,2,32,1
115,93,2,46,1
78,19,2,0,1
54,35,2,47,1
79,145,2,51,1
18,109,2,6,1
150,190,2,116,1
7,66,2,44,1
48,75,2,67,1
56,15,2,0,1
15,6,2,13,1
93,144,2,78,1
11,76,2,59,1
46,46,2,0,1
57,90,2,27,1
147,160,2,10,1
31,18,2,42,1
21,50,2,70,1
18,147,2,119,1
1,91,2,0,1
16,45,2,14,1
34,56,2,61,1
3,103,2,28,1
0,6,2,0,1
31,105,2,0,1
92,75,2,2,1
168,124,2,156,1
46,11,2,15,1
168,234,2,104,1
85,122,2,88,1
16,30,2,0,1
31,70,2,213,1
115,10,2,0,1
31,34,2,137,1
64,16,2,3,1
47,62,2,28,1
109,145,2,133,1
54,103,2,78,1
189,140,2,164,1
56,48,2,7,1
39,10,2,46,1
4,15,2,96,1
1,19,2,0,1
29,62,2,81,1
51,129,2,5,1
168,159,2,21,1
292,401,2,56,1
11,74,2,13,1
143,151,2,0,1
125,163,2,28,1
48,92,2,0,1
19,102,2,97,1
125,217,2,48,1
24,43,2,42,1
79,150,2,79,1
76,109,2,1,1
95,226,2,30,1
55,50,2,63,1
66,166,2,134,1
92,13,2,0,1
187,261,2,70,1
87,184,2,113,1
127,81,2,50,1
61,88,2,54,1
24,66,2,24,1
37,15,2,11,1
7,67,2,2,1
36,74,2,1,1
52,75,2,67,1
32,78,2,5,1
76,126,2,0,1
178,247,2,93,1
146,111,2,54,1
23,64,2,78,1
239,183,2,10,1
119,117,2,22,1
8,65,2,137,1
140,88,2,47,1
147,234,2,163,1
75,189,2,21,1
76,111,2,10,1
64,190,2,34,1
88,137,2,0,1
294,363,2,9,1
30,109,2,54,1
185,127,2,3,1
26,81,2,14,1
29,179,2,178,1
260,272,2,16,1
12,69,2,85,1
203,198,2,10,1
248,197,2,273,1
193,166,2,19,1
81,72,2,106,1
14,25,2,41,1
52,106,2,63,1
20,54,2,5,1
68,76,2,34,1
132,165,2,46,1
97,38,2,87,1
51,84,2,36,1
104,34,2,88,1
6,63,2,0,1
187,235,2,142,1
11,133,2,15,1
130,161,2,15,1
35,77,2,111,1
3,57,2,72,1
138,191,2,188,1
129,125,2,219,1
45,84,2,33,1
4,52,2,242,1
114,138,2,6,1
18,22,2,148,1
9,18,2,39,1
112,74,2,139,1
64,58,2,0,1
22,85,2,119,1
119,137,2,107,1
9,34,2,261,1
237,255,2,0,1
168,231,2,186,1
4,10,2,86,1
99,122,2,13,1
56,7,2,66,1
164,277,2,63,1
145,75,2,227,1
231,227,2,83,1
99,146,2,194,1
6,42,2,73,1
309,340,2,27,1
122,147,2,171,1
103,144,2,150,1
64,53,2,45,1
44,51,3,167,1
107,163,2,111,1
107,157,2,19,1
25,19,2,44,1
107,113,2,297,1
82,100,2,4,1
125,116,2,130,1
42,74,2,307,1
67,103,2,168,1
175,101,2,21,1
158,116,2,186,1
3,14,2,16,1
19,13,2,15,1
169,178,2,102,1
9,55,2,151,1
170,210,2,26,1
59,92,2,216,1
210,284,2,228,1
134,102,2,143,1
123,144,2,30,1
244,225,2,183,1
77,170,2,109,1
110,26,3,517,1
22,196,2,19,1
217,323,2,117,1
131,131,2,52,1
164,118,2,233,1
212,272,2,96,1
142,177,2,203,1
54,18,2,38,1
28,32,2,151,1
93,21,2,231,1
82,159,2,60,1
301,351,2,158,1
5,56,2,29,1
29,178,2,343,1
70,98,2,268,1
127,216,2,534,1
87,256,2,33,1
74,125,2,227,1
114,44,2,80,1
16,125,2,76,1
75,125,2,13,1
9,22,2,193,1
439,340,2,30,1
227,391,2,0,1
49,61,2,179,1
59,19,2,0,1
30,66,2,42,1
8,23,2,75,1
13,77,2,148,1
226,192,2,270,1
174,260,2,19,1
77,140,2,561,1
88,74,2,98,1
139,33,2,84,1
173,153,2,220,1
139,125,2,157,1
79,66,2,524,1
69,90,2,22,1
222,223,2,617,1
71,111,2,75,1
117,133,2,308,1
66,93,2,339,1
270,234,2,159,1
195,285,2,429,1
5,17,2,7,1
212,172,2,285,1
22,79,2,382,1
229,88,2,288,1
6,87,2,387,1
79,147,2,310,1
129,81,2,311,1
63,17,2,140,1
150,82,2,3,1
170,171,2,388,1
379,376,2,613,1
270,285,2,16,1
129,63,2,403,1
394,229,2,353,1
121,204,2,117,1
223,96,2,176,1
76,197,2,379,1
90,52,2,468,1
198,33,2,201,1
142,60,2,128,1
125,89,2,273,1
14,67,2,63,1
79,74,2,7,1
90,170,2,27,1
171,174,2,29,1
8,27,2,165,1
297,59,2,111,1
257,112,2,106,1
240,322,2,0,1
85,162,2,422,1
117,23,2,180,1
206,401,2,418,1
306,98,2,140,1
271,311,2,93,1
95,107,2,152,1
178,154,2,264,1
106,22,2,314,1
379,583,2,15,1
179,161,3,33,1
83,51,2,83,1
88,204,2,42,1
28,73,2,0,1
186,108,2,118,1
242,175,2,217,1
9,31,2,287,1
187,262,2,150,1
380,203,3,480,1
327,148,2,124,1
7,19,2,576,1
49,37,2,115,1
81,32,2,43,1
14,35,2,80,1
114,130,2,318,1
132,26,2,397,1
32,31,2,61,1
114,132,2,325,1
37,23,2,294,1
36,169,2,238,1
79,45,2,29,1
125,24,2,398,1
141,137,2,187,1
131,30,2,345,1
100,87,2,430,1
78,65,2,28,1
112,169,2,311,1
52,16,2,288,1
60,284,2,164,1
66,235,2,310,1
92,24,2,68,1
8,50,2,259,1
4,113,2,193,1
59,106,2,10,1
557,110,2,172,1
282,53,2,567,1
307,211,2,180,1
159,130,2,34,1
12,131,2,419,1
158,53,2,65,1
0,196,2,508,1
67,162,2,2,1
20,122,2,293,1
319,304,2,400,1
88,179,3,674,1
298,220,2,42,1
133,59,2,428,1
251,67,2,371,1
209,82,2,159,1
81,23,2,218,1
165,159,2,183,1
188,102,2,88,1
52,59,2,186,1
226,234,2,89,1
198,296,2,188,1
17,35,2,57,1
307,196,2,364,1
112,98,2,388,1
295,316,2,199,1
93,123,2,54,1
167,188,2,263,1
74,41,2,186,1
90,26,2,55,1
32,247,2,641,1
83,146,2,611,1
75,15,2,104,1
268,11,2,566,1
301,348,2,132,1
36,97,2,138,1
48,144,2,247,1
49,120,2,266,1
63,237,2,510,1
295,37,2,304,1
109,210,2,208,1
127,34,2,310,1
137,90,2,267,1
201,85,2,234,1
98,185,2,14,1
48,60,2,377,1
117,99,2,131,1
45,20,2,85,1
327,380,2,249,1
205,239,2,265,1
153,16,3,729,1
65,50,2,93,1
196,101,2,396,1
21,239,2,207,1
623,194,2,237,1
340,312,2,399,1
275,170,2,61,1
50,53,2,196,1
317,330,2,212,1
89,119,2,133,1
69,268,3,800,1
449,223,2,52,1
404,515,2,534,1
21,213,2,27,1
248,250,1,125,1
86,125,2,62,1
49,24,2,298,1
21,409,2,89,1
247,25,3,799,1
226,152,2,430,1
85,166,2,190,1
109,167,2,0,1
6,13,2,89,1
117,304,2,375,1
30,179,2,482,1
160,137,2,141,1
18,35,2,301,1
194,71,2,460,1
493,159,2,578,1
271,148,2,546,1
60,221,2,56,1
77,135,2,457,1
16,343,2,161,1
361,352,2,818,1
523,411,2,478,1
33,213,2,255,1
194,506,2,612,1
2,10,2,103,1
229,55,2,276,1
504,73,2,90,1
350,116,2,216,1
191,72,2,583,1
242,11,2,364,1
189,33,2,376,1
35,58,2,1009,1
160,57,2,906,1
292,100,5,49,1
149,25,1,508,1
215,319,1,111,1
116,214,2,35,1
184,42,2,219,1
347,343,2,476,1
428,483,2,101,1
391,466,2,197,1
99,105,2,67,1
99,241,2,354,1
75,301,2,0,1
371,47,2,137,1
347,239,2,165,1
8,42,2,637,1
151,16,2,199,1
8,68,2,110,1
122,35,2,121,1
40,181,2,32,1
11,166,2,71,1
26,76,2,13,1
98,82,2,303,1
184,61,2,158,1
395,271,2,400,1
428,186,2,345,1
478,326,2,457,1
546,313,2,233,1
189,191,2,578,1
338,239,2,27,1
228,148,2,635,1
230,611,2,745,1
15,110,2,141,1
17,127,2,768,1
169,72,28,1023,1
92,52,127,18,1
54,33,23,926,1
371,223,1,343,1
429,225,1,305,1
148,69,2,203,1
125,302,2,78,1
17,29,2,530,1
89,37,2,111,1
201,218,2,332,1
73,135,2,536,1
26,76,2,826,1
48,62,2,351,1
49,84,2,233,1
103,15,2,25,1
28,123,2,72,1
167,237,2,322,1
51,87,2,66,1
10,42,2,221,1
64,39,2,189,1
11,122,2,603,1
67,6,2,147,1
148,179,2,360,1
330,124,2,317,1
228,23,2,606,1
505,329,3,1023,1
166,139,2,216,1
3,90,2,182,1
82,16,2,335,1
221,79,2,132,1
222,95,2,533,1
194,96,2,67,1
72,31,2,241,1
103,96,2,67,1
78,37,2,224,1
107,422,2,408,1
71,125,2,122,1
120,143,2,615,1
95,9,2,432,1
90,15,2,151,1
19,112,2,35,1
104,16,2,310,1
175,138,2,102,1
86,129,2,30,1
108,117,2,235,1
12,28,2,12,1
87,6,2,28,1
202,11,2,308,1
131,366,2,5,1
145,70,2,225,1
33,68,2,633,1
0,31,2,380,1
42,84,2,56,1
84,53,2,44,1
54,153,2,8,1
28,178,2,454,1
167,142,2,71,1
24,10,2,491,1
197,201,2,245,1
0,211,2,161,1
63,22,2,447,1
87,57,2,383,1
70,191,2,272,1
56,39,2,228,1
12,262,2,260,1
5,63,2,304,1
157,74,2,46,1
57,38,2,206,1
14,115,2,306,1
103,9,2,375,1
103,143,2,241,1
267,273,2,343,1
187,48,2,198,1
86,118,2,91,1
117,67,2,104,1
384,394,2,172,1
37,78,2,119,1
84,57,2,78,1
261,222,2,59,1
20,88,2,122,1
4,35,2,79,1
95,123,2,84,1
201,125,2,378,1
4,76,2,332,1
342,373,2,50,1
343,269,2,115,1
84,140,2,61,1
298,149,2,19,1
159,42,2,35,1
1,62,2,100,1
173,129,2,39,1
37,87,2,183,1
21,123,2,141,1
4,162,2,489,1
132,276,2,116,1
60,12,2,321,1
206,120,2,366,1
203,222,2,451,1
99,234,2,388,1
149,261,2,196,1
131,52,2,394,1
129,167,2,184,1
16,78,2,348,1
166,80,2,602,1
101,112,2,311,1
206,81,2,528,1
264,406,2,373,1
64,106,2,240,1
346,255,2,55,1
167,191,2,76,1
72,44,2,142,1
4,17,2,43,1
138,45,2,425,1
6,116,2,363,1
64,71,2,253,1
132,199,2,353,1
234,106,2,27,1
343,299,2,35,1
78,33,2,380,1
114,99,2,329,1
241,79,2,42,1
125,45,2,120,1
193,102,2,315,1
87,145,2,63,1
483,314,2,345,1
142,84,2,27,1
9,204,2,122,1
51,111,2,102,1
231,311,2,108,1
237,165,2,514,1
20,8,2,212,1
120,204,2,256,1
130,23,2,253,1
192,60,2,58,1
93,103,2,0,1
11,107,2,25,1
131,59,2,129,1
23,49,2,200,1
132,203,2,138,1
214,248,2,154,1
11,15,2,209,1
74,18,2,160,1
52,131,2,217,1
33,15,2,201,1
289,297,2,168,1
282,295,2,47,1
261,125,2,157,1
14,123,2,17,1
320,204,2,209,1
166,126,2,261,1
1,117,2,91,1
126,20,2,190,1
17,13,2,7,1
212,174,2,12,1
38,86,2,1,1
66,80,2,104,1
196,197,2,29,1
117,90,2,85,1
71,124,2,209,1
25,14,2,84,1
133,118,2,417,1
32,36,2,128,1
1,111,2,325,1
280,213,2,36,1
56,124,2,1,1
137,140,2,325,1
205,210,2,238,1
70,91,2,193,1
74,18,2,11,1
91,81,2,98,1
37,43,2,170,1
31,128,2,0,1
172,226,2,198,1
318,306,2,185,1
121,82,2,212,1
196,277,2,100,1
255,228,2,153,1
7,36,2,123,1
71,23,2,171,1
10,9,2,219,1
11,68,2,219,1
86,47,2,85,1
104,38,2,17,1
81,33,2,70,1
0,158,2,107,1
165,25,2,153,1
125,172,2,139,1
10,80,2,45,1
258,175,2,58,1
189,138,2,250,1
216,205,2,71,1
74,15,2,187,1
47,183,2,14,1
95,130,2,6,1
23,127,2,54,1
84,92,2,137,1
27,20,2,236,1
37,49,2,179,1
76,98,2,243,1
69,64,2,109,1
156,12,2,130,1
122,34,2,67,1
5,30,2,154,1
118,55,2,1,1
196,169,2,81,1
39,24,2,74,1
47,128,2,239,1
105,108,2,45,1
85,104,2,139,1
11,73,2,117,1
135,200,2,0,1
6,6,2,6,1
92,57,2,99,1
73,37,2,34,1
118,58,2,93,1
81,114,2,18,1
161,183,2,50,1
14,19,2,13,1
111,68,2,0,1
33,23,2,25,1
118,53,2,0,1
26,42,2,20,1
62,34,2,107,1
8,22,2,159,1
119,149,2,82,1
145,166,2,104,1
119,161,2,48,1
86,101,2,1,1
144,99,2,30,1
87,88,2,7,1
199,171,2,160,1
204,225,2,8,1
36,138,2,118,1
151,52,2,66,1
12,52,2,29,1
75,170,2,35,1
145,96,2,0,1
207,187,2,62,1
75,12,2,84,1
37,23,2,13,1
19,10,2,45,1
90,8,2,70,1
2,18,2,53,1
50,222,2,71,1
15,42,2,0,1
114,56,2,94,1
26,10,2,19,1
26,83,2,62,1
211,255,2,13,1
30,71,2,145,1
138,186,2,98,1
173,247,2,75,1
78,123,2,73,1
19,61,2,0,1
143,173,2,0,1
34,95,2,0,1
99,119,2,39,1
76,171,2,58,1
71,60,2,55,1
46,135,2,41,1
75,17,2,54,1
9,30,2,0,1
35,21,2,75,1
185,151,2,28,1
112,100,2,0,1
172,191,2,73,1
30,31,2,4,1
9,74,2,59,1
37,41,2,55,1
85,169,2,11,1
148,32,2,54,1
91,91,2,25,1
71,88,2,104,1
74,139,2,42,1
32,65,2,0,1
75,32,2,76,1
25,44,2,18,1
2,5,2,57,1
37,122,2,25,1
106,157,2,10,1
13,17,2,122,1
73,138,2,35,1
250,320,2,67,1
275,343,2,0,1
84,95,2,1,1
56,115,2,70,1
19,34,2,13,1
119,110,2,65,1
4,68,2,32,1
135,128,2,22,1
9,48,2,82,1
62,82,2,22,1
20,48,2,28,1
92,114,2,27,1
74,83,2,0,1
200,175,2,79,1
64,201,2,20,1
8,56,2,57,1
27,44,2,60,1
134,103,2,19,1
186,37,2,25,1
140,177,2,21,1
149,154,2,70,1
109,99,2,31,1
108,124,2,0,1
289,269,2,78,1
272,225,2,6,1
21,65,2,22,1
228,229,2,19,1
177,175,2,38,1
5,19,2,107,1
138,138,2,0,1
24,17,2,48,1
63,79,2,22,1
124,122,2,6,1
213,247,2,89,1
279,292,2,16,1
340,428,2,57,1
21,35,2,37,1
66,63,2,0,1
11,25,2,81,1
30,57,2,18,1
136,184,2,86,1
31,71,2,35,1
97,116,2,3,1
79,7,2,52,1
131,10,2,12,1
58,74,2,37,1
39,12,2,1,1
123,142,2,0,1
8,27,2,66,1
210,165,2,18,1
144,145,2,61,1
11,56,2,13,1
150,217,2,29,1
19,25,2,98,1
7,68,2,0,1
5,14,2,3,1
383,389,2,61,1
80,79,2,0,1
90,80,2,39,1
55,124,2,64,1
130,173,2,43,1
53,15,2,39,1
93,131,2,0,1
161,148,2,91,1
59,11,2,26,1
51,74,2,73,1
1,87,2,74,1
80,26,2,63,1
9,61,2,53,1
115,18,2,85,1
22,33,2,98,1
107,170,2,28,1
22,25,2,0,1
25,126,2,66,1
53,69,2,34,1
49,104,2,102,1
12,67,2,62,1
219,198,2,105,1
46,187,2,128,1
18,15,2,68,1
82,39,2,55,1
147,104,2,8,1
114,116,2,0,1
69,93,2,70,1
135,178,2,9,1
65,189,2,0,1
5,24,2,70,1
127,123,2,107,1
134,87,2,10,1
55,45,2,30,1
82,31,2,29,1
214,212,2,64,1
74,35,2,76,1
4,32,2,11,1
58,103,2,109,1
68,101,2,0,1
214,106,2,164,1
200,300,2,4,1
165,89,2,95,1
123,42,2,154,1
140,183,2,14,1
18,121,2,78,1
122,158,2,110,1
108,43,2,166,1
35,162,2,151,1
121,93,2,227,1
95,15,2,30,1
88,187,2,205,1
128,115,2,183,1
340,301,2,31,1
183,162,2,127,1
28,7,2,216,1
121,188,2,182,1
312,264,2,68,1
380,145,2,160,1
21,74,2,65,1
340,337,2,0,1
35,104,2,0,1
372,209,2,96,1
468,359,2,10,1
49,23,2,38,1
194,211,2,176,1
152,292,2,54,1
4,46,2,32,1
91,112,2,12,1
76,65,2,244,1
125,18,2,315,1
9,37,2,57,1
46,168,2,284,1
14,111,2,133,1
83,83,2,57,1
73,135,2,88,1
159,50,2,82,1
99,165,2,170,1
569,584,2,47,1
40,55,2,169,1
151,41,2,303,1
158,142,2,57,1
83,170,2,308,1
129,94,2,83,1
33,84,2,252,1
3,178,2,357,1
4,20,2,163,1
25,12,2,183,1
233,120,2,354,1
145,83,2,158,1
224,177,2,375,1
181,276,2,271,1
22,49,2,54,1
10,12,2,394,1
5,60,2,11,1
69,249,2,63,1
55,243,2,158,1
15,188,2,20,1
136,12,2,28,1
53,294,2,261,1
186,171,2,270,1
27,29,2,244,1
204,292,2,199,1
206,283,2,125,1
83,176,2,436,1
75,45,2,648,1
128,127,2,286,1
29,98,2,485,1
63,30,2,14,1
253,179,2,98,1
241,187,2,63,1
183,179,2,233,1
112,57,2,400,1
276,188,2,389,1
165,50,2,445,1
55,146,2,609,1
289,364,2,35,1
76,212,2,422,1
81,28,2,114,1
200,11,2,122,1
75,135,2,145,1
213,44,2,4,1
271,256,2,338,1
226,241,2,18,1
268,263,2,503,1
368,238,2,370,1
136,46,2,139,1
47,97,2,223,1
116,51,2,163,1
25,135,2,340,1
58,161,2,411,1
68,170,2,30,1
89,348,2,194,1
173,106,2,178,1
4,14,2,271,1
108,202,2,19,1
257,191,2,132,1
220,294,2,193,1
76,21,2,259,1
17,80,2,14,1
51,36,2,50,1
149,42,2,60,1
428,213,2,81,1
62,133,2,65,1
115,69,2,21,1
39,20,2,68,1
63,220,2,386,1
145,265,2,173,1
428,450,2,348,1
57,110,2,280,1
29,170,2,380,1
74,150,1,145,1
247,275,2,167,1
70,131,2,105,1
334,226,2,421,1
151,110,2,118,1
84,104,2,230,1
172,301,2,11,1
1,270,2,329,1
32,148,2,434,1
302,164,2,31,1
99,162,2,318,1
18,275,2,517,1
58,314,2,229,1
14,25,2,112,1
222,284,1,68,1
15,133,2,160,1
452,333,2,111,1
229,43,2,57,1
22,187,2,563,1
88,255,2,95,1
35,115,2,346,1
200,100,2,187,1
147,91,2,28,1
59,26,2,428,1
39,41,2,0,1
156,55,2,0,1
186,283,2,488,1
341,254,2,339,1
13,55,2,336,1
301,322,2,359,1
476,372,2,42,1
3,293,2,109,1
24,10,2,455,1
45,13,2,462,1
2,13,2,55,1
449,299,2,383,1
229,68,2,602,1
128,35,2,440,1
118,266,2,49,1
100,67,2,0,1
68,174,2,221,1
58,127,2,355,1
181,16,2,314,1
874,541,2,8,1
305,390,2,137,1
117,143,2,339,1
373,190,2,159,1
72,133,2,145,1
224,51,2,106,1
193,18,2,380,1
127,34,2,395,1
100,100,2,177,1
198,47,2,614,1
411,150,2,284,1
132,83,2,98,1
224,181,2,125,1
174,160,2,523,1
113,94,2,623,1
303,133,2,50,1
10,116,2,503,1
80,29,2,508,1
65,65,2,755,1
157,215,157,318,1
2,239,37,781,1
359,178,3,203,1
337,299,1,162,1
215,418,2,438,1
32,119,2,366,1
81,591,3,771,1
183,35,2,386,1
86,109,2,58,1
22,24,2,119,1
51,151,2,31,1
187,197,2,140,1
148,117,2,176,1
145,233,2,122,1
137,26,2,433,1
3,35,2,348,1
210,68,58,670,1
250,68,82,843,1
317,17,11,630,1
25,57,1,250,1
118,25,2,503,1
247,188,2,119,1
117,149,3,988,1
115,127,2,716,1
15,17,1,57,1
176,105,2,100,1
99,325,2,117,1
219,122,2,211,1
193,72,2,732,1
7,50,45,1023,1
330,116,2,248,1
206,79,1,488,1
49,259,2,360,1
83,148,2,561,1
75,109,2,525,1
69,88,2,262,1
121,61,2,324,1
290,74,2,853,1
369,53,2,866,1
24,72,2,530,1
101,48,2,454,1
24,40,2,46,1
15,225,2,215,1
299,27,4,976,1
198,66,2,923,1
77,149,1,377,1
15,139,1,246,1
131,34,2,63,1
51,25,2,78,1
65,9,2,109,1
27,191,2,336,1
55,81,2,565,1
148,67,2,327,1
110,77,2,349,1
265,227,2,41,1
125,68,2,212,1
66,15,2,945,1
177,108,252,1023,1
22,51,59,56,1
67,13,8,452,1
3,67,1,101,1
5,22,2,354,1
157,14,2,145,1
10,9,2,350,1
97,139,2,9,1
172,12,2,134,1
4,79,2,142,1
316,116,2,175,1
381,192,2,435,1
213,218,2,130,1
23,151,2,68,1
138,41,2,327,1
95,17,2,75,1
10,25,2,292,1
97,30,2,152,1
44,46,2,161,1
130,81,2,444,1
111,159,2,504,1
52,223,2,352,1
48,61,2,389,1
7,237,2,432,1
24,90,2,169,1
131,259,2,247,1
31,131,2,1,1
188,119,2,282,1
33,87,2,237,1
220,147,2,167,1
143,175,2,11,1
34,43,2,334,1
77,25,2,0,1
199,382,2,170,1
128,187,2,143,1
295,184,2,46,1
215,66,2,501,1
242,213,2,285,1
7,43,2,123,1
30,38,2,177,1
45,148,2,426,1
52,143,2,62,1
26,109,2,168,1
205,27,2,412,1
32,24,2,139,1
294,144,2,25,1
253,188,2,225,1
62,129,3,794,1
195,151,2,646,1
52,226,2,203,1
119,27,2,1,1
60,56,2,109,1
162,53,2,98,1
0,116,2,206,1
11,160,2,313,1
28,59,2,239,1
111,115,2,348,1
9,84,2,147,1
209,234,2,365,1
224,189,2,136,1
48,176,2,163,1
153,111,2,10,1
111,56,2,371,1
35,174,2,300,1
2,10,2,383,1
231,92,2,231,1
249,148,2,260,1
271,212,2,0,1
99,105,2,73,1
338,393,2,0,1
330,302,2,0,1
69,36,2,62,1
3,7,2,39,1
116,24,2,224,1
33,132,2,374,1
94,20,3,703,1
7,82,2,137,1
3,202,2,30,1
26,22,2,35,1
283,276,2,109,1
22,56,2,47,1
92,86,2,308,1
115,84,2,253,1
43,244,3,736,1
194,87,1,130,1
22,31,2,0,1
82,103,2,278,1
69,51,2,287,1
94,252,2,365,1
316,602,2,24,1
106,152,2,210,1
216,85,2,39,1
54,55,2,18,1
15,40,2,67,1
55,15,2,0,1
62,16,2,191,1
52,77,2,213,1
116,163,2,0,1
81,17,2,102,1
168,175,2,58,1
360,339,2,37,1
159,204,2,366,1
19,110,2,6,1
170,140,2,319,1
66,39,2,86,1
108,155,2,284,1
16,32,2,225,1
163,377,2,48,1
80,21,2,75,1
73,32,2,172,1
53,193,2,24,1
135,94,2,27,1
241,75,2,373,1
109,157,2,357,1
25,69,2,384,1
270,109,2,605,1
58,13,2,203,1
8,53,2,162,1
94,154,2,55,1
111,41,2,230,1
102,91,2,197,1
2,153,2,340,1
83,17,2,129,1
109,166,2,274,1
282,267,2,77,1
166,93,2,175,1
11,8,2,121,1
135,131,2,69,1
246,127,2,166,1
85,10,2,156,1
52,41,2,207,1
86,107,2,155,1
77,60,2,139,1
51,17,2,24,1
139,75,2,327,1
282,150,2,253,1
353,234,2,91,1
35,49,2,625,1
226,91,2,43,1
65,38,2,376,1
17,29,2,186,1
50,52,2,0,1
12,63,2,0,1
200,71,2,126,1
125,252,2,0,1
110,227,2,185,1
170,124,2,115,1
36,96,2,141,1
184,155,2,20,1
51,34,2,89,1
276,141,2,280,1
200,138,2,224,1
29,67,2,317,1
26,198,2,181,1
100,104,2,21,1
195,153,2,34,1
50,110,2,137,1
76,22,2,143,1
79,105,2,205,1
6,94,2,33,1
37,22,2,148,1
82,120,2,327,1
104,65,2,143,1
147,28,2,200,1
7,158,2,76,1
36,7,2,144,1
89,93,2,210,1
49,21,2,301,1
5,43,2,172,1
68,50,2,136,1
1,67,2,305,1
40,30,2,0,1
50,187,2,73,1
57,60,2,120,1
10,37,2,84,1
107,77,2,121,1
71,8,2,183,1
25,66,2,167,1
250,157,1,0,1
70,67,2,64,1
2,22,2,70,1
88,117,2,293,1
13,62,2,41,1
266,311,2,233,1
270,315,2,87,1
104,110,2,148,1
6,30,2,3,1
13,44,2,312,1
181,234,2,430,1
184,325,2,87,1
18,115,2,172,1
31,52,2,200,1
10,14,2,185,1
124,64,2,103,1
1,54,2,107,1
78,123,2,3,1
87,103,2,295,1
113,26,2,100,1
91,110,2,143,1
10,101,2,31,1
55,12,2,18,1
86,89,2,17,1
31,10,2,65,1
119,133,2,43,1
58,78,2,161,1
14,87,2,43,1
40,149,2,122,1
86,39,2,3,1
110,31,3,174,1
233,136,2,8,1
72,18,2,43,1
123,31,2,0,1
77,69,2,13,1
85,138,2,129,1
4,51,2,2,1
47,79,2,38,1
125,180,2,188,1
2,89,2,130,1
32,37,2,60,1
13,24,2,115,1
301,321,2,219,1
168,242,2,33,1
96,160,2,103,1
25,18,2,132,1
28,39,2,49,1
141,198,2,249,1
27,38,2,76,1
39,118,2,161,1
89,41,2,65,1
11,32,2,53,1
6,121,2,57,1
118,50,2,41,1
162,212,2,59,1
143,63,2,11,1
137,69,2,0,1
53,20,2,47,1
126,94,2,85,1
105,156,2,162,1
61,115,2,49,1
40,22,2,45,1
7,6,2,63,1
33,37,2,82,1
151,71,2,2,1
41,52,2,226,1
30,69,2,13,1
97,39,2,0,1
6,68,2,8,1
1,26,2,114,1
87,67,2,11,1
23,34,2,0,1
29,13,2,80,1
30,43,2,11,1
62,64,2,50,1
57,55,2,70,1
48,110,2,38,1
176,222,2,64,1
8,42,2,0,1
65,22,2,113,1
122,57,2,0,1
59,67,2,41,1
1,99,2,97,1
78,8,2,24,1
47,137,2,22,1
8,104,2,0,1
34,116,2,54,1
4,130,2,16,1
220,166,2,7,1
61,106,2,94,1
89,93,2,1,1
7,14,2,8,1
43,99,2,77,1
116,124,2,0,1
133,142,2,71,1
59,127,2,46,1
49,17,2,69,1
178,161,2,101,1
91,110,2,2,1
209,222,2,96,1
125,109,2,17,1
285,224,2,32,1
14,20,2,45,1
70,160,2,78,1
20,94,2,20,1
201,138,2,33,1
52,76,2,45,1
63,83,2,35,1
25,56,2,11,1
14,10,2,110,1
80,35,2,14,1
4,15,2,25,1
101,34,2,75,1
208,225,2,0,1
136,26,2,82,1
322,220,2,1,1
81,85,2,34,1
126,71,2,44,1
79,76,2,16,1
41,8,2,67,1
88,10,2,87,1
177,138,2,4,1
52,18,2,62,1
163,119,2,17,1
37,48,2,70,1
116,92,2,47,1
7,6,2,6,1
55,48,2,35,1
53,73,2,18,1
16,6,2,70,1
124,119,2,15,1
188,243,2,45,1
74,110,2,86,1
182,168,2,0,1
70,108,2,82,1
1,49,2,24,1
9,54,2,42,1
25,58,2,37,1
24,28,2,0,1
54,113,2,88,1
134,35,2,24,1
134,101,2,3,1
1,67,2,68,1
6,69,2,0,1
90,108,2,131,1
72,143,2,112,1
129,149,2,23,1
22,60,2,39,1
3,23,2,5,1
53,34,2,79,1
189,122,2,12,1
26,39,2,50,1
38,11,2,92,1
0,12,2,0,1
9,89,2,109,1
184,144,3,24,1
316,363,2,17,1
168,233,2,56,1
109,75,2,47,1
170,233,2,118,1
55,111,2,8,1
169,205,2,13,1
36,127,2,70,1
165,167,2,0,1
17,157,2,92,1
17,19,2,31,1
89,140,2,47,1
10,91,2,47,1
249,150,2,18,1
115,142,2,142,1
92,18,2,37,1
52,23,2,6,1
33,55,2,51,1
112,145,2,45,1
92,151,2,58,1
3,89,2,50,1
49,19,2,50,1
80,17,2,54,1
79,91,2,54,1
91,43,2,84,1
33,21,2,46,1
44,59,2,13,1
73,89,2,66,1
30,65,2,0,1
2,7,2,41,1
193,116,2,26,1
96,79,2,87,1
67,68,2,79,1
76,15,2,8,1
3,19,2,85,1
44,82,2,1,1
10,55,2,7,1
99,101,2,97,1
14,45,2,69,1
16,38,2,99,1
69,42,2,40,1
26,101,2,1,1
101,78,2,23,1
51,92,2,5,1
15,38,2,103,1
130,128,2,17,1
39,35,2,55,1
21,21,2,0,1
191,89,2,47,1
26,9,1,161,1
85,71,2,142,1
221,267,2,65,1
12,12,2,76,1
80,87,2,60,1
44,17,2,163,1
204,127,2,59,1
47,75,2,0,1
93,100,2,81,1
108,137,2,53,1
46,99,2,233,1
130,126,2,40,1
37,7,2,209,1
220,238,2,11,1
11,54,2,0,1
75,134,2,150,1
8,122,2,277,1
118,63,2,45,1
37,137,2,244,1
130,128,2,39,1
159,117,2,209,1
44,75,2,156,1
190,242,2,28,1
13,6,2,25,1
25,35,2,31,1
82,28,2,31,1
67,102,2,42,1
27,13,2,11,1
49,90,2,130,1
132,143,2,50,1
125,32,2,227,1
130,33,2,103,1
256,316,2,219,1
180,103,2,11,1
110,111,2,83,1
231,125,2,0,1
133,56,2,83,1
43,48,2,58,1
53,110,2,18,1
165,74,2,163,1
122,110,2,59,1
1,13,2,212,1
274,293,2,74,1
3,32,2,399,1
54,39,2,325,1
95,121,2,239,1
5,89,2,263,1
65,42,2,73,1
11,74,2,78,1
102,139,2,71,1
123,245,2,225,1
26,22,2,256,1
81,98,2,421,1
38,25,2,174,1
26,19,2,300,1
107,68,2,27,1
13,61,2,376,1
148,223,2,181,1
89,143,2,151,1
72,141,2,277,1
29,15,2,69,1
208,130,2,113,1
126,251,2,0,1
223,175,2,1,1
48,75,2,191,1
13,11,2,335,1
150,235,2,182,1
84,18,2,77,1
9,41,2,394,1
28,74,2,215,1
290,209,2,92,1
30,25,2,303,1
280,310,2,26,1
214,59,2,247,1
204,66,2,67,1
62,48,2,162,1
60,61,2,118,1
113,47,2,149,1
13,44,2,196,1
232,240,2,298,1
79,32,2,101,1
170,169,2,153,1
132,19,2,9,1
338,349,2,27,1
215,167,2,25,1
176,30,2,17,1
109,240,2,37,1
220,35,2,62,1
103,89,2,417,1
35,10,2,100,1
5,58,2,278,1
71,261,2,608,1
398,103,2,17,1
253,148,2,489,1
180,215,2,11,1
201,263,2,384,1
146,88,2,6,1
181,11,2,358,1
499,397,2,312,1
182,269,2,83,1
293,10,2,238,1
7,73,2,76,1
127,98,2,75,1
145,85,2,166,1
197,25,2,329,1
228,24,2,136,1
154,129,2,46,1
72,31,2,30,1
99,23,2,219,1
38,106,2,259,1
164,101,2,154,1
22,50,2,108,1
27,17,2,65,1
31,23,2,204,1
23,33,2,128,1
138,92,2,305,1
34,11,2,602,1
24,130,2,138,1
11,112,2,580,1
280,38,2,111,1
76,118,3,678,1
162,50,2,107,1
79,251,2,563,1
67,80,2,338,1
165,348,2,485,1
30,240,2,729,1
472,319,2,174,1
8,18,2,433,1
505,305,2,347,1
254,267,2,77,1
146,167,2,221,1
80,217,2,358,1
84,107,2,386,1
103,176,1,3,1
227,105,2,247,1
79,51,2,562,1
362,320,2,218,1
89,29,2,607,1
28,95,2,302,1
127,16,2,235,1
73,27,2,0,1
19,114,2,14,1
266,181,2,293,1
119,27,2,320,1
72,145,2,48,1
29,99,2,11,1
81,167,2,99,1
63,64,2,346,1
252,213,2,80,1
10,103,2,17,1
168,121,2,161,1
26,18,2,0,1
186,155,2,86,1
258,150,2,181,1
209,31,2,102,1
137,11,2,412,1
100,14,2,105,1
26,98,2,254,1
111,41,2,785,1
40,62,2,196,1
308,191,2,152,1
132,106,2,21,1
11,61,2,357,1
18,35,2,660,1
246,209,2,539,1
4,81,2,55,1
179,31,2,168,1
25,90,2,568,1
176,63,2,177,1
33,76,2,567,1
195,52,2,581,1
54,60,2,237,1
138,333,2,154,1
279,194,2,66,1
47,41,2,510,1
68,52,2,19,1
112,19,2,364,1
65,90,2,32,1
47,57,3,638,1
176,236,2,96,1
150,58,3,619,1
298,79,2,25,1
38,184,2,288,1
259,144,2,123,1
79,130,2,512,1
33,63,2,360,1
76,60,2,135,1
397,40,2,277,1
217,47,2,229,1
104,109,2,315,1
33,98,2,186,1
179,157,2,340,1
3,77,2,166,1
390,478,2,220,1
387,75,2,7,1
326,23,2,325,1
223,36,2,513,1
159,213,2,19,1
172,62,2,4,1
240,120,2,262,1
399,197,2,13,1
98,104,2,224,1
1,64,2,480,1
37,108,3,1023,1
361,220,1,146,1
230,287,522,1023,1
346,252,156,1023,1
217,221,243,143,1
225,346,55,164,1
235,105,5,57,1
104,118,2,684,1
327,142,2,307,1
344,431,3,811,1
143,216,2,35,1
44,28,3,716,1
352,157,2,4,1
443,121,3,650,1
126,9,2,57,1
26,71,2,179,1
129,13,2,0,1
129,62,2,85,1
64,22,2,127,1
27,125,2,197,1
198,187,2,175,1
153,300,2,494,1
219,293,2,361,1
139,99,3,812,1
45,165,2,2,1
128,34,2,510,1
356,229,2,131,1
66,75,3,992,1
294,117,2,2,1
169,144,2,301,1
87,78,2,0,1
148,162,2,104,1
7,14,2,420,1
161,92,2,475,1
45,120,2,19,1
120,184,2,280,1
171,114,2,132,1
1,259,2,150,1
41,71,2,49,1
172,71,2,353,1
146,136,2,497,1
368,249,1,223,1
65,138,2,397,1
356,94,2,414,1
276,140,2,99,1
214,135,3,1023,1
349,153,2,544,1
93,17,1,557,1
48,33,2,224,1
328,270,2,178,1
165,216,2,489,1
123,97,2,775,1
376,436,2,145,1
63,93,2,474,1
63,103,2,452,1
178,49,2,118,1
98,95,2,267,1
199,77,2,279,1
96,103,2,211,1
90,87,2,12,1
74,23,3,919,1
271,143,2,181,1
67,16,2,168,1
188,50,2,89,1
167,62,2,324,1
109,37,2,107,1
8,23,2,547,1
167,139,2,7,1
273,227,1,297,1
25,70,2,553,1
140,210,2,355,1
36,20,2,218,1
26,44,2,404,1
102,31,2,279,1
247,110,2,128,1
14,118,2,12,1
48,46,2,482,1
21,115,2,91,1
126,11,2,490,1
193,237,2,433,1
117,206,2,17,1
41,145,2,374,1
113,13,2,615,1
34,28,2,93,1
203,313,2,181,1
272,134,2,64,1
221,208,2,21,1
129,135,2,62,1
69,32,2,277,1
74,7,2,259,1
23,116,2,67,1
40,71,2,179,1
24,90,2,160,1
302,350,2,0,1
72,170,2,361,1
192,161,2,0,1
50,79,2,245,1
156,223,2,283,1
12,23,2,123,1
23,82,2,191,1
98,99,2,340,1
290,185,2,214,1
7,81,2,98,1
12,132,2,0,1
41,181,2,117,1
41,26,2,40,1
74,63,2,77,1
135,83,2,15,1
180,308,2,505,1
131,143,2,360,1
119,265,2,428,1
3,63,2,223,1
135,302,2,183,1
7,76,2,0,1
65,170,2,271,1
40,28,2,408,1
100,73,2,98,1
34,297,2,411,1
81,172,2,511,1
71,237,2,279,1
93,21,2,481,1
107,62,2,270,1
43,121,2,213,1
162,112,2,195,1
61,13,2,76,1
138,115,2,96,1
10,130,2,221,1
197,259,2,127,1
18,43,2,242,1
279,129,2,142,1
150,140,3,547,1
178,69,2,11,1
176,71,2,128,1
167,88,2,124,1
108,27,2,429,1
246,7,2,105,1
38,77,2,69,1
292,266,2,227,1
29,109,2,425,1
49,194,2,296,1
148,17,2,101,1
132,61,2,94,1
62,172,2,50,1
3,51,2,309,1
115,108,2,619,1
193,36,2,527,1
333,391,2,151,1
155,307,2,56,1
31,64,2,26,1
41,29,2,286,1
161,299,2,0,1
46,128,2,261,1
309,359,2,213,1
175,169,2,135,1
48,80,2,53,1
346,318,2,10,1
80,16,2,0,1
102,178,2,266,1
54,9,2,388,1
288,276,2,229,1
53,108,2,336,1
8,56,2,114,1
10,13,2,236,1
154,51,2,118,1
192,187,2,79,1
85,139,2,259,1
135,41,2,31,1
109,68,2,29,1
110,104,2,262,1
0,135,2,87,1
179,163,2,0,1
120,180,2,0,1
0,86,2,185,1
105,75,2,300,1
171,9,2,172,1
271,200,2,103,1
69,67,2,197,1
137,85,2,5,1
133,174,2,109,1
6,16,2,73,1
55,10,2,266,1
82,184,2,0,1
265,217,2,0,1
34,48,2,0,1
131,72,2,21,1
137,50,2,0,1
65,14,2,35,1
23,11,2,226,1
82,95,2,206,1
120,155,2,327,1
136,16,2,394,1
71,49,2,268,1
46,38,2,258,1
62,114,2,221,1
29,42,2,108,1
130,134,2,58,1
21,38,2,278,1
129,43,2,154,1
81,183,2,147,1
22,159,2,239,1
17,7,2,0,1
42,139,2,133,1
234,98,2,277,1
338,266,2,8,1
10,156,2,108,1
237,170,2,33,1
337,290,2,0,1
44,87,2,109,1
54,21,2,48,1
249,148,2,23,1
27,10,2,19,1
30,113,2,70,1
46,24,2,255,1
79,73,2,144,1
143,141,2,62,1
64,83,2,149,1
127,197,2,27,1
47,109,2,117,1
44,74,2,171,1
268,200,2,146,1
6,60,2,182,1
58,246,2,44,1
142,234,2,137,1
46,46,2,149,1
126,166,2,119,1
212,164,2,189,1
64,127,2,91,1
354,492,1,124,1
218,197,2,36,1
263,318,2,1,1
54,52,2,51,1
154,159,2,226,1
36,45,2,114,1
227,157,2,155,1
162,157,2,243,1
39,48,2,118,1
7,62,2,37,1
38,7,2,19,1
85,51,2,31,1
157,93,2,92,1
67,130,2,61,1
118,203,2,208,1
139,141,2,54,1
45,75,2,252,1
247,305,2,0,1
207,202,2,111,1
37,44,2,51,1
55,15,2,0,1
50,35,2,6,1
8,47,2,161,1
50,88,2,119,1
7,70,2,59,1
190,149,2,4,1
101,95,2,70,1
32,7,2,120,1
54,119,2,205,1
244,329,2,101,1
248,265,2,99,1
121,64,2,36,1
266,278,2,51,1
79,130,2,95,1
176,156,2,6,1
249,355,2,74,1
230,270,2,0,1
152,154,2,103,1
75,134,2,158,1
134,136,2,116,1
154,157,2,184,1
172,148,2,2,1
229,257,2,67,1
51,29,2,51,1
245,275,2,10,1
113,102,2,83,1
27,74,2,47,1
185,202,2,32,1
156,157,2,98,1
130,134,2,0,1
20,53,2,26,1
117,75,2,60,1
232,75,2,0,1
54,27,2,35,1
17,25,2,104,1
54,43,2,36,1
247,271,2,46,1
112,213,2,0,1
133,113,2,157,1
46,9,2,1,1
54,64,2,142,1
31,23,2,16,1
23,30,2,29,1
88,100,2,39,1
37,41,2,5,1
156,212,2,71,1
69,144,2,5,1
174,172,2,0,1
148,265,2,88,1
44,82,2,7,1
261,340,2,80,1
110,159,2,57,1
105,101,2,0,1
11,30,2,82,1
14,28,2,0,1
82,152,2,61,1
110,209,2,13,1
94,83,2,0,1
8,65,2,86,1
34,15,2,26,1
189,217,2,20,1
18,101,2,0,1
227,181,2,38,1
68,12,2,44,1
28,35,2,33,1
60,75,2,49,1
86,81,2,32,1
115,122,2,0,1
44,69,2,94,1
132,131,2,21,1
158,136,2,34,1
3,34,2,32,1
121,125,2,6,1
33,52,2,72,1
0,6,2,2,1
1,34,2,27,1
66,5,2,37,1
42,79,2,0,1
207,122,2,71,1
2,121,2,16,1
147,117,2,55,1
88,129,2,54,1
94,83,2,0,1
14,34,2,83,1
28,111,2,20,1
195,161,2,6,1
92,61,2,29,1
87,63,2,31,1
4,59,2,91,1
3,38,2,0,1
86,48,2,59,1
3,51,2,0,1
95,48,2,7,1
24,24,2,59,1
43,90,2,18,1
3,16,2,23,1
3,36,2,27,1
11,43,2,0,1
75,91,2,121,1
262,323,2,31,1
48,84,2,29,1
37,38,2,51,1
149,110,2,17,1
58,15,2,111,1
130,223,2,78,1
17,62,2,45,1
95,78,2,46,1
50,59,2,0,1
153,82,2,90,1
126,91,2,9,1
10,15,2,34,1
2,6,2,68,1
51,47,2,0,1
64,69,2,120,1
29,29,2,17,1
3,36,2,91,1
154,98,2,22,1
138,99,2,40,1
67,89,2,0,1
70,94,2,23,1
3,7,2,53,1
118,57,2,68,1
28,6,2,1,1
25,35,2,72,1
32,15,2,24,1
42,104,2,32,1
65,129,2,93,1
6,13,2,0,1
100,130,2,58,1
217,231,2,10,1
119,122,2,48,1
14,52,2,32,1
11,43,2,33,1
6,50,2,148,1
4,61,2,242,1
197,190,2,53,1
4,122,2,44,1
119,128,2,0,1
196,176,2,84,1
3,26,2,1,1
63,78,2,0,1
127,96,2,20,1
26,70,2,0,1
93,84,2,29,1
123,149,2,76,1
54,75,2,29,1
4,10,2,32,1
40,40,2,58,1
39,117,2,183,1
2,26,2,89,1
304,274,2,111,1
101,119,2,32,1
19,27,2,0,1
164,136,2,139,1
79,24,2,22,1
33,12,2,55,1
103,123,2,72,1
10,9,2,47,1
45,48,2,8,1
59,61,2,80,1
73,106,2,11,1
85,20,2,66,1
26,42,2,100,1
11,7,2,187,1
24,31,2,265,1
28,57,2,207,1
81,48,2,200,1
12,14,2,138,1
23,13,2,48,1
98,113,2,38,1
31,7,2,65,1
24,62,2,48,1
25,64,2,73,1
8,15,2,86,1
28,15,2,184,1
65,25,2,19,1
112,78,2,127,1
49,103,2,39,1
26,110,2,41,1
24,52,2,181,1
193,136,2,4,1
123,134,2,67,1
167,167,2,103,1
159,220,2,184,1
163,84,2,0,1
218,225,2,330,1
256,71,2,5,1
79,110,2,307,1
3,11,2,187,1
18,43,2,148,1
172,179,2,250,1
5,26,2,18,1
228,147,2,145,1
243,145,2,77,1
155,122,2,20,1
151,99,2,107,1
116,52,2,68,1
74,18,2,0,1
103,188,2,104,1
6,13,2,90,1
207,163,2,53,1
72,144,2,31,1
38,10,2,0,1
62,173,2,20,1
198,64,2,69,1
13,156,2,95,1
56,236,2,84,1
118,156,2,137,1
349,291,2,190,1
110,129,2,176,1
33,66,2,101,1
194,152,2,106,1
158,287,2,7,1
317,183,2,44,1
87,50,2,332,1
176,28,2,126,1
26,57,2,163,1
17,122,2,117,1
68,122,2,238,1
53,89,2,285,1
67,66,2,181,1
179,334,2,316,1
127,205,2,2,1
32,78,2,65,1
203,112,2,108,1
86,51,2,130,1
53,37,2,21,1
52,120,2,0,1
197,166,2,165,1
63,122,2,194,1
281,139,2,196,1
20,135,2,2,1
19,55,2,6,1
16,197,2,13,1
124,69,2,96,1
7,49,2,106,1
21,127,2,190,1
63,68,2,258,1
60,232,2,19,1
306,85,2,11,1
413,365,2,117,1
192,92,2,25,1
27,19,2,11,1
80,19,2,370,1
270,126,2,36,1
268,222,2,117,1
168,140,2,56,1
39,55,2,113,1
98,179,2,158,1
148,197,2,158,1
155,79,2,7,1
122,136,2,228,1
18,67,2,170,1
63,35,3,691,1
265,223,2,357,1
119,256,2,240,1
200,126,2,159,1
119,258,2,363,1
19,111,2,633,1
225,273,2,113,1
54,147,2,51,1
106,183,2,148,1
222,84,2,77,1
360,300,2,298,1
160,15,2,379,1
25,71,2,0,1
169,22,2,433,1
138,292,2,116,1
447,291,2,350,1
115,134,2,474,1
272,159,2,411,1
290,186,2,59,1
71,35,2,174,1
396,238,2,113,1
408,175,2,369,1
130,179,2,231,1
82,88,2,220,1
178,39,2,96,1
147,228,2,706,1
364,119,2,639,1
155,94,2,464,1
223,154,2,705,1
91,209,2,561,1
525,329,1,366,1
190,173,2,892,1
387,408,1,356,1
167,23,45,759,1
376,201,10,895,1
113,17,1,55,1
219,10,2,216,1
101,128,2,189,1
188,193,2,228,1
175,30,2,453,1
257,182,2,203,1
311,40,2,448,1
195,215,2,83,1
53,48,2,304,1
114,222,2,123,1
192,90,2,279,1
435,600,2,74,1
219,322,2,204,1
59,139,2,35,1
324,231,2,254,1
71,197,2,375,1
93,147,2,776,1
208,233,3,980,1
23,154,2,263,1
177,31,2,70,1
293,199,2,234,1
194,19,2,253,1
280,304,2,39,1
45,130,2,711,1
127,218,2,203,1
79,265,2,355,1
164,35,2,272,1
298,219,3,229,1
211,25,2,18,1
142,34,2,879,1
404,231,2,801,1
22,83,2,207,1
295,146,2,444,1
127,9,2,255,1
229,44,2,548,1
310,13,2,354,1
299,36,2,767,1
342,151,2,157,1
184,407,2,16,1
94,184,3,1003,1
527,343,2,749,1
254,241,1,35,1
299,268,2,525,1
676,380,3,1018,1
250,224,23,73,1
247,146,180,1023,1
449,15,90,611,1
179,135,13,370,1
166,184,1,99,1
329,260,2,707,1
218,243,2,186,1
46,15,561,1023,1
189,30,85,777,1
260,212,31,294,1
94,111,4,317,1
188,92,1,325,1
16,247,2,26,1
82,18,2,19,1
143,98,2,460,1
297,275,2,147,1
177,46,2,215,1
6,65,3,1023,1
179,127,2,88,1
310,240,2,789,1
602,360,1,245,1
59,22,2,839,1
367,387,1,241,1
206,288,29,1023,1
283,466,89,999,1
204,183,18,751,1
74,21,1,355,1
118,23,1,909,1
66,6,2,967,1
86,31,2,120,1
403,159,2,0,1
132,51,2,445,1
235,31,2,290,1
97,115,2,320,1
9,288,2,4,1
97,27,3,961,1
129,188,2,415,1
106,125,2,66,1
88,23,2,5,1
125,42,2,22,1
95,55,2,44,1
18,81,2,206,1
339,32,2,267,1
328,226,2,0,1
32,227,2,603,1
284,188,2,228,1
250,129,3,796,1
166,152,1,67,1
64,36,3,1023,1
364,208,2,369,1
246,220,2,421,1
225,202,2,87,1
283,289,2,95,1
15,26,2,141,1
76,118,2,864,1
128,31,2,635,1
338,343,2,234,1
275,183,2,427,1
304,189,2,218,1
242,46,2,598,1
349,143,2,122,1
301,23,2,208,1
244,37,2,144,1
170,82,2,249,1
167,43,2,179,1
76,119,2,476,1
26,15,2,179,1
105,67,2,183,1
57,46,3,798,1
441,165,2,515,1
304,245,2,468,1
312,204,2,38,1
308,252,2,736,1
190,20,2,541,1
107,449,2,22,1
119,197,2,189,1
89,344,2,398,1
23,174,2,41,1
3,239,3,861,1
137,113,2,75,1
260,319,2,415,1
38,236,2,447,1
620,248,2,26,1
487,109,2,519,1
44,33,2,475,1
330,102,48,1023,1
481,58,60,12,1
228,294,9,417,1
494,243,1,1005,1
270,191,1,485,1
182,103,262,752,1
226,190,100,459,1
230,266,13,931,1
393,216,1,1023,1
331,43,2,1023,1
496,210,331,660,1
147,30,100,944,1
261,140,14,8,1
8,84,1,320,1
267,55,578,1023,1
844,347,338,1023,1
664,590,257,989,1
163,88,428,1023,1
372,228,144,404,1
137,169,23,118,1
183,183,1,344,1
1,107,2,546,1
125,284,3,686,1
262,141,2,42,1
194,268,2,346,1
219,145,2,279,1
141,159,2,96,1
3,60,3,442,1
104,153,2,62,1
1,17,2,191,1
97,122,2,137,1
169,10,2,78,1
54,14,2,447,1
75,26,2,325,1
79,86,2,71,1
12,63,2,83,1
27,115,2,169,1
9,13,2,117,1
223,131,2,249,1
266,225,2,37,1
33,5,2,0,1
5,148,2,79,1
69,93,2,180,1
20,20,2,16,1
110,135,2,147,1
67,10,2,305,1
9,23,2,278,1
16,76,3,709,1
287,161,2,407,1
31,44,2,148,1
135,250,2,458,1
76,204,3,652,1
197,233,2,67,1
134,263,2,348,1
23,31,2,261,1
146,133,2,16,1
167,133,3,888,1
88,90,2,862,1
349,220,2,388,1
84,141,2,429,1
307,17,2,455,1
162,165,2,503,1
84,50,2,307,1
246,232,2,520,1
61,92,2,0,1
70,90,2,430,1
243,304,2,432,1
163,172,2,399,1
28,41,3,756,1
132,81,2,358,1
42,75,2,775,1
127,41,2,495,1
118,32,2,93,1
132,55,2,215,1
297,168,2,309,1
356,312,2,13,1
425,209,2,232,1
454,323,2,632,1
392,372,1,17,1
178,42,2,522,1
233,250,2,13,1
160,371,2,147,1
174,297,2,69,1
176,136,2,48,1
82,162,2,517,1
122,56,2,0,1
297,331,2,139,1
83,260,2,302,1
31,46,2,103,1
123,91,2,396,1
292,307,2,191,1
26,45,2,86,1
162,254,2,40,1
89,18,2,124,1
310,289,3,637,1
37,82,2,182,1
58,192,2,25,1
56,146,2,195,1
42,31,2,225,1
98,56,2,0,1
174,236,2,196,1
124,49,2,78,1
25,22,2,192,1
38,80,2,156,1
198,150,2,219,1
41,54,2,68,1
63,109,2,399,1
5,168,2,104,1
186,183,2,664,1
94,88,2,494,1
193,266,2,21,1
137,283,2,450,1
402,110,2,157,1
292,162,2,106,1
256,319,2,409,1
45,114,2,349,1
8,80,2,298,1
198,45,2,448,1
63,102,2,102,1
17,92,2,534,1
154,32,2,148,1
104,105,2,80,1
62,35,2,587,1
191,321,2,362,1
179,289,2,442,1
333,104,2,280,1
67,7,2,64,1
538,205,2,388,1
334,139,2,353,1
74,84,2,68,1
36,97,2,268,1
140,61,2,184,1
63,16,2,87,1
20,68,2,118,1
183,59,2,85,1
22,27,2,124,1
278,193,2,131,1
34,70,2,48,1
117,12,2,224,1
276,205,2,51,1
136,55,2,41,1
239,128,2,99,1
78,27,2,1,1
62,95,2,196,1
39,47,2,151,1
26,13,2,387,1
119,21,2,186,1
185,10,2,91,1
75,68,2,169,1
229,220,2,22,1
51,78,2,191,1
271,285,2,36,1
31,96,2,101,1
1,82,2,357,1
124,134,2,47,1
50,48,2,437,1
16,91,2,253,1
182,15,2,450,1
188,226,2,120,1
31,108,2,597,1
241,261,2,123,1
105,24,2,71,1
113,133,2,121,1
191,86,2,122,1
62,56,2,155,1
21,73,2,81,1
74,7,2,353,1
51,97,2,358,1
108,161,2,425,1
28,45,2,554,1
79,24,2,197,1
183,81,2,267,1
73,36,2,157,1
19,15,2,125,1
122,224,2,69,1
93,155,2,171,1
19,62,2,11,1
134,275,2,151,1
76,163,2,115,1
50,21,2,160,1
85,86,2,31,1
28,43,2,0,1
231,149,2,123,1
24,40,2,30,1
17,8,2,2,1
211,44,2,46,1
1,37,2,97,1
194,230,2,110,1
87,106,2,305,1
69,168,2,3,1
170,291,2,193,1
119,154,2,85,1
61,101,2,36,1
52,69,2,131,1
2,11,2,273,1
82,100,2,165,1
10,48,2,378,1
153,60,2,50,1
93,40,2,135,1
258,231,2,63,1
52,69,2,3,1
120,149,2,329,1
126,161,2,57,1
198,286,2,74,1
146,12,2,276,1
256,121,2,77,1
32,100,2,146,1
43,62,2,67,1
77,27,2,27,1
77,118,2,97,1
46,58,2,186,1
129,197,2,228,1
183,15,2,193,1
517,522,1,101,1
138,63,2,138,1
322,173,2,14,1
10,71,2,49,1
42,63,2,89,1
11,29,2,16,1
42,60,2,117,1
7,7,2,31,1
119,139,2,67,1
69,55,2,74,1
131,92,2,65,1
46,39,2,98,1
119,99,2,0,1
65,23,1,66,1
37,38,2,0,1
27,33,2,92,1
39,120,2,9,1
77,99,2,41,1
2,47,2,111,1
13,15,2,19,1
27,75,2,38,1
17,161,2,149,1
61,86,2,32,1
90,91,2,62,1
112,69,2,19,1
81,101,2,6,1
2,45,2,136,1
45,99,2,19,1
5,10,2,7,1
109,130,2,43,1
3,31,2,95,1
79,13,2,110,1
4,51,2,55,1
141,60,2,102,1
88,88,2,104,1
24,30,2,98,1
108,119,2,26,1
113,168,2,14,1
15,13,2,113,1
9,39,2,28,1
104,198,2,49,1
18,26,2,8,1
119,62,2,78,1
80,29,2,23,1
165,164,2,118,1
35,53,2,80,1
63,70,2,151,1
117,163,2,9,1
81,125,2,86,1
114,85,2,2,1
24,35,2,18,1
109,35,2,84,1
1,10,2,0,1
112,144,2,49,1
188,358,2,74,1
74,64,2,0,1
8,75,2,94,1
82,183,2,29,1
64,103,2,29,1
51,120,2,45,1
63,59,2,27,1
53,14,2,35,1
207,220,2,31,1
161,233,2,0,1
23,29,2,58,1
16,48,2,27,1
26,77,2,59,1
10,24,2,34,1
402,474,2,140,1
117,186,2,0,1
54,64,2,9,1
32,70,2,0,1
54,38,2,22,1
99,37,2,0,1
3,50,2,89,1
148,52,2,20,1
88,45,2,198,1
10,24,2,0,1
135,183,2,108,1
58,14,2,0,1
8,41,2,0,1
28,16,2,92,1
20,47,2,2,1
45,54,2,77,1
51,108,2,58,1
95,94,2,20,1
93,95,2,55,1
272,303,2,35,1
43,9,2,72,1
50,9,2,14,1
86,55,2,0,1
1,7,2,75,1
98,51,2,14,1
146,147,2,105,1
26,15,2,48,1
229,259,2,27,1
57,65,2,62,1
72,104,2,2,1
51,66,2,104,1
148,106,2,54,1
20,76,2,23,1
6,16,2,87,1
81,43,2,2,1
48,33,2,75,1
6,36,2,60,1
169,259,2,0,1
7,52,2,136,1
209,156,2,33,1
11,68,2,99,1
134,12,2,36,1
3,29,2,29,1
103,130,2,102,1
15,31,2,0,1
227,168,2,30,2
334,287,2,49,2
5,13,2,3,2
39,41,2,157,2
17,15,2,4,2
48,39,2,122,2
44,34,2,12,2
23,57,2,2,2
97,80,2,99,2
104,58,2,4,2
145,166,2,65,2
107,117,2,51,2
162,203,2,23,2
100,67,2,10,2
79,46,2,19,2
174,186,2,11,2
148,143,2,71,2
33,96,2,0,2
14,95,2,207,2
77,29,2,30,2
38,117,2,260,2
15,15,2,37,2
7,21,2,84,2
134,152,2,19,2
48,104,2,75,2
61,73,2,66,2
66,117,2,0,2
114,116,2,0,2
87,79,2,105,2
51,116,2,22,2
14,77,2,99,2
59,31,2,54,2
17,25,2,110,2
216,212,2,18,2
293,294,2,30,2
180,157,2,180,2
22,48,2,197,2
116,149,2,274,2
73,196,2,240,2
110,158,2,87,2
103,253,2,131,2
102,37,2,78,2
177,192,2,17,2
31,31,2,48,2
64,97,2,0,2
84,118,2,154,2
120,143,2,65,2
14,19,2,108,2
50,20,2,43,2
24,62,2,179,2
12,82,2,53,2
28,146,2,142,2
166,123,2,79,2
61,166,2,110,2
152,152,2,128,2
3,62,2,168,2
61,81,2,24,2
8,78,2,106,2
37,62,2,200,2
224,140,2,56,2
226,258,2,43,2
37,43,2,21,2
92,79,2,164,2
6,33,2,40,2
74,157,2,152,2
37,21,2,221,2
90,144,2,246,2
340,285,2,426,2
244,190,2,187,2
10,25,2,25,2
5,27,3,197,2
28,23,3,0,2
41,115,2,167,2
6,54,2,49,2
180,87,2,39,2
39,93,2,113,2
98,127,2,55,2
95,273,2,125,2
167,225,2,81,2
240,266,2,0,2
22,11,2,18,2
360,302,2,0,2
331,297,2,11,2
103,52,2,277,2
203,78,2,137,2
242,204,2,327,2
205,70,2,71,2
55,72,2,151,2
16,135,2,329,2
99,79,2,216,2
65,46,2,124,2
27,62,2,128,2
17,43,2,63,2
11,24,2,39,2
56,114,2,120,2
345,163,2,67,2
36,134,2,45,2
133,183,2,201,2
122,61,2,77,2
175,149,2,589,2
148,70,2,476,2
23,93,2,475,2
149,95,2,189,2
115,170,2,226,2
74,11,2,248,2
276,238,2,13,2
22,43,2,440,2
95,51,2,141,2
71,79,2,259,2
22,19,2,332,2
85,200,2,64,2
129,62,2,466,2
83,9,2,20,2
71,197,2,302,2
461,191,2,141,2
100,188,2,242,2
192,220,2,131,2
170,32,3,297,2
338,289,2,150,2
79,17,2,220,2
75,44,2,338,2
174,56,2,123,2
76,134,2,570,2
431,125,2,493,2
130,122,2,126,2
374,283,2,74,2
13,98,2,228,2
271,95,2,55,2
60,161,2,26,2
29,62,2,22,2
6,236,2,69,2
18,173,2,109,2
167,124,2,157,2
241,196,2,0,2
405,234,2,266,2
85,43,2,415,2
101,96,2,384,2
270,233,2,681,2
418,159,2,368,2
702,546,2,321,2
42,49,2,169,2
27,11,2,219,2
369,307,2,389,2
50,160,2,352,2
427,111,2,373,2
323,305,2,55,2
131,115,2,394,2
572,373,2,352,2
112,202,2,376,2
37,62,2,149,2
193,43,2,211,2
237,177,2,479,2
25,75,2,1,2
342,308,2,381,2
8,97,2,329,2
53,7,2,107,2
46,29,2,59,2
105,18,2,24,2
3,190,2,65,2
200,101,2,0,2
349,146,2,296,2
70,208,2,18,2
135,344,2,196,2
20,145,2,84,2
50,205,2,566,2
76,100,2,304,2
151,99,2,386,2
362,101,2,385,2
68,140,2,0,2
96,66,2,273,2
7,99,2,44,2
91,18,2,226,2
167,83,2,726,2
160,142,2,24,2
124,40,2,408,2
401,284,2,245,2
122,47,2,446,2
238,145,2,5,2
29,86,3,701,2
205,23,2,507,2
150,11,2,11,2
29,10,2,193,2
39,117,2,11,2
343,206,2,187,2
75,44,2,394,2
264,180,2,100,2
110,126,2,598,2
3,126,2,34,2
300,9,3,1023,2
685,490,2,600,2
258,111,213,562,2
298,203,70,419,2
125,61,8,387,2
153,294,1,734,2
113,93,2,414,2
261,463,2,457,2
319,264,2,85,2
292,178,2,354,2
184,308,2,19,2
207,121,2,510,2
445,89,2,464,2
320,128,2,174,2
386,227,2,8,2
189,117,2,232,2
6,38,3,397,2
63,265,2,264,2
325,290,2,540,2
87,52,2,736,2
304,44,2,153,2
400,294,3,1008,2
80,74,1,219,2
104,126,2,1008,2
128,242,1,58,2
118,237,2,677,2
599,202,2,192,2
268,220,2,838,2
18,225,2,311,2
13,6,2,88,2
310,11,2,48,2
335,173,2,191,2
228,94,2,92,2
56,157,2,417,2
332,103,2,377,2
47,24,2,214,2
257,132,2,260,2
264,142,2,177,2
369,276,2,90,2
110,259,2,309,2
4,27,2,344,2
243,171,2,361,2
354,331,2,201,2
26,38,2,423,2
221,42,2,101,2
204,32,2,560,2
558,157,2,611,2
261,254,40,326,2
317,63,14,648,2
238,182,1,574,2
177,305,1,398,2
178,309,2,751,2
158,191,2,162,2
152,36,2,425,2
175,111,2,620,2
191,88,2,357,2
303,175,2,346,2
67,149,2,311,2
460,18,3,633,2
227,27,2,263,2
125,101,3,1023,2
432,307,2,481,2
91,211,2,11,2
0,35,2,694,2
348,398,1,17,2
63,95,2,528,2
169,22,2,254,2
163,136,2,113,2
400,126,2,127,2
229,31,2,25,2
91,106,2,657,2
89,19,2,915,2
381,178,2,824,2
350,201,2,9,2
318,222,2,247,2
123,90,2,419,2
295,352,2,76,2
35,65,3,772,2
209,54,2,46,2
251,500,606,1023,2
83,92,155,541,2
51,127,59,1023,2
212,217,102,513,2
182,42,14,869,2
296,349,1,179,2
82,266,3,1003,2
268,112,2,499,2
471,539,2,484,2
77,57,2,223,2
685,648,2,19,2
159,102,2,86,2
642,386,2,366,2
307,179,2,683,2
436,295,2,129,2
446,291,2,127,2
317,19,3,943,2
627,232,2,633,2
371,282,3,313,2
201,171,1,663,2
57,286,1,699,2
243,108,181,436,2
142,52,565,1023,2
208,114,123,1023,2
285,84,20,782,2
45,102,1,27,2
14,45,2,340,2
125,132,2,123,2
82,153,2,299,2
76,147,2,470,2
6,164,2,367,2
14,12,2,96,2
5,75,3,565,2
134,231,2,141,2
156,119,2,227,2
333,179,2,653,2
132,19,2,24,2
29,118,2,197,2
82,30,2,47,2
70,60,2,70,2
27,105,2,0,2
211,193,2,279,2
93,62,2,22,2
131,59,2,122,2
135,113,2,159,2
175,98,2,109,2
51,10,2,163,2
16,45,2,220,2
176,124,2,135,2
14,132,2,207,2
295,83,2,75,2
55,58,2,37,2
170,224,2,729,2
26,26,2,379,2
192,96,2,502,2
105,68,2,25,2
417,412,2,0,2
74,31,2,509,2
76,112,2,134,2
107,72,2,26,2
114,92,2,103,2
266,320,2,58,2
182,248,2,271,2
59,112,2,297,2
32,50,2,208,2
139,258,2,0,2
16,53,2,27,2
251,385,2,118,2
147,44,2,229,2
197,227,2,455,2
107,130,3,1023,2
463,567,1,82,2
206,120,2,576,2
199,199,2,57,2
91,189,2,82,2
97,140,2,433,2
99,182,2,90,2
211,137,2,719,2
246,269,2,11,2
109,8,2,607,2
317,111,2,116,2
122,71,2,147,2
1,144,2,668,2
217,122,2,283,2
430,310,2,127,2
77,170,2,14,2
94,185,2,493,2
32,257,2,599,2
289,295,2,187,2
83,224,2,52,2
8,42,2,174,2
19,73,2,549,2
196,156,2,383,2
255,313,2,155,2
14,8,3,584,2
314,306,2,176,2
86,151,2,334,2
58,27,2,342,2
57,107,2,496,2
407,206,2,706,2
448,221,2,223,2
70,335,2,537,2
32,17,2,117,2
20,58,2,487,2
287,160,2,72,2
19,76,2,172,2
12,118,3,815,2
218,269,1,12,2
126,215,2,577,2
27,40,2,151,2
3,123,2,235,2
45,171,2,379,2
16,103,2,469,2
109,89,2,352,2
92,92,2,311,2
37,155,2,31,2
110,135,2,215,2
8,56,2,165,2
5,63,2,141,2
76,132,2,3,2
31,144,2,124,2
59,70,2,39,2
128,132,2,214,2
101,101,2,79,2
155,281,2,355,2
181,49,2,376,2
299,315,2,299,2
56,11,2,61,2
219,326,2,337,2
65,194,2,318,2
201,191,2,108,2
103,99,2,240,2
56,37,2,405,2
36,55,2,75,2
192,125,2,21,2
263,18,3,243,2
6,246,3,561,2
89,10,2,338,2
231,251,2,166,2
189,73,2,159,2
27,84,3,836,2
296,249,2,267,2
379,382,2,316,2
107,288,2,293,2
47,49,2,78,2
30,63,2,159,2
70,6,2,204,2
80,211,2,68,2
102,223,2,154,2
51,97,2,365,2
287,445,2,130,2
61,106,2,436,2
147,108,2,107,2
51,40,2,176,2
170,161,2,244,2
297,187,2,368,2
53,124,2,11,2
57,109,2,93,2
32,9,2,278,2
94,15,2,74,2
4,46,2,301,2
86,190,2,91,2
127,302,2,266,2
66,79,2,89,2
213,241,2,158,2
187,69,2,225,2
68,152,2,75,2
205,174,2,251,2
154,71,2,14,2
8,25,2,13,2
146,192,2,87,2
274,268,2,194,2
113,90,2,76,2
54,73,2,240,2
8,59,2,176,2
90,111,2,238,2
73,87,2,172,2
38,118,2,71,2
29,25,2,192,2
273,220,2,134,2
96,77,2,76,2
36,36,2,20,2
126,56,2,87,2
30,7,2,72,2
73,67,2,238,2
66,180,2,205,2
20,57,2,5,2
34,72,2,181,2
87,155,2,137,2
6,43,2,165,2
111,31,2,276,2
41,79,2,0,2
156,75,2,178,2
338,210,2,129,2
62,219,2,129,2
163,159,2,97,2
171,197,2,47,2
142,146,2,131,2
203,143,2,107,2
36,54,2,131,2
111,146,2,27,2
23,21,2,141,2
72,125,2,79,2
68,155,2,225,2
130,39,2,91,2
105,161,2,134,2
42,220,2,21,2
115,68,2,18,2
35,63,2,0,2
90,21,2,0,2
113,142,2,20,2
48,20,2,162,2
106,145,2,179,2
9,46,2,248,2
14,49,2,48,2
104,157,2,88,2
12,53,2,251,2
166,128,2,17,2
141,157,2,180,2
160,14,2,1,2
136,197,2,106,2
24,34,2,230,2
223,167,2,12,2
112,187,2,229,2
95,41,2,167,2
144,166,2,59,2
16,36,2,42,2
84,141,2,163,2
31,91,2,33,2
15,9,2,125,2
81,63,2,101,2
28,71,2,158,2
4,69,2,52,2
11,44,2,178,2
35,49,2,32,2
181,187,2,160,2
65,123,2,124,2
102,133,2,147,2
63,191,2,98,2
80,72,3,68,2
68,66,2,76,2
8,15,2,19,2
4,8,2,85,2
111,133,2,200,2
186,154,2,110,2
198,197,1,72,2
58,68,2,70,2
70,47,2,62,2
61,74,2,75,2
18,13,2,56,2
71,129,2,4,2
34,31,2,98,2
135,150,2,0,2
14,64,2,60,2
73,45,2,56,2
41,40,2,84,2
161,136,2,74,2
145,95,2,0,2
127,159,2,48,2
89,89,2,143,2
25,48,2,0,2
136,155,2,123,2
11,44,2,31,2
184,187,2,82,2
94,55,2,17,2
157,183,2,22,2
51,54,2,36,2
156,167,2,28,2
96,70,2,40,2
252,271,2,11,2
372,414,2,6,2
58,37,2,64,2
315,295,2,44,2
64,37,2,18,2
20,15,2,99,2
51,52,2,0,2
74,106,2,70,2
25,8,2,0,2
157,155,2,49,2
49,17,2,0,2
72,62,2,0,2
56,33,2,115,2
67,30,2,0,2
1,58,2,41,2
36,55,2,18,2
53,97,2,22,2
10,64,2,55,2
13,40,2,57,2
127,101,2,73,2
186,263,2,18,2
88,61,2,71,2
163,227,2,83,2
182,183,2,1,2
198,149,2,93,2
67,78,2,53,2
43,72,2,27,2
163,121,2,39,2
87,24,2,13,2
12,22,2,28,2
96,14,2,49,2
10,7,2,39,2
170,135,2,132,2
17,24,2,49,2
10,41,2,62,2
13,50,2,96,2
11,11,2,162,2
190,179,2,93,2
62,8,2,134,2
163,168,2,53,2
47,33,2,65,2
5,21,2,25,2
116,179,2,71,2
162,145,2,11,2
55,62,2,169,2
50,15,2,25,2
83,123,2,236,2
77,105,2,110,2
76,102,2,0,2
27,38,1,119,2
38,8,2,93,2
7,126,2,0,2
42,72,2,148,2
0,6,2,171,2
20,44,2,145,2
25,58,2,66,2
10,15,2,66,2
128,104,2,10,2
112,75,2,228,2
126,178,2,63,2
223,247,2,235,2
113,167,2,129,2
13,58,2,146,2
61,70,2,68,2
40,82,2,162,2
144,230,2,83,2
50,36,2,31,2
43,49,2,87,2
119,191,2,165,2
103,105,2,53,2
161,137,2,231,2
57,44,2,5,2
49,21,2,391,2
45,22,2,82,2
114,140,2,435,2
126,70,2,82,2
211,171,2,396,2
39,115,2,58,2
81,137,2,241,2
94,73,2,43,2
137,156,2,48,2
48,126,2,125,2
165,174,2,74,2
87,31,2,4,2
118,97,2,281,2
43,190,2,0,2
216,87,2,0,2
24,148,2,21,2
141,229,2,203,2
237,203,2,167,2
30,113,2,268,2
309,391,2,150,2
16,44,2,369,2
396,379,2,132,2
292,233,2,98,2
214,189,2,485,2
193,173,2,83,2
9,59,2,150,2
1,8,2,297,2
46,49,2,295,2
126,129,2,462,2
234,258,2,159,2
92,134,2,384,2
550,330,2,374,2
151,22,2,41,2
144,121,2,112,2
10,37,2,91,2
146,161,2,86,2
205,36,2,257,2
219,52,2,163,2
44,18,2,1,2
99,172,2,154,2
40,6,2,184,2
201,100,2,494,2
120,56,2,329,2
5,204,2,352,2
95,427,2,299,2
297,307,2,166,2
36,104,2,339,2
46,227,2,226,2
9,54,2,423,2
44,34,2,66,2
69,15,2,125,2
163,104,2,55,2
108,147,2,201,2
34,158,2,218,2
32,10,2,135,2
39,43,2,366,2
104,125,2,64,2
381,266,3,707,2
4,79,2,73,2
154,134,2,607,2
555,421,1,22,2
95,177,2,786,2
174,18,2,137,2
132,244,2,561,2
20,32,2,183,2
111,129,2,253,2
89,17,2,201,2
103,13,2,27,2
15,217,2,63,2
87,168,2,299,2
52,6,2,176,2
58,54,2,567,2
196,201,2,371,2
195,48,2,731,2
309,215,2,157,2
151,165,2,154,2
259,305,2,158,2
173,395,2,12,2
524,352,2,163,2
0,113,2,250,2
31,30,2,151,2
104,165,2,56,2
25,129,2,201,2
82,98,2,325,2
30,127,2,315,2
187,80,2,441,2
110,35,2,500,2
635,157,2,598,2
81,46,2,75,2
300,211,2,685,2
246,152,2,177,2
92,86,3,991,2
225,92,2,424,2
209,16,2,805,2
383,330,233,703,2
11,124,82,1023,2
276,269,352,775,2
8,96,109,1023,2
42,236,387,1017,2
493,121,78,1023,2
282,175,111,46,2
115,135,18,620,2
4,81,1,699,2
205,134,2,250,2
133,41,2,210,2
42,26,3,160,2
239,179,2,182,2
144,274,2,127,2
41,248,2,4,2
30,133,2,360,2
232,10,2,10,2
50,76,2,111,2
379,22,2,390,2
268,229,2,336,2
239,242,2,140,2
157,273,2,159,2
10,82,2,67,2
103,80,2,277,2
471,352,2,348,2
393,334,2,51,2
4,283,2,87,2
98,410,2,282,2
293,11,2,255,2
249,178,2,294,2
133,251,2,435,2
109,39,2,870,2
187,49,2,518,2
182,236,1,241,2
397,177,2,438,2
104,148,2,295,2
178,58,2,305,2
362,220,2,251,2
36,34,2,226,2
257,251,2,866,2
608,241,2,638,2
16,176,24,1023,2
610,428,35,764,2
320,330,4,382,2
119,77,2,795,2
159,197,1,27,2
113,74,2,232,2
244,314,2,40,2
79,35,2,358,2
237,24,268,1023,2
282,179,116,308,2
23,130,421,1023,2
616,361,202,1023,2
603,185,386,569,2
348,205,95,512,2
306,109,12,399,2
213,336,1,42,2
100,72,612,1023,2
550,425,218,812,2
448,536,284,901,2
28,203,140,939,2
182,86,22,165,2
392,139,1,129,2
145,69,2,145,2
106,54,55,492,2
346,145,8,1019,2
559,476,1,1023,2
266,107,1,606,2
239,405,247,866,2
450,142,442,1023,2
728,481,291,105,2
324,94,59,1023,2
165,346,145,89,2
38,135,22,876,2
310,69,1,143,2
484,392,2,867,2
24,57,3,1012,2
314,263,1,711,2
301,37,537,1023,2
377,538,346,415,2
47,131,73,780,2
225,253,8,498,2
199,187,1,287,2
41,79,2,168,2
39,203,2,0,2
625,220,3,82,2
443,257,3,462,2
17,164,2,664,2
163,237,2,450,2
72,99,2,704,2
107,243,2,185,2
36,304,2,0,2
227,118,2,240,2
109,66,2,519,2
13,86,2,281,2
143,292,2,340,2
305,417,2,384,2
336,114,2,212,2
494,75,3,957,2
295,139,2,733,2
564,274,1,290,2
20,9,2,995,2
302,36,2,610,2
178,108,276,776,2
310,87,416,1023,2
514,340,407,181,2
4,133,314,1023,2
524,390,303,526,2
181,251,530,1023,2
553,318,221,116,2
230,188,280,1023,2
414,223,116,230,2
223,159,19,772,2
538,57,1,290,2
186,171,2,225,2
99,41,2,248,2
183,7,3,206,2
87,21,3,559,2
132,162,2,473,2
68,57,2,494,2
175,30,3,466,2
16,29,2,138,2
166,43,2,87,2
134,167,2,373,2
19,263,2,216,2
104,78,2,15,2
137,25,2,0,2
43,77,2,117,2
175,80,2,190,2
193,107,2,67,2
35,10,2,313,2
157,104,2,529,2
233,99,2,170,2
177,178,2,624,2
220,182,2,258,2
1,98,2,264,2
172,94,2,1023,2
443,13,2,480,2
182,369,5,649,2
321,90,1,181,2
111,126,2,43,2
4,36,2,218,2
5,25,2,43,2
147,83,2,386,2
143,91,2,261,2
22,13,2,345,2
7,129,2,374,2
187,109,2,57,2
105,78,2,129,2
123,50,2,127,2
67,72,2,155,2
90,198,2,163,2
85,66,2,309,2
490,279,2,430,2
504,402,2,193,2
295,221,2,574,2
229,173,2,242,2
273,217,2,101,2
15,12,2,179,2
161,310,2,362,2
120,33,2,304,2
12,135,2,171,2
222,201,2,595,2
146,191,2,345,2
303,173,2,746,2
71,179,2,33,2
18,58,2,314,2
52,85,2,66,2
52,179,2,315,2
78,170,2,357,2
13,181,2,264,2
246,346,2,360,2
111,173,2,517,2
34,134,2,131,2
1,19,2,449,2
368,135,2,153,2
336,262,2,225,2
0,100,2,255,2
75,86,2,277,2
209,187,2,276,2
67,34,2,1,2
113,131,2,0,2
130,62,2,466,2
183,92,2,119,2
309,173,2,241,2
65,162,2,441,2
405,19,2,279,2
77,219,2,361,2
255,319,2,317,2
65,131,2,33,2
32,32,2,614,2
134,275,2,261,2
182,95,2,367,2
130,55,2,198,2
215,221,2,410,2
39,33,2,193,2
514,323,2,119,2
192,170,2,77,2
252,97,2,589,2
371,234,3,782,2
236,203,2,376,2
395,20,3,1004,2
244,103,2,264,2
114,60,2,109,2
97,20,2,38,2
15,39,2,398,2
28,114,2,309,2
312,247,2,127,2
183,175,2,172,2
134,190,2,207,2
223,131,2,309,2
56,9,2,19,2
182,262,2,146,2
221,63,2,55,2
10,190,2,169,2
262,116,2,358,2
21,145,2,242,2
84,147,2,187,2
601,616,2,34,2
154,233,2,107,2
170,321,2,59,2
197,360,2,210,2
298,245,2,0,2
5,219,2,83,2
161,159,2,106,2
258,161,2,182,2
98,236,2,133,2
67,127,2,129,2
368,321,2,18,2
394,350,2,0,2
164,181,2,172,2
142,30,2,500,2
136,224,2,138,2
19,161,2,414,2
0,38,2,156,2
65,97,2,195,2
125,247,2,365,2
356,221,2,157,2
457,413,2,308,2
13,38,2,368,2
66,35,2,118,2
211,251,2,99,2
38,60,2,21,2
312,278,2,245,2
52,82,2,175,2
162,148,2,172,2
4,24,2,118,2
37,30,2,196,2
9,40,2,162,2
147,58,2,96,2
10,128,2,417,2
83,116,2,407,2
56,108,2,254,2
98,10,2,440,2
13,22,2,246,2
77,115,2,142,2
158,80,2,134,2
242,196,2,54,2
29,21,2,107,2
163,96,2,58,2
68,173,2,32,2
167,224,2,214,2
152,131,2,345,2
42,56,2,387,2
29,82,2,234,2
68,108,2,11,2
13,66,2,311,2
2,31,2,53,2
288,260,2,319,2
337,291,2,183,2
174,88,2,13,2
46,44,2,0,2
176,26,2,95,2
127,106,2,130,2
179,156,2,148,2
91,188,2,18,2
45,109,2,173,2
226,234,2,267,2
49,82,2,182,2
150,317,2,149,2
245,148,2,195,2
159,158,2,54,2
39,8,2,80,2
15,79,2,85,2
90,91,2,73,2
37,83,2,155,2
119,160,2,85,2
58,135,2,222,2
38,38,2,6,2
52,118,2,163,2
214,215,2,7,2
127,292,2,44,2
247,279,2,188,2
376,330,2,183,2
170,195,2,56,2
12,64,2,16,2
73,87,2,197,2
84,103,2,132,2
32,78,2,114,2
58,41,2,101,2
244,326,2,65,2
155,111,2,11,2
7,41,2,83,2
46,26,2,25,2
31,37,2,55,2
239,252,2,44,2
8,84,2,53,2
109,126,2,25,2
24,45,2,57,2
64,80,2,122,2
147,179,2,100,2
15,7,2,245,2
207,245,2,17,2
90,163,2,101,2
3,36,2,25,2
25,92,2,29,2
165,133,2,57,2
197,238,2,13,2
330,384,2,0,2
42,62,2,60,2
111,135,2,54,2
57,24,2,77,2
44,11,2,46,2
266,229,2,82,2
15,67,2,62,2
165,192,2,0,2
137,125,2,10,2
3,31,2,99,2
386,436,2,138,2
23,38,2,0,2
50,78,2,0,2
96,81,2,38,2
135,112,2,0,2
34,45,2,93,2
124,150,2,17,2
376,422,2,9,2
135,199,2,112,2
230,272,2,15,2
353,430,2,62,2
24,7,2,28,2
160,158,2,22,2
0,15,2,52,2
91,20,2,0,2
120,106,2,22,2
50,120,2,68,2
43,152,2,21,2
51,51,2,85,2
52,57,2,1,2
73,29,2,48,2
58,50,2,15,2
51,25,2,62,2
79,105,2,0,2
134,128,2,44,2
27,14,2,13,2
82,45,2,69,2
19,29,2,0,2
28,39,2,20,2
34,33,2,25,2
142,148,2,25,2
107,175,2,73,2
23,87,2,10,2
102,118,2,49,2
37,6,2,43,2
18,76,2,64,2
65,19,2,6,2
3,97,2,23,2
7,27,2,105,2
157,80,2,26,2
51,75,2,110,2
43,33,2,0,2
88,47,2,27,2
117,64,2,78,2
43,104,2,23,2
47,165,2,94,2
250,218,2,0,2
155,160,2,5,2
58,15,2,100,2
162,137,2,7,2
49,58,2,51,2
49,46,2,60,2
87,73,2,0,2
111,138,2,97,2
84,109,2,0,2
30,48,2,60,2
32,13,2,5,2
39,75,2,0,2
41,12,2,103,2
100,54,2,0,2
21,40,2,70,2
73,158,2,111,2
206,208,2,21,2
168,139,2,200,2
1,35,2,27,2
84,88,2,79,2
110,60,2,0,2
3,22,2,0,2
7,35,2,155,2
71,8,2,10,2
20,11,2,73,2
345,337,2,49,2
104,117,2,18,2
89,136,2,103,2
40,114,2,11,2
69,185,2,53,2
10,20,2,71,2
62,99,2,21,2
5,26,2,79,2
42,88,2,0,2
63,32,2,72,2
45,34,2,29,2
128,187,2,13,2
9,13,2,12,2
39,36,2,237,2
140,164,2,122,2
142,223,2,338,2
7,12,2,176,2
48,95,2,132,2
75,27,2,61,2
62,27,2,8,2
125,179,2,51,2
29,90,2,67,2
3,46,2,112,2
23,109,2,37,2
65,47,2,168,2
27,79,2,47,2
84,56,2,0,2
73,141,2,0,2
13,122,2,59,2
48,96,2,0,2
163,86,2,0,2
214,275,2,95,2
146,85,2,135,2
340,363,2,88,2
206,243,2,179,2
139,112,2,26,2
49,20,2,1,2
192,263,2,47,2
124,88,2,109,2
8,29,2,3,2
44,135,2,216,2
14,50,2,66,2
114,42,2,139,2
55,15,2,51,2
30,16,2,54,2
7,130,2,141,2
100,90,2,197,2
134,67,2,160,2
52,89,2,0,2
126,114,2,0,2
72,135,2,60,2
158,138,2,86,2
19,41,2,185,2
74,23,2,20,2
145,175,2,375,2
72,25,2,0,2
124,167,2,498,2
68,28,2,47,2
183,115,2,119,2
127,103,2,173,2
94,244,2,20,2
109,189,2,2,2
34,68,3,557,2
0,15,2,186,2
24,134,2,660,2
277,101,2,48,2
156,121,2,621,2
288,221,2,383,2
114,134,2,550,2
10,94,2,25,2
38,244,2,78,2
190,50,2,73,2
66,33,2,559,2
347,503,2,267,2
45,196,2,426,2
200,69,2,68,2
269,221,2,1,2
93,254,2,355,2
122,220,2,40,2
145,6,2,389,2
239,146,2,0,2
44,84,2,297,2
35,69,2,117,2
4,14,2,103,2
171,29,2,1,2
142,36,2,21,2
155,38,2,32,2
1,137,2,129,2
384,263,2,88,2
104,112,2,364,2
213,149,2,324,2
10,29,2,412,2
149,16,2,333,2
73,301,2,499,2
162,53,2,56,2
228,92,2,757,2
327,235,2,137,2
85,22,2,461,2
412,370,2,134,2
39,66,2,63,2
75,239,2,248,2
185,50,2,195,2
24,107,2,8,2
172,191,2,471,2
162,183,2,348,2
130,300,3,879,2
342,155,2,36,2
63,54,2,772,2
311,435,2,27,2
14,234,2,541,2
45,167,2,163,2
237,143,2,57,2
141,186,2,58,2
149,98,2,147,2
88,106,2,278,2
452,300,2,427,2
148,79,3,851,2
32,62,2,380,2
8,25,2,569,2
36,19,2,174,2
212,28,2,250,2
172,14,2,450,2
313,162,2,482,2
265,73,2,92,2
11,143,2,513,2
311,15,2,226,2
29,12,2,257,2
47,121,2,232,2
333,77,2,61,2
312,181,2,235,2
32,11,3,859,2
56,164,2,8,2
341,165,3,1020,2
275,130,2,71,2
229,300,2,630,2
260,325,2,28,2
62,550,2,231,2
310,191,2,151,2
96,171,2,335,2
155,321,2,250,2
142,95,2,544,2
46,69,2,167,2
51,63,2,439,2
297,298,2,472,2
63,130,2,18,2
185,204,2,412,2
21,230,2,95,2
316,433,2,552,2
308,128,2,129,2
19,205,2,536,2
169,82,2,341,2
97,250,2,20,2
294,114,2,9,2
104,180,2,201,2
349,109,3,272,2
209,29,2,365,2
107,142,2,113,2
229,188,3,757,2
88,208,2,84,2
209,135,2,537,2
273,95,2,182,2
330,337,1,121,2
34,35,3,852,2
479,424,2,121,2
209,227,2,955,2
488,242,2,316,2
14,9,2,794,2
278,10,2,656,2
530,101,2,314,2
402,226,2,648,2
35,200,2,482,2
113,138,2,631,2
110,38,2,36,2
83,51,2,187,2
20,95,2,158,2
320,50,2,224,2
84,227,2,121,2
274,337,2,77,2
448,481,2,187,2
177,216,2,60,2
213,169,2,135,2
464,129,2,815,2
446,442,2,185,2
91,242,2,1023,2
194,42,2,183,2
264,192,2,471,2
103,63,2,350,2
267,260,2,255,2
52,67,2,525,2
2,75,2,1,2
18,14,3,775,2
125,219,2,162,2
95,70,3,696,2
17,221,2,410,2
262,302,2,525,2
215,161,2,580,2
359,360,2,22,2
115,312,2,26,2
106,90,2,240,2
37,103,2,288,2
48,106,2,25,2
124,181,2,160,2
323,266,2,407,2
334,156,2,242,2
116,137,2,298,2
375,462,2,368,2
32,105,2,500,2
218,187,2,334,2
187,163,625,1023,2
287,109,217,164,2
108,176,61,1023,2
139,33,136,799,2
13,127,21,928,2
386,174,1,722,2
10,81,77,729,2
105,37,17,443,2
40,112,1,154,2
49,208,635,1023,2
565,31,107,830,2
228,121,321,710,2
169,109,113,397,2
35,11,16,203,2
293,336,1,360,2
164,260,2,524,2
660,191,3,549,2
33,228,2,425,2
335,205,2,544,2
465,283,2,294,2
1,196,2,337,2
368,111,2,351,2
131,106,2,304,2
148,132,2,65,2
121,209,2,224,2
201,19,2,280,2
70,125,2,202,2
706,656,2,376,2
405,237,2,236,2
40,68,2,67,2
211,78,2,251,2
7,39,2,208,2
102,30,3,481,2
44,67,2,114,2
409,201,159,1023,2
744,406,15,292,2
57,127,1,204,2
62,39,2,207,2
73,72,633,1023,2
278,309,159,752,2
474,325,29,282,2
696,670,1,404,2
103,230,2,703,2
51,25,2,298,2
350,51,3,358,2
625,510,3,844,2
165,72,2,462,2
7,150,613,1023,2
536,275,152,696,2
313,306,312,704,2
71,91,109,708,2
275,257,108,12,2
16,119,23,424,2
135,111,2,320,2
242,74,2,365,2
143,55,2,100,2
74,71,2,170,2
45,40,3,245,2
73,9,2,109,2
34,54,2,14,2
91,56,2,286,2
3,49,2,42,2
56,42,3,411,2
170,58,2,67,2
77,7,2,169,2
50,23,2,57,2
172,19,2,506,2
139,37,2,161,2
177,53,2,175,2
142,219,2,36,2
25,10,2,560,2
200,191,2,60,2
205,261,2,390,2
210,245,2,493,2
71,114,2,393,2
25,86,2,204,2
11,58,2,7,2
44,32,2,247,2
82,17,2,0,2
49,69,2,228,2
137,29,2,135,2
92,79,2,291,2
35,97,2,194,2
30,16,3,269,2
207,330,2,76,2
378,151,2,473,2
81,301,2,37,2
262,445,2,505,2
60,36,2,41,2
171,250,2,34,2
10,49,2,242,2
13,131,2,145,2
90,245,2,682,2
239,138,2,144,2
113,39,3,798,2
8,240,2,664,2
59,55,2,256,2
7,127,2,556,2
299,145,2,289,2
295,121,2,0,2
198,142,2,49,2
44,59,2,186,2
110,76,2,66,2
226,161,2,492,2
200,56,2,4,2
77,98,2,605,2
35,115,2,0,2
116,123,2,3,2
7,85,2,125,2
83,139,2,279,2
5,40,2,4,2
63,243,2,115,2
200,190,2,226,2
293,88,2,268,2
189,56,2,18,2
196,16,3,650,2
391,374,2,72,2
200,431,2,510,2
202,75,2,41,2
74,135,2,212,2
124,107,2,298,2
237,55,3,620,2
147,142,2,122,2
48,78,2,61,2
300,66,2,267,2
264,110,2,123,2
275,42,2,21,2
71,146,2,237,2
146,89,2,253,2
46,37,2,18,2
197,81,3,615,2
150,111,2,281,2
130,22,2,73,2
194,96,2,148,2
21,89,2,57,2
188,41,2,220,2
199,211,2,269,2
244,95,2,720,2
115,119,2,296,2
301,23,3,942,2
785,413,1,82,2
605,653,2,224,2
110,55,2,135,2
224,30,2,177,2
12,110,2,56,2
58,13,2,528,2
230,10,2,482,2
9,70,2,274,2
47,86,2,312,2
208,94,2,251,2
150,73,2,196,2
153,8,2,90,2
112,22,2,23,2
361,337,2,19,2
81,230,2,157,2
90,15,2,276,2
81,270,2,719,2
344,129,2,280,2
13,61,2,437,2
195,216,2,197,2
198,26,2,339,2
190,164,2,306,2
34,27,2,175,2
103,138,2,353,2
187,149,2,148,2
196,166,2,6,2
194,197,2,78,2
33,18,2,118,2
16,26,2,226,2
4,86,2,77,2
49,40,2,531,2
261,172,2,84,2
95,54,2,160,2
10,14,2,208,2
9,28,2,70,2
138,71,2,531,2
51,67,2,120,2
42,85,2,73,2
155,129,2,158,2
79,69,2,103,2
50,84,2,39,2
5,17,2,182,2
166,92,2,18,2
144,110,2,68,2
55,143,2,156,2
52,157,2,154,2
165,310,2,276,2
122,88,2,198,2
30,26,2,320,2
44,81,2,121,2
18,10,2,257,2
110,238,2,10,2
100,7,2,148,2
104,152,2,23,2
137,217,2,2,2
354,285,2,241,2
109,119,2,118,2
95,114,2,278,2
3,7,2,14,2
17,134,2,80,2
170,134,2,261,2
33,83,2,85,2
7,6,2,235,2
48,53,2,36,2
54,26,2,27,2
41,59,2,188,2
45,152,2,296,2
60,120,2,49,2
88,161,2,292,2
23,133,2,365,2
131,133,2,56,2
35,37,2,209,2
88,117,2,50,2
7,23,2,113,2
115,69,2,53,2
139,143,2,59,2
55,40,2,53,2
145,121,2,102,2
76,85,2,48,2
13,51,2,105,2
118,193,2,19,2
96,81,2,99,2
119,111,2,0,2
139,74,2,159,2
97,95,2,38,2
6,69,2,105,2
210,187,2,15,2
45,64,2,160,2
425,385,2,0,2
3,50,2,124,2
336,251,2,7,2
159,265,2,10,2
15,75,2,103,2
324,201,2,118,2
120,144,2,0,2
198,104,2,146,2
87,98,2,103,2
77,103,2,53,2
187,88,2,22,2
250,269,2,59,2
83,126,2,2,2
79,86,2,15,2
244,247,2,14,2
127,152,2,16,2
10,18,2,13,2
50,29,2,111,2
79,95,2,0,2
56,32,2,81,2
107,59,2,25,2
100,79,2,153,2
131,118,2,3,2
75,71,2,29,2
27,11,2,0,2
239,256,2,20,2
54,9,2,105,2
12,25,2,30,2
220,225,2,136,2
226,185,2,10,2
12,33,2,145,2
66,165,2,70,2
34,58,2,12,2
88,65,2,20,2
4,91,2,119,2
94,136,2,48,2
268,408,2,145,2
43,33,2,10,2
186,218,2,82,2
30,8,2,18,2
38,21,2,0,2
47,54,2,64,2
85,122,2,0,2
213,286,2,67,2
1,38,2,69,2
87,113,2,37,2
112,117,2,65,2
185,121,2,33,2
40,75,2,51,2
71,161,2,28,2
68,60,2,0,2
167,196,2,105,2
79,25,2,0,2
90,118,2,131,2
143,117,2,11,2
232,263,2,16,2
11,58,2,77,2
19,27,2,45,2
142,125,2,85,2
10,24,2,61,2
41,51,2,0,2
86,141,2,106,2
18,82,2,52,2
61,80,2,102,2
118,187,2,82,2
79,66,2,36,2
27,68,2,69,2
232,211,2,23,2
13,62,2,61,2
124,153,2,14,2
33,19,2,0,2
68,40,2,90,2
78,95,2,12,2
109,104,2,63,2
36,98,2,39,2
96,156,2,17,2
70,6,2,62,2
264,275,2,0,2
117,127,2,87,2
89,135,2,30,2
91,119,2,0,2
74,46,2,109,2
12,15,2,19,2
48,33,2,62,2
147,91,2,32,2
9,76,2,27,2
145,87,2,90,2
60,157,2,15,2
17,7,2,94,2
79,152,2,39,2
3,30,2,50,2
89,149,2,70,2
31,103,2,5,2
234,238,2,2,2
188,116,2,57,2
131,9,2,16,2
160,178,2,111,2
7,101,2,5,2
49,17,2,108,2
3,85,2,35,2
13,47,2,0,2
44,66,2,97,2
13,74,2,0,2
20,8,2,86,2
15,17,2,95,2
79,108,2,36,2
69,184,2,99,2
87,34,2,64,2
114,141,2,80,2
135,135,2,61,2
42,30,2,0,2
92,149,2,77,2
92,118,2,5,2
150,200,2,57,2
20,92,2,45,2
55,62,2,0,2
45,96,2,68,2
28,62,2,34,2
46,13,2,48,2
15,7,2,16,2
124,190,2,41,2
125,168,2,99,2
180,155,2,110,2
112,103,2,131,2
181,265,2,72,2
166,203,2,0,2
108,56,2,36,2
113,65,2,113,2
244,253,2,93,2
32,55,2,106,2
164,219,2,0,2
32,97,2,118,2
18,49,2,0,2
121,144,2,71,2
1,30,2,19,2
26,28,2,4,2
131,164,2,0,2
100,69,2,0,2
111,182,2,26,2
198,116,2,0,2
120,38,2,95,2
131,115,2,130,2
236,201,2,0,2
8,7,2,301,2
87,142,2,86,2
68,29,2,153,2
75,109,2,8,2
42,59,2,13,2
178,306,2,46,2
28,10,2,123,2
65,169,2,133,2
38,21,2,167,2
68,111,2,62,2
177,167,2,184,2
18,12,2,136,2
124,102,2,141,2
145,105,2,291,2
221,204,2,201,2
9,13,2,286,2
180,131,2,115,2
28,40,2,145,2
1,35,2,127,2
32,6,2,228,2
117,84,2,96,2
58,65,2,61,2
354,489,2,233,2
240,223,2,291,2
205,292,2,294,2
15,7,2,152,2
192,194,2,0,2
101,242,2,31,2
204,294,2,2,2
31,79,2,210,2
4,121,2,8,2
118,132,2,178,2
12,180,2,27,2
125,97,2,266,2
138,100,2,61,2
63,18,2,293,2
186,9,2,237,2
22,162,2,278,2
227,201,2,326,2
32,23,2,134,2
93,161,2,299,2
224,164,2,480,2
63,317,2,33,2
17,107,2,30,2
27,21,2,83,2
73,200,2,354,2
95,18,2,597,2
246,17,2,699,2
34,22,2,240,2
430,85,2,757,2
295,63,2,155,2
17,14,2,62,2
236,18,2,109,2
100,165,2,267,2
87,70,2,27,2
32,31,2,134,2
138,30,3,265,2
85,46,2,18,2
133,92,2,330,2
92,23,2,80,2
88,180,2,479,2
201,118,2,279,2
72,52,2,453,2
180,68,2,118,2
55,16,2,357,2
113,7,2,78,2
3,147,2,22,2
76,81,2,0,2
99,12,3,175,2
134,11,2,22,2
249,77,2,9,2
210,246,2,153,2
125,135,2,356,2
127,183,2,29,2
5,171,2,695,2
199,119,2,277,2
16,66,2,148,2
97,96,2,583,2
72,67,2,53,2
0,20,2,490,2
90,280,2,388,2
207,55,2,260,2
347,534,2,410,2
23,217,2,31,2
217,100,2,207,2
80,30,2,345,2
31,291,2,226,2
118,25,2,490,2
165,261,2,20,2
25,156,2,238,2
104,265,2,0,2
86,6,2,1,2
488,195,2,254,2
20,170,2,66,2
12,230,3,986,2
611,231,1,2,2
286,332,2,464,2
255,127,2,205,2
258,70,2,540,2
430,20,2,373,2
29,37,2,179,2
112,25,2,57,2
115,324,2,415,2
372,241,2,208,2
218,160,2,595,2
282,102,2,180,2
164,270,3,926,2
245,522,2,251,2
105,105,2,448,2
143,87,2,364,2
25,41,2,229,2
260,115,2,234,2
202,144,2,8,2
229,25,2,206,2
47,58,2,131,2
174,276,2,0,2
343,381,2,257,2
33,97,2,37,2
248,62,2,152,2
94,127,2,0,2
120,55,2,422,2
260,122,2,366,2
223,50,3,1023,2
95,175,2,897,2
290,296,2,216,2
8,111,2,376,2
139,8,2,127,2
55,180,3,657,2
121,46,2,139,2
426,444,2,334,2
76,15,2,587,2
314,47,2,299,2
101,43,2,72,2
11,159,2,465,2
11,227,2,716,2
210,293,2,556,2
188,245,2,232,2
68,13,2,199,2
344,61,2,57,2
239,28,2,40,2
254,240,2,388,2
159,289,2,276,2
34,73,2,92,2
41,67,2,722,2
132,370,56,398,2
65,80,11,827,2
373,89,1,613,2
740,352,2,485,2
289,48,2,672,2
121,185,2,384,2
439,97,2,730,2
508,356,2,22,2
329,266,2,924,2
144,197,2,94,2
69,72,2,26,2
153,53,2,443,2
174,72,2,559,2
158,15,2,204,2
17,46,2,93,2
98,299,2,479,2
90,73,2,396,2
218,94,2,575,2
201,14,2,60,2
26,167,2,192,2
126,76,2,53,2
115,219,2,314,2
52,148,2,120,2
328,156,2,0,2
84,220,2,383,2
100,154,2,237,2
359,307,2,199,2
103,156,2,23,2
541,430,2,584,2
200,215,2,408,2
72,12,2,15,2
49,282,2,594,2
184,39,2,82,2
188,166,2,121,2
41,214,2,402,2
317,142,2,152,2
73,85,2,0,2
102,25,2,35,2
112,243,2,321,2
115,7,2,460,2
516,293,2,12,2
343,419,2,53,2
39,317,2,391,2
205,51,2,56,2
3,343,2,292,2
71,156,2,211,2
101,43,2,299,2
179,147,3,103,2
136,84,2,0,2
111,74,2,498,2
159,179,2,312,2
179,351,2,333,2
24,29,2,228,2
227,218,2,300,2
285,341,2,40,2
190,379,2,42,2
237,194,2,249,2
26,37,2,75,2
282,36,2,395,2
73,98,2,25,2
243,10,563,1023,2
135,219,158,246,2
21,21,29,804,2
222,246,2,404,2
165,249,2,1023,2
48,167,1,208,2
46,117,2,821,2
368,257,2,683,2
94,169,2,847,2
83,49,1,56,2
150,149,2,110,2
186,143,2,396,2
106,182,3,962,2
436,247,2,168,2
286,73,2,471,2
161,179,2,381,2
234,31,3,849,2
57,22,1,118,2
60,87,2,340,2
168,56,2,245,2
48,95,2,352,2
185,171,2,129,2
397,517,2,184,2
461,747,2,501,2
61,22,2,154,2
333,219,2,664,2
21,129,2,99,2
211,209,2,392,2
124,13,2,337,2
17,86,2,267,2
137,42,2,434,2
50,33,2,34,2
55,30,2,52,2
84,10,2,222,2
42,22,2,267,2
43,17,2,50,2
6,20,3,906,2
255,96,2,533,2
425,380,167,698,2
36,44,50,593,2
382,562,4,219,2
128,226,1,513,2
147,51,2,406,2
12,132,3,952,2
401,164,2,164,2
112,118,2,593,2
399,189,2,743,2
32,19,2,524,2
93,58,42,1023,2
101,34,104,639,2
408,874,15,235,2
71,368,1,50,2
410,443,2,48,2
97,216,2,504,2
31,251,2,304,2
545,58,2,282,2
649,487,2,82,2
38,18,2,303,2
15,124,2,235,2
289,48,2,556,2
228,25,2,42,2
106,22,2,364,2
260,119,2,347,2
248,96,2,155,2
70,146,2,215,2
266,49,2,0,2
197,55,2,323,2
258,122,2,433,2
224,144,2,282,2
25,163,2,247,2
158,64,2,190,2
446,72,2,282,2
268,180,2,187,2
176,14,2,316,2
84,18,2,34,2
447,234,2,86,2
92,88,2,69,2
354,146,2,186,2
311,91,2,398,2
131,245,2,81,2
52,133,2,234,2
292,355,2,270,2
111,120,2,377,2
208,143,2,139,2
217,197,2,87,2
48,119,2,0,2
52,155,2,536,2
96,80,2,100,2
109,16,2,570,2
213,129,2,129,2
153,257,2,0,2
6,68,2,305,2
9,169,2,169,2
29,114,2,86,2
160,270,2,445,2
128,186,2,0,2
29,60,2,278,2
37,125,2,335,2
9,28,2,52,2
114,61,2,317,2
3,120,2,318,2
37,66,2,191,2
234,150,2,207,2
10,50,2,321,2
223,33,2,94,2
81,239,2,179,2
93,152,2,224,2
154,153,2,386,2
10,12,2,90,2
140,134,2,112,2
175,223,2,556,2
105,22,2,309,2
43,50,2,690,2
5,61,2,289,2
154,200,2,0,2
198,99,2,0,2
261,195,2,13,2
84,170,2,59,2
346,149,2,327,2
251,116,2,74,2
178,198,2,576,2
120,43,2,48,2
5,9,2,428,2
309,203,2,53,2
174,20,2,2,2
11,74,2,452,2
205,136,2,0,2
28,130,2,305,2
133,130,2,10,2
49,76,2,108,2
4,181,2,134,2
28,42,2,493,2
172,264,2,26,2
75,75,2,353,2
161,118,2,0,2
259,234,2,52,2
102,63,2,61,2
105,52,2,389,2
75,12,2,41,2
37,50,2,227,2
3,15,2,262,2
159,35,2,110,2
123,50,2,261,2
152,88,2,63,2
62,50,2,146,2
26,113,2,57,2
39,48,2,211,2
122,56,2,81,2
56,57,2,55,2
44,13,2,226,2
220,171,2,1,2
122,39,2,375,2
157,60,2,109,2
85,30,2,142,2
21,62,2,273,2
80,183,2,206,2
45,75,2,52,2
37,18,2,111,2
26,28,2,91,2
125,131,2,175,2
160,211,2,327,2
7,161,2,57,2
67,338,2,173,2
84,82,2,76,2
5,56,2,84,2
268,173,2,57,2
115,146,2,0,2
167,49,2,189,2
137,10,2,98,2
5,58,2,64,2
183,146,2,292,2
82,113,2,227,2
278,231,2,63,2
161,214,2,156,2
109,210,2,116,2
17,95,2,16,2
30,35,2,268,2
153,91,2,9,2
171,149,2,164,2
33,15,2,110,2
111,27,2,64,2
125,105,2,40,2
161,205,2,93,2
51,110,2,28,2
55,32,2,130,2
9,19,2,107,2
1,27,2,129,2
79,87,2,87,2
9,46,2,51,2
23,65,2,17,2
420,407,2,23,2
72,152,2,110,2
85,84,2,92,2
178,174,2,0,2
48,130,2,47,2
104,54,2,193,2
161,208,2,53,2
42,96,2,105,2
76,89,2,153,2
47,46,2,4,2
135,97,2,33,2
45,89,2,61,2
21,85,2,18,2
45,59,2,0,2
68,163,2,178,2
253,241,2,61,2
299,411,2,159,2
114,78,2,16,2
17,69,2,7,2
81,87,2,15,2
13,25,2,68,2
212,204,2,92,2
163,132,2,2,2
28,47,2,20,2
93,115,2,35,2
34,27,2,0,2
78,71,2,71,2
95,39,2,52,2
37,110,2,68,2
43,108,2,53,2
39,24,2,46,2
121,170,2,80,2
158,231,2,21,2
192,169,2,27,2
3,38,2,95,2
60,20,2,62,2
37,45,2,57,2
198,293,2,68,2
44,59,2,5,2
104,137,2,70,2
135,149,2,24,2
42,70,2,105,2
150,192,2,55,2
96,36,2,14,2
28,5,3,78,2
40,63,2,7,2
7,6,2,87,2
96,98,2,42,2
13,15,2,53,2
44,62,2,47,2
169,94,2,22,2
168,216,2,99,2
108,14,2,0,2
99,54,2,34,2
42,97,2,76,2
49,49,2,10,2
117,149,2,90,2
14,34,2,35,2
128,131,2,64,2
73,115,2,47,2
227,206,2,12,2
1,6,3,76,2
226,279,2,53,2
294,378,2,0,2
43,20,2,83,2
178,213,2,10,2
108,97,2,69,2
4,27,2,74,2
106,130,2,52,2
60,106,2,18,2
150,168,2,83,2
65,60,2,78,2
54,8,2,39,2
28,22,2,43,2
35,26,2,90,2
62,47,2,32,2
59,70,2,34,2
104,138,2,14,2
170,116,2,24,2
102,171,2,69,2
5,25,2,85,2
130,162,2,122,2
178,172,2,55,2
292,350,2,84,2
26,59,2,83,2
312,287,2,0,2
233,296,2,80,2
14,82,2,61,2
19,12,2,27,2
2,47,2,36,2
48,25,2,79,2
169,195,2,132,2
8,27,2,95,2
17,23,2,94,2
240,266,2,125,2
232,280,2,75,2
80,106,2,63,2
16,179,2,118,2
7,31,2,1,2
168,189,2,156,2
162,201,2,106,2
243,226,2,77,2
185,155,2,9,2
36,43,2,16,2
87,135,2,202,2
20,42,2,71,2
51,73,2,44,2
99,44,2,93,2
56,36,2,35,2
90,15,2,249,2
17,44,2,12,2
25,15,2,206,2
62,20,2,58,2
4,58,2,106,2
80,46,2,42,2
134,63,2,123,2
55,43,2,151,2
61,92,2,67,2
53,55,2,38,2
11,16,3,237,2
77,68,2,52,2
53,17,2,147,2
129,168,2,354,2
178,82,2,19,2
142,194,2,209,2
161,93,2,76,2
4,46,2,30,2
142,91,2,50,2
62,81,2,71,2
72,9,2,19,2
404,434,2,220,2
158,193,2,271,2
263,290,2,62,2
126,174,2,255,2
396,413,2,86,2
75,128,2,5,2
91,204,2,106,2
21,123,2,13,2
144,227,2,21,2
185,216,2,176,2
6,66,2,131,2
67,162,2,454,2
94,116,2,51,2
216,95,2,317,2
316,355,2,329,2
78,135,2,225,2
23,28,2,268,2
50,58,2,116,2
470,459,2,125,2
181,151,2,11,2
461,438,2,34,2
265,437,2,256,2
219,45,2,181,2
97,180,2,83,2
53,83,2,499,2
87,12,2,187,2
61,52,2,692,2
109,12,2,57,2
74,44,2,992,2
143,92,2,30,2
164,39,3,981,2
201,48,2,92,2
11,70,2,628,2
67,98,1,35,2
17,95,2,415,2
63,106,2,168,2
70,47,2,576,2
213,216,2,175,2
305,263,2,466,2
82,82,2,33,2
3,121,2,240,2
104,195,2,375,2
123,92,2,121,2
84,273,2,504,2
39,99,2,115,2
87,75,2,411,2
3,102,2,98,2
105,62,2,444,2
3,24,2,135,2
311,206,2,110,2
226,220,2,284,2
234,84,2,312,2
523,296,2,257,2
248,83,2,510,2
8,65,2,261,2
127,132,2,221,2
265,166,2,284,2
404,170,2,222,2
203,135,2,475,2
73,220,2,214,2
403,523,2,129,2
176,64,2,444,2
157,82,2,127,2
235,274,2,518,2
155,148,2,0,2
349,200,2,66,2
164,94,2,175,2
356,251,2,151,2
8,17,2,9,2
262,319,2,142,2
67,52,2,208,2
4,89,2,146,2
212,25,2,103,2
162,78,2,71,2
77,34,2,280,2
44,58,2,287,2
122,37,2,123,2
121,103,2,271,2
642,615,2,156,2
97,68,2,723,2
297,314,2,155,2
142,212,2,188,2
15,56,2,175,2
2,123,2,49,2
228,110,3,838,2
271,356,2,12,2
477,320,3,1021,2
590,743,1,200,2
123,36,2,454,2
81,198,2,612,2
200,194,2,19,2
33,93,2,385,2
12,10,2,266,2
17,28,2,184,2
174,329,2,380,2
220,182,2,419,2
266,171,2,0,2
349,152,2,501,2
670,521,2,210,2
41,76,2,582,2
483,413,2,709,2
353,322,2,299,2
80,192,2,533,2
2,36,2,195,2
66,292,2,281,2
417,35,2,80,2
85,181,2,251,2
80,21,2,301,2
6,106,2,29,2
296,69,3,720,2
254,8,2,357,2
15,176,2,620,2
0,92,2,961,2
79,17,2,193,2
65,110,2,177,2
459,282,2,431,2
354,144,3,797,2
974,484,2,595,2
89,20,24,729,2
587,589,2,259,2
173,737,1,820,2
474,93,2,74,2
205,27,2,884,2
186,134,2,51,2
560,372,2,231,2
91,212,2,496,2
103,130,2,509,2
24,249,2,72,2
18,280,3,654,2
175,15,2,90,2
140,10,3,936,2
292,273,2,12,2
163,15,2,344,2
3,93,2,637,2
148,90,2,122,2
2,268,2,1023,2
71,75,2,17,2
52,126,2,824,2
146,163,2,24,2
9,19,2,216,2
143,71,2,248,2
26,95,2,61,2
152,207,2,404,2
162,78,2,312,2
120,273,2,289,2
4,129,2,179,2
31,10,2,520,2
44,15,2,134,2
178,101,2,465,2
323,49,2,132,2
596,151,2,77,2
414,385,2,2,2
51,133,2,202,2
185,179,3,786,2
569,448,2,766,2
256,153,2,150,2
267,67,1,588,2
232,189,2,436,2
219,137,2,162,2
64,131,3,750,3
397,345,5,1023,3
294,363,49,118,3
494,137,6,931,3
526,25,1,368,3
26,17,2,495,3
70,70,2,129,3
103,294,2,336,3
276,26,2,8,3
50,278,2,53,3
249,119,3,937,3
632,263,2,452,3
217,51,2,694,3
262,24,1,284,3
396,210,2,865,3
75,125,2,72,3
40,97,2,740,3
189,182,1,374,3
174,128,2,301,3
172,14,2,0,3
7,23,2,33,3
202,127,2,108,3
98,32,2,102,3
9,338,2,255,3
28,28,2,118,3
212,366,2,651,3
268,203,2,34,3
130,451,2,115,3
520,218,2,103,3
96,280,2,65,3
108,36,2,142,3
23,139,2,238,3
214,260,2,93,3
447,302,2,471,3
160,446,2,42,3
409,224,2,16,3
93,230,2,504,3
126,121,2,217,3
192,276,2,877,3
202,127,2,562,3
297,255,2,341,3
417,23,2,198,3
17,67,3,907,3
8,9,2,15,3
619,213,2,929,3
621,422,2,362,3
217,132,2,783,3
241,268,1,102,3
111,61,1,843,3
151,85,1,543,3
154,149,2,170,3
298,127,2,449,3
306,214,2,46,3
92,141,2,16,3
61,225,2,209,3
327,114,2,530,3
723,353,2,349,3
185,45,2,550,3
296,319,2,57,3
25,318,1,164,3
309,111,317,1023,3
501,193,89,14,3
63,52,13,1023,3
573,390,14,486,3
107,209,1,656,3
220,153,1,457,3
84,155,2,59,3
49,166,2,111,3
366,246,2,394,3
269,446,2,364,3
29,157,2,80,3
221,110,2,10,3
17,53,2,212,3
151,9,2,29,3
112,11,2,318,3
9,127,2,33,3
502,221,2,374,3
417,150,2,66,3
83,31,2,339,3
12,102,2,44,3
104,34,2,90,3
167,62,2,488,3
8,109,2,448,3
96,73,2,135,3
69,37,2,113,3
133,159,2,532,3
51,62,2,64,3
4,198,2,643,3
242,332,2,323,3
7,91,2,316,3
43,104,2,252,3
257,70,2,598,3
42,82,2,352,3
23,162,2,10,3
2,94,2,451,3
176,22,2,127,3
85,45,2,232,3
175,392,2,334,3
26,84,2,269,3
145,93,2,256,3
64,24,2,880,3
110,34,2,293,3
114,133,2,442,3
310,113,2,0,3
96,110,2,24,3
52,81,2,363,3
259,202,2,231,3
23,38,3,685,3
190,290,2,298,3
14,31,2,108,3
0,106,2,110,3
2,55,2,683,3
61,159,2,140,3
146,48,2,87,3
234,237,2,251,3
238,45,2,125,3
232,51,2,361,3
165,94,2,582,3
68,262,2,24,3
6,47,2,484,3
332,707,2,572,3
0,31,2,335,3
312,530,2,688,3
121,277,2,130,3
341,297,2,24,3
79,157,2,326,3
19,249,2,539,3
243,179,2,126,3
95,27,2,104,3
22,52,3,1023,3
52,6,1,276,3
500,148,591,1023,3
799,589,171,111,3
5,49,33,385,3
0,175,2,485,3
304,70,2,909,3
279,335,2,331,3
191,8,3,886,3
353,297,2,0,3
222,161,2,248,3
148,19,2,237,3
8,144,2,148,3
155,11,3,1018,3
309,129,2,197,3
67,113,2,117,3
259,31,2,79,3
141,35,2,14,3
168,174,2,63,3
108,258,2,347,3
293,487,2,25,3
123,35,2,197,3
126,123,2,412,3
58,95,2,316,3
172,169,2,297,3
51,157,2,423,3
81,83,3,273,3
173,50,2,294,3
377,309,2,486,3
234,176,2,9,3
0,51,2,434,3
1,21,2,225,3
190,230,2,242,3
49,86,2,315,3
49,116,2,205,3
46,31,2,245,3
136,45,2,112,3
39,103,2,208,3
305,320,2,250,3
33,159,2,188,3
60,10,2,161,3
10,41,2,62,3
26,137,2,589,3
179,129,2,104,3
205,102,2,794,3
229,171,2,1,3
173,24,2,462,3
167,148,2,224,3
480,284,2,136,3
85,9,2,75,3
310,352,2,89,3
2,55,2,89,3
30,73,2,20,3
14,30,2,46,3
130,18,2,362,3
68,100,2,135,3
245,242,2,0,3
316,293,2,441,3
231,13,2,84,3
15,151,2,106,3
197,139,2,163,3
131,90,2,14,3
15,43,2,195,3
68,50,2,187,3
86,12,2,456,3
0,36,2,179,3
1,47,2,68,3
130,56,2,79,3
116,38,2,234,3
4,30,2,129,3
14,98,2,162,3
139,119,2,5,3
280,307,2,0,3
66,14,2,309,3
267,236,2,139,3
67,60,2,231,3
180,84,2,1,3
1,38,2,8,3
186,304,2,157,3
57,24,2,301,3
232,257,2,136,3
40,72,2,353,3
11,26,2,32,3
5,79,2,367,3
236,207,2,144,3
216,196,2,290,3
99,10,2,57,3
113,88,2,35,3
158,159,2,15,3
109,147,2,93,3
21,111,2,0,3
136,155,2,290,3
81,230,2,9,3
114,106,2,190,3
69,96,2,15,3
153,170,2,0,3
12,81,2,199,3
53,53,2,28,3
60,37,3,269,3
176,182,2,106,3
36,104,2,23,3
206,108,2,0,3
74,153,2,150,3
134,102,2,169,3
245,173,2,83,3
167,192,2,242,3
65,33,2,79,3
141,195,2,192,3
109,202,2,177,3
5,64,2,12,3
228,232,2,29,3
69,98,2,6,3
117,117,2,34,3
31,182,2,147,3
19,181,2,105,3
140,82,2,0,3
111,206,2,27,3
17,143,2,9,3
81,88,2,101,3
3,56,2,0,3
63,151,2,4,3
91,67,2,0,3
8,10,2,87,3
25,34,2,89,3
34,65,2,122,3
49,121,2,29,3
239,175,2,104,3
76,81,2,52,3
37,57,2,71,3
256,197,2,35,3
1,108,2,21,3
119,91,2,8,3
95,65,2,16,3
18,33,2,141,3
276,269,2,10,3
0,33,2,35,3
174,149,2,5,3
248,220,2,56,3
24,25,2,174,3
52,25,2,0,3
79,122,2,80,3
55,18,2,27,3
75,128,2,6,3
219,274,2,77,3
96,172,2,0,3
205,211,2,38,3
47,132,2,103,3
71,41,2,18,3
31,45,2,108,3
4,94,2,45,3
93,159,2,96,3
20,64,2,18,3
106,121,2,35,3
75,114,2,92,3
5,21,2,11,3
54,55,2,89,3
65,57,2,4,3
95,142,2,0,3
248,255,2,31,3
182,85,2,43,3
72,156,2,35,3
169,158,2,52,3
31,120,2,0,3
213,318,2,92,3
52,57,2,7,3
48,50,2,9,3
79,52,2,10,3
20,53,2,0,3
46,99,2,76,3
82,55,2,54,3
131,189,2,129,3
101,85,2,27,3
283,306,2,44,3
30,87,2,6,3
230,180,2,1,3
109,113,2,53,3
191,181,2,48,3
53,7,2,70,3
119,58,2,78,3
61,38,2,22,3
90,111,2,79,3
54,64,2,10,3
37,41,2,0,3
91,56,2,101,3
162,103,2,7,3
48,60,2,39,3
54,43,2,36,3
34,9,2,0,3
62,87,2,82,3
68,34,2,36,3
85,88,2,44,3
141,173,2,0,3
74,59,2,2,3
188,201,2,90,3
169,197,2,13,3
235,362,2,105,3
137,224,2,45,3
20,8,2,30,3
38,14,2,39,3
10,76,2,33,3
41,38,2,9,3
33,49,2,24,3
69,39,2,0,3
154,250,2,81,3
29,29,2,77,3
157,216,2,87,3
39,106,2,0,3
140,153,2,1,3
116,171,2,98,3
9,43,2,32,3
99,68,2,75,3
41,8,2,33,3
97,16,2,0,3
95,139,2,48,3
194,175,2,46,3
10,21,2,39,3
149,133,2,88,3
103,26,2,0,3
104,131,2,24,3
145,96,2,4,3
62,100,2,16,3
252,218,2,21,3
114,240,2,34,3
148,105,2,148,3
149,109,2,100,3
90,144,2,244,3
16,11,2,180,3
53,25,2,214,3
9,41,2,202,3
95,168,2,124,3
67,155,2,25,3
42,39,2,28,3
116,149,2,21,3
158,88,2,120,3
158,31,2,44,3
73,38,2,32,3
54,22,2,198,3
64,15,2,145,3
202,206,2,190,3
52,39,2,101,3
43,65,2,105,3
29,28,2,13,3
8,74,2,88,3
74,11,2,69,3
85,7,2,176,3
91,13,2,46,3
90,12,2,301,3
325,404,2,373,3
44,142,2,187,3
6,26,2,242,3
303,308,2,24,3
17,41,2,165,3
4,18,2,88,3
3,6,2,328,3
249,272,2,0,3
52,11,2,251,3
126,136,2,57,3
67,14,2,34,3
179,151,2,195,3
108,88,2,54,3
139,118,2,203,3
140,158,2,52,3
58,72,2,155,3
109,139,2,79,3
68,44,2,222,3
167,171,2,65,3
55,42,2,0,3
198,273,2,15,3
148,253,2,0,3
114,26,2,41,3
58,167,2,39,3
237,185,2,105,3
32,26,2,156,3
252,191,2,147,3
151,195,2,227,3
9,16,2,132,3
152,228,2,156,3
156,109,2,96,3
71,109,2,28,3
46,92,2,360,3
21,26,2,34,3
6,151,2,515,3
101,13,2,70,3
178,113,2,9,3
151,21,2,162,3
184,209,2,107,3
223,134,2,242,3
122,155,2,282,3
82,109,2,190,3
297,259,2,243,3
24,101,2,227,3
91,47,2,299,3
60,80,2,49,3
139,62,2,54,3
72,20,2,191,3
89,24,2,31,3
112,27,2,111,3
97,46,2,137,3
111,77,2,135,3
57,35,2,67,3
144,182,2,193,3
188,179,1,75,3
75,22,2,516,3
143,141,2,229,3
188,93,2,494,3
190,181,2,25,3
113,107,2,254,3
72,13,2,188,3
258,165,2,542,3
388,315,2,60,3
92,112,2,543,3
390,239,2,134,3
45,77,2,126,3
156,10,2,12,3
71,34,2,18,3
257,154,2,185,3
183,116,2,165,3
18,97,2,152,3
71,163,2,399,3
93,24,2,17,3
96,189,2,248,3
125,45,2,265,3
135,185,2,186,3
146,113,2,149,3
228,137,2,234,3
107,129,2,299,3
197,100,2,200,3
31,159,2,471,3
123,220,2,485,3
4,147,2,98,3
168,13,2,305,3
79,20,2,31,3
162,108,2,239,3
197,100,2,60,3
153,155,2,347,3
96,307,2,247,3
210,55,3,59,3
321,68,2,516,3
12,55,2,64,3
18,21,2,224,3
67,386,1,332,3
25,209,2,688,3
163,7,2,715,3
221,67,2,731,3
48,152,2,800,3
120,317,2,610,3
80,192,2,557,3
9,50,2,438,3
205,209,1,9,3
393,358,2,22,3
404,280,2,51,3
64,66,2,320,3
261,195,2,116,3
32,101,2,121,3
99,159,2,142,3
389,106,2,77,3
73,77,2,90,3
78,104,2,125,3
77,29,2,43,3
25,8,2,316,3
208,36,2,415,3
366,233,2,334,3
217,187,2,235,3
190,288,2,385,3
282,109,2,2,3
22,46,2,255,3
133,59,2,124,3
514,93,2,312,3
133,160,2,434,3
52,256,2,246,3
118,164,2,131,3
515,668,2,51,3
56,121,2,359,3
186,171,2,195,3
292,398,2,166,3
509,349,2,369,3
345,254,2,542,3
62,59,2,373,3
53,377,2,607,3
35,123,2,158,3
516,607,2,102,3
48,198,2,417,3
421,218,2,539,3
342,385,2,775,3
22,16,2,343,3
180,16,2,711,3
331,351,2,323,3
70,23,2,301,3
159,26,2,149,3
293,203,2,254,3
201,214,2,235,3
130,36,3,599,3
277,188,2,74,3
167,177,2,297,3
187,82,2,240,3
409,669,2,86,3
290,248,2,88,3
221,328,2,70,3
407,17,2,727,3
611,358,2,501,3
129,248,2,415,3
713,429,2,11,3
488,242,2,334,3
529,123,2,688,3
218,138,2,100,3
468,275,2,364,3
117,175,2,184,3
231,315,2,409,3
248,297,2,139,3
65,70,2,269,3
191,272,2,439,3
59,112,2,401,3
162,105,2,887,3
699,450,2,315,3
137,151,2,806,3
356,146,2,155,3
63,96,2,293,3
263,54,2,210,3
26,97,2,201,3
454,425,2,195,3
226,308,2,311,3
211,147,2,384,3
378,294,2,298,3
378,385,2,98,3
250,131,2,347,3
238,339,2,623,3
70,161,2,482,3
140,42,2,354,3
667,260,2,201,3
134,146,2,275,3
101,24,2,155,3
38,49,2,196,3
12,117,3,721,3
479,421,2,205,3
61,23,2,0,3
377,380,2,336,3
76,118,3,977,3
409,527,1,15,3
187,483,1,1023,3
99,41,1,395,3
342,147,2,462,3
4,187,2,314,3
82,36,2,689,3
7,155,2,211,3
458,62,2,635,3
126,94,2,156,3
510,253,2,503,3
448,63,2,17,3
61,225,2,597,3
501,332,2,418,3
690,378,2,75,3
525,157,2,141,3
97,154,2,216,3
336,335,2,496,3
584,433,2,97,3
207,167,2,812,3
493,460,2,813,3
408,543,2,81,3
273,15,2,260,3
157,142,2,173,3
350,22,2,364,3
21,160,2,100,3
145,50,3,773,3
411,263,2,232,3
26,50,2,592,3
589,395,2,828,3
107,64,2,121,3
658,521,2,455,3
333,254,2,42,3
373,257,2,729,3
6,43,2,368,3
6,70,2,506,3
227,234,2,44,3
443,512,2,924,3
283,456,1,212,3
377,366,2,836,3
186,181,2,376,3
222,424,2,625,3
242,15,2,543,3
338,447,2,197,3
16,271,2,432,3
196,188,2,559,3
52,25,2,464,3
312,126,2,460,3
22,63,3,897,3
203,13,3,1023,3
708,348,2,21,3
204,11,1,67,3
101,30,2,376,3
349,365,2,106,3
194,16,2,959,3
30,506,2,486,3
228,220,2,663,3
326,248,2,361,3
27,207,2,796,3
215,153,2,176,3
144,24,3,867,3
42,35,2,586,3
323,228,2,352,3
112,49,2,0,3
456,349,2,91,3
109,352,2,422,3
287,76,2,7,3
22,100,2,303,3
385,325,2,131,3
253,225,2,67,3
187,299,2,99,3
189,275,2,12,3
78,186,3,798,3
117,276,2,161,3
87,133,4,1023,3
233,15,2,221,3
597,793,495,1023,3
45,292,422,1023,3
687,342,200,281,3
141,372,37,822,3
298,146,3,180,3
160,99,2,171,3
151,85,2,191,3
102,214,2,509,3
375,8,3,459,3
368,299,2,296,3
561,383,2,2,3
425,249,2,820,3
726,409,2,532,3
103,8,2,668,3
208,37,3,800,3
461,382,67,217,3
395,43,574,1023,3
650,261,258,211,3
267,271,51,778,3
226,240,5,91,3
142,51,1,120,3
72,357,2,555,3
443,63,3,757,3
106,20,2,151,3
281,18,2,287,3
6,300,2,353,3
87,97,2,301,3
9,38,2,361,3
179,148,2,423,3
151,59,2,596,3
71,290,2,738,3
161,233,2,5,3
501,144,2,753,3
290,167,2,428,3
14,44,2,362,3
12,222,2,419,3
274,118,2,509,3
115,37,2,0,3
10,7,2,563,3
161,36,2,635,3
183,131,2,318,3
63,207,2,573,3
301,257,2,215,3
131,127,2,614,3
148,128,2,76,3
276,223,2,35,3
74,34,2,295,3
182,115,3,814,3
244,112,2,329,3
46,340,2,827,3
357,254,2,178,3
114,104,2,562,3
133,110,1,6,3
146,27,2,169,3
43,101,2,145,3
161,111,2,516,3
400,245,2,15,3
44,13,2,159,3
588,420,2,437,3
86,71,2,398,3
124,68,2,95,3
27,101,2,1,3
17,25,2,73,3
442,398,2,59,3
448,435,2,699,3
728,487,2,763,3
568,81,2,10,3
193,81,2,322,3
191,234,2,136,3
33,131,2,113,3
143,113,2,231,3
117,262,2,476,3
179,160,2,159,3
26,11,2,827,3
328,229,1,0,3
79,154,2,188,3
377,308,2,190,3
347,234,2,150,3
259,54,2,552,3
7,13,2,13,3
334,59,2,375,3
154,256,2,349,3
223,87,2,117,3
71,53,3,680,3
126,7,2,58,3
70,109,3,949,3
158,179,2,412,3
193,117,2,390,3
29,114,2,45,3
286,217,2,0,3
103,161,2,146,3
48,123,2,326,3
146,329,2,17,3
391,96,3,550,3
34,204,2,237,3
372,169,2,43,3
37,70,2,63,3
327,190,2,481,3
164,221,2,178,3
142,394,2,748,3
518,433,2,454,3
14,230,2,559,3
232,54,2,590,3
180,376,2,277,3
56,183,2,353,3
1,30,2,273,3
173,87,2,182,3
229,25,2,296,3
59,147,2,19,3
274,279,2,0,3
69,22,2,170,3
413,364,2,537,3
18,189,2,529,3
146,218,2,95,3
81,125,2,31,3
197,263,2,52,3
142,86,2,38,3
143,95,2,112,3
49,57,2,20,3
243,176,2,193,3
202,192,2,0,3
78,219,2,135,3
244,176,2,7,3
296,366,2,228,3
124,20,2,580,3
23,80,2,248,3
457,356,2,596,3
88,17,2,5,3
395,297,2,294,3
12,61,2,90,3
26,195,2,353,3
101,119,2,40,3
4,17,2,66,3
65,30,2,87,3
37,21,2,211,3
102,107,2,259,3
1,7,3,405,3
90,74,2,231,3
67,146,2,359,3
140,115,2,280,3
198,114,2,197,3
337,267,2,186,3
22,20,2,0,3
64,158,2,52,3
26,34,2,242,3
169,274,2,250,3
180,409,2,22,3
78,34,2,198,3
158,143,2,106,3
71,110,2,153,3
44,94,2,276,3
64,42,2,270,3
129,115,2,255,3
82,162,2,104,3
49,29,2,28,3
36,23,2,440,3
404,367,1,134,3
121,62,2,221,3
98,108,2,28,3
140,198,2,85,3
48,119,2,26,3
31,26,2,219,3
41,153,2,97,3
59,22,2,78,3
9,186,2,7,3
151,150,2,31,3
7,66,2,57,3
59,91,2,25,3
194,80,2,460,3
127,95,2,5,3
87,112,3,648,3
129,71,2,65,3
74,98,2,187,3
3,33,2,250,3
171,103,2,367,3
136,94,2,276,3
6,157,2,463,3
242,126,2,4,3
199,207,2,317,3
13,22,2,72,3
80,117,2,33,3
65,104,2,221,3
23,35,2,124,3
12,30,2,208,3
31,17,2,51,3
122,89,2,60,3
35,89,2,251,3
7,12,2,93,3
36,83,2,279,3
35,98,2,213,3
48,242,2,192,3
85,75,2,15,3
221,278,2,101,3
297,460,2,159,3
28,117,2,154,3
0,37,2,103,3
165,160,2,0,3
5,7,2,117,3
118,219,2,209,3
36,10,2,43,3
323,437,2,56,3
5,59,2,63,3
161,226,2,109,3
98,229,2,67,3
17,44,2,43,3
121,143,2,54,3
83,51,2,12,3
78,61,2,5,3
107,50,2,139,3
105,73,2,0,3
183,122,2,138,3
35,187,2,30,3
15,74,2,0,3
67,156,2,126,3
129,24,2,10,3
77,116,2,63,3
47,56,2,0,3
74,26,2,30,3
91,142,2,127,3
19,151,2,65,3
13,29,2,57,3
68,46,2,63,3
9,6,2,36,3
80,67,2,30,3
37,39,2,60,3
35,122,2,21,3
3,47,2,78,3
45,110,2,38,3
129,61,2,141,3
78,131,2,127,3
38,35,2,0,3
174,264,2,2,3
42,27,2,63,3
6,7,2,146,3
133,123,2,13,3
4,33,2,112,3
155,175,2,0,3
108,72,2,33,3
68,104,2,120,3
79,200,2,0,3
71,83,2,38,3
144,260,2,62,3
199,291,2,10,3
171,349,2,13,3
85,13,2,85,3
160,170,2,38,3
36,136,2,80,3
78,144,2,69,3
71,53,2,78,3
168,154,2,24,3
69,43,2,47,3
33,6,2,34,3
82,13,2,18,3
99,134,2,35,3
49,147,2,31,3
9,19,2,19,3
53,120,2,87,3
68,19,2,1,3
223,308,2,161,3
190,341,2,4,3
166,171,2,23,3
42,134,2,84,3
114,59,2,19,3
48,65,2,122,3
281,243,2,0,3
124,153,2,37,3
140,198,2,52,3
31,63,2,64,3
52,22,2,151,3
4,64,2,70,3
43,91,2,119,3
14,62,2,36,3
123,143,2,86,3
3,16,1,0,3
35,12,2,46,3
184,261,2,0,3
25,19,2,1,3
198,362,2,14,3
268,394,2,150,3
13,167,2,53,3
29,142,2,67,3
39,23,2,0,3
83,120,2,14,3
10,70,2,48,3
10,108,2,149,3
238,242,2,142,3
101,147,2,148,3
55,55,2,42,3
26,79,2,6,3
9,58,2,124,3
48,113,2,166,3
79,139,2,94,3
178,202,2,194,3
179,337,2,10,3
153,204,2,46,3
51,29,2,75,3
70,124,2,113,3
87,92,2,49,3
22,15,2,179,3
88,102,2,79,3
3,29,2,56,3
82,17,2,92,3
61,45,2,84,3
106,51,2,116,3
74,15,2,215,3
90,99,2,195,3
162,134,2,329,3
35,8,2,137,3
83,18,2,103,3
50,152,2,84,3
0,12,2,111,3
1,122,2,194,3
73,9,2,47,3
26,72,2,169,3
28,25,2,136,3
169,167,2,235,3
197,225,2,4,3
83,199,2,114,3
5,84,2,0,3
313,286,2,62,3
365,317,2,218,3
90,139,2,97,3
78,108,2,91,3
46,7,2,20,3
51,86,2,16,3
0,124,2,53,3
265,175,2,0,3
103,91,2,111,3
76,35,2,215,3
318,347,2,41,3
110,97,2,2,3
38,91,2,72,3
9,5,2,227,3
27,55,2,19,3
222,306,2,333,3
125,219,2,56,3
88,69,2,256,3
73,77,2,19,3
156,226,2,0,3
6,151,2,58,3
130,237,2,122,3
91,189,2,221,3
314,350,2,367,3
43,138,2,134,3
15,74,2,590,3
240,236,2,274,3
12,30,2,439,3
201,243,2,0,3
38,192,2,398,3
120,246,2,76,3
92,105,2,34,3
81,172,2,267,3
213,38,2,250,3
6,46,2,341,3
143,7,2,609,3
531,420,2,560,3
62,82,2,422,3
506,406,2,596,3
222,218,1,173,3
54,173,2,397,3
195,29,2,98,3
125,266,2,38,3
221,184,2,147,3
180,334,2,0,3
9,29,2,200,3
11,33,2,193,3
21,148,2,10,3
377,166,2,68,3
146,116,2,180,3
57,123,2,6,3
82,37,2,155,3
179,140,2,68,3
257,73,2,193,3
196,25,2,192,3
252,197,2,0,3
312,15,2,345,3
359,107,2,82,3
486,236,2,395,3
331,26,2,65,3
91,43,2,275,3
6,29,2,257,3
132,203,2,270,3
150,88,2,484,3
733,234,2,486,3
471,92,2,538,3
252,372,2,361,3
191,69,2,231,3
193,55,2,57,3
113,7,2,126,3
320,130,2,383,3
680,319,2,40,3
136,26,2,713,3
773,219,2,155,3
122,152,2,213,3
239,156,2,316,3
230,79,2,165,3
416,327,2,252,3
208,21,2,144,3
234,296,2,554,3
82,271,2,189,3
451,441,2,521,3
234,115,2,47,3
54,50,2,389,3
49,187,2,86,3
157,236,2,51,3
174,432,2,298,3
465,153,2,310,3
320,126,2,23,3
245,88,2,493,3
138,119,2,34,3
199,163,3,671,3
155,51,2,153,3
91,33,2,188,3
5,358,2,183,3
45,169,2,33,3
549,166,3,720,3
292,532,2,258,3
673,341,2,936,3
349,396,2,620,3
0,56,2,669,3
246,211,2,491,3
400,51,2,202,3
533,339,2,491,3
43,117,2,66,3
70,227,2,463,3
321,143,2,20,3
63,220,2,82,3
85,73,2,59,3
219,227,2,611,3
163,18,2,585,3
422,266,2,28,3
420,250,2,589,3
699,406,2,136,3
175,7,2,0,3
348,329,2,21,3
12,106,2,262,3
272,404,2,215,3
65,298,2,499,3
405,360,2,34,3
72,105,2,126,3
149,129,2,55,3
114,36,2,289,3
392,121,2,106,3
147,33,2,200,3
4,49,2,132,3
136,190,2,547,3
318,84,2,89,3
18,198,3,1004,3
129,127,2,159,3
236,89,2,198,3
55,224,2,215,3
160,201,2,72,3
12,128,2,308,3
44,13,2,798,3
321,224,1,404,3
336,264,2,532,3
358,242,2,526,3
103,80,2,71,3
209,60,2,203,3
213,157,2,122,3
427,133,2,339,3
299,68,2,249,3
1,252,2,374,3
238,476,2,801,3
33,163,2,805,3
115,26,576,1023,3
77,44,140,631,3
93,7,31,801,3
35,109,3,225,3
117,127,1,510,3
332,345,2,329,3
243,132,2,146,3
629,432,2,365,3
149,320,2,198,3
559,30,2,239,3
137,82,2,809,3
219,276,2,503,3
221,208,2,620,3
48,20,2,368,3
553,405,2,451,3
97,14,2,773,3
147,326,2,429,3
50,65,2,947,3
219,158,217,426,3
320,123,58,672,3
212,6,6,403,3
10,19,1,532,3
130,244,2,241,3
385,427,2,262,3
157,205,3,523,3
284,302,2,113,3
53,36,2,184,3
373,467,2,603,3
93,102,2,240,3
53,240,2,199,3
264,67,2,160,3
23,32,2,380,3
355,560,2,0,3
12,36,2,483,3
342,404,2,159,3
85,91,2,593,3
256,194,2,33,3
125,175,2,928,3
187,317,1,23,3
99,510,2,340,3
149,246,2,373,3
164,60,2,456,3
11,358,2,0,3
23,97,2,49,3
249,252,2,704,3
308,583,2,875,3
150,313,2,456,3
203,48,2,938,3
856,792,3,910,3
138,39,13,947,3
345,393,80,840,3
280,216,41,724,3
385,402,266,649,3
23,250,83,920,3
162,234,11,419,3
299,266,623,1023,3
388,170,137,397,3
13,175,171,921,3
220,25,106,489,3
353,310,272,661,3
171,152,82,450,3
337,121,9,315,3
208,53,1,61,3
37,140,2,586,3
133,109,2,192,3
166,65,3,937,3
297,63,2,451,3
212,95,2,483,3
413,427,3,976,3
318,511,2,435,3
135,89,2,395,3
309,62,2,255,3
171,105,2,201,3
69,526,2,283,3
376,452,2,601,3
8,262,2,601,3
1,177,629,1023,3
94,124,189,156,3
32,54,447,1023,3
290,42,184,426,3
36,21,303,735,3
403,269,91,874,3
102,237,10,1019,3
31,107,1,837,3
212,163,80,1023,3
36,507,144,1023,3
34,162,138,4,3
95,196,24,275,3
218,219,1,768,3
388,236,2,442,3
396,356,2,892,3
23,50,3,204,3
331,92,2,398,3
15,92,2,10,3
207,133,2,414,3
13,56,2,185,3
43,326,2,0,3
70,273,2,3,3
169,7,2,51,3
53,251,2,75,3
83,37,3,547,3
591,105,2,251,3
74,113,2,142,3
527,253,2,49,3
19,21,2,87,3
38,113,2,247,3
32,20,2,34,3
78,135,2,235,3
46,111,2,91,3
227,59,2,314,3
158,49,2,122,3
125,134,2,156,3
321,398,2,291,3
0,11,2,249,3
47,56,2,77,3
188,138,2,552,3
181,280,2,253,3
115,214,2,471,3
163,242,2,274,3
65,45,2,560,3
168,224,2,1023,3
586,618,1,242,3
347,223,2,841,3
209,193,2,27,3
303,318,2,91,3
293,249,2,289,3
122,106,2,224,3
18,16,2,76,3
121,170,2,543,3
20,14,2,571,3
172,207,2,436,3
13,33,2,105,3
100,21,2,416,3
32,26,2,410,3
501,104,2,546,3
347,348,2,749,3
548,193,2,421,3
215,88,2,621,3
482,441,1,37,3
253,53,2,461,3
69,217,2,440,3
126,7,2,213,3
6,35,2,451,3
29,122,2,570,3
251,234,2,235,3
101,119,3,890,3
62,287,2,493,3
56,123,2,412,3
342,54,2,193,3
395,191,2,430,3
116,118,2,5,3
170,6,2,379,3
327,278,2,508,3
82,119,2,499,3
60,71,2,128,3
38,9,2,471,3
187,39,2,667,3
499,371,1,206,3
154,233,2,706,3
400,425,4,228,3
0,167,1,1016,3
265,221,1,530,3
21,111,2,663,3
11,30,2,504,3
270,349,2,271,3
245,115,2,517,3
479,505,2,87,3
714,560,2,237,3
185,9,2,40,3
67,39,2,35,3
181,232,2,107,3
334,95,2,123,3
70,46,2,434,3
321,186,2,484,3
35,127,2,14,3
107,150,2,490,3
181,78,2,290,3
182,240,2,265,3
49,81,2,104,3
154,331,2,207,3
293,265,2,66,3
11,83,2,157,3
188,132,2,446,3
107,143,2,106,3
505,85,3,822,3
198,63,2,134,3
126,62,2,273,3
90,82,2,581,3
70,114,2,472,3
144,136,2,450,3
15,7,2,516,3
100,82,2,246,3
60,7,2,218,3
104,107,2,201,3
64,12,2,426,3
203,150,2,275,3
427,349,2,109,3
165,64,2,0,3
632,1002,3,676,3
48,36,1,196,3
102,284,2,724,3
164,28,2,576,3
151,116,2,552,3
92,231,2,50,3
88,93,2,508,3
37,153,2,97,3
109,147,2,140,3
45,97,2,136,3
359,342,2,251,3
274,214,2,98,3
65,208,2,160,3
89,52,2,122,3
150,306,2,285,3
49,105,2,75,3
97,104,2,460,3
250,114,2,94,3
28,17,2,247,3
106,33,2,5,3
215,232,2,254,3
194,57,2,131,3
158,84,2,283,3
57,256,2,182,3
42,32,2,142,3
174,267,2,435,3
16,26,2,72,3
186,175,2,401,3
40,209,2,211,3
136,153,1,12,3
15,18,2,42,3
63,37,2,78,3
4,92,2,79,3
82,13,2,87,3
129,191,2,293,3
9,101,2,317,3
206,300,2,0,3
21,255,2,450,3
69,81,2,218,3
369,183,2,120,3
80,130,2,1,3
110,199,2,56,3
40,47,2,39,3
25,107,2,170,3
121,217,2,120,3
10,10,2,514,3
151,140,2,91,3
353,278,2,498,3
289,347,2,63,3
4,137,2,34,3
66,58,2,571,3
253,418,2,366,3
149,107,2,633,3
51,234,2,496,3
348,177,2,5,3
19,96,2,488,3
433,409,2,347,3
365,345,2,287,3
13,90,2,397,3
23,66,2,64,3
230,229,2,187,3
151,182,2,111,3
51,20,2,12,3
335,236,2,173,3
257,281,2,143,3
159,80,2,54,3
71,40,2,97,3
85,95,2,11,3
11,93,2,363,3
87,11,2,108,3
8,93,2,315,3
144,105,2,265,3
3,95,2,9,3
81,18,2,52,3
35,91,2,144,3
10,6,2,279,3
96,119,2,50,3
69,110,2,256,3
42,75,2,159,3
129,118,2,82,3
102,34,2,207,3
84,14,2,44,3
210,143,2,0,3
195,161,2,23,3
61,36,2,0,3
18,44,2,33,3
42,130,2,16,3
47,34,2,13,3
258,359,2,74,3
82,25,2,49,3
30,44,2,69,3
139,78,2,1,3
83,95,2,124,3
95,74,2,34,3
119,113,2,61,3
131,60,2,33,3
80,10,2,150,3
34,114,2,307,3
13,99,2,27,3
23,41,2,84,3
125,84,2,0,3
272,224,2,64,3
225,226,2,83,3
19,12,2,7,3
4,19,2,8,3
3,60,2,100,3
27,143,2,4,3
99,131,2,56,3
14,63,2,56,3
82,73,2,24,3
52,89,2,62,3
25,53,2,20,3
208,195,2,51,3
106,79,2,0,3
58,37,2,20,3
6,34,2,78,3
94,89,2,0,3
34,37,2,48,3
158,133,2,0,3
66,22,2,22,3
23,47,2,50,3
151,120,2,27,3
168,138,2,105,3
145,155,2,16,3
165,155,2,0,3
136,139,2,75,3
67,88,2,13,3
94,125,2,71,3
53,9,2,40,3
132,149,2,54,3
180,214,2,23,3
122,151,2,10,3
45,68,2,72,3
218,255,2,14,3
78,78,2,0,3
168,219,2,39,3
119,159,2,0,3
21,6,2,81,3
28,37,2,1,3
7,11,2,31,3
127,209,2,25,3
18,90,2,4,3
4,25,2,94,3
14,28,2,13,3
21,57,2,13,3
97,99,2,60,3
126,97,2,0,3
163,162,2,65,3
33,34,2,46,3
208,237,2,30,3
82,51,2,63,3
139,169,2,0,3
74,136,2,104,3
102,181,2,48,3
74,35,2,13,3
114,149,2,62,3
24,32,2,0,3
85,37,2,73,3
19,49,2,57,3
41,39,2,12,3
26,9,2,26,3
54,15,2,5,3
143,143,2,100,3
0,49,2,28,3
3,15,2,41,3
68,145,2,82,3
178,145,2,0,3
6,86,2,82,3
47,12,2,24,3
154,118,2,7,3
129,214,2,61,3
165,171,2,13,3
3,61,2,69,3
15,21,2,27,3
5,15,2,37,3
174,192,2,67,3
69,80,2,0,3
81,60,2,40,3
11,7,2,46,3
132,95,2,0,3
65,75,2,66,3
19,54,2,16,3
14,7,2,118,3
62,19,2,56,3
145,120,2,47,3
9,29,2,81,3
173,203,2,9,3
1,30,2,73,3
123,99,2,52,3
107,83,2,53,3
137,192,2,47,3
283,270,2,0,3
74,58,2,77,3
32,38,2,28,3
83,142,2,28,3
223,195,2,54,3
27,43,2,0,3
36,52,2,76,3
19,7,2,43,3
43,28,2,57,3
100,108,2,7,3
29,92,2,76,3
61,200,2,98,3
35,14,2,161,3
58,9,2,91,3
4,59,2,128,3
161,42,2,49,3
105,101,2,67,3
21,45,2,54,3
177,192,2,0,3
20,103,2,108,3
136,126,2,0,3
194,229,2,111,3
214,189,2,0,3
52,50,2,7,3
104,122,2,0,3
129,25,2,0,3
0,21,2,70,3
75,131,2,32,3
22,30,2,61,3
6,36,2,19,3
24,58,2,86,3
32,27,2,174,3
32,7,2,177,3
22,111,2,15,3
188,169,2,123,3
186,193,2,172,3
18,116,2,92,3
45,56,2,53,3
102,84,2,52,3
54,41,2,90,3
161,102,2,146,3
52,78,2,437,3
153,107,2,56,3
70,159,2,280,3
33,7,2,7,3
150,12,2,103,3
92,87,2,269,3
13,18,2,33,3
60,142,2,4,3
173,199,2,151,3
186,185,2,126,3
61,38,2,324,3
128,162,2,28,3
10,46,2,0,3
103,28,2,161,3
181,227,2,155,3
26,30,2,116,3
21,97,2,262,3
163,185,2,96,3
71,39,2,57,3
259,315,2,3,3
316,249,2,323,3
170,110,2,159,3
101,41,2,141,3
140,185,2,391,3
49,53,2,276,3
419,355,2,713,3
212,29,2,627,3
23,7,2,341,3
74,49,2,177,3
207,153,2,67,3
184,205,2,54,3
192,12,2,9,3
113,151,2,57,3
62,197,2,238,3
84,125,2,225,3
281,237,2,199,3
159,125,2,347,3
212,272,2,393,3
21,237,2,40,3
35,129,2,523,3
23,45,2,168,3
17,33,2,60,3
218,246,2,259,3
275,123,2,368,3
180,124,2,99,3
135,186,2,325,3
534,588,2,99,3
138,261,2,217,3
312,65,2,167,3
372,113,2,462,3
437,160,2,316,3
73,135,2,423,3
173,130,2,82,3
132,260,2,144,3
355,350,2,370,3
32,637,2,103,3
484,142,2,283,3
121,93,2,181,3
15,62,2,305,3
437,193,2,0,3
8,44,2,637,3
245,236,2,174,3
269,17,2,740,3
18,129,2,59,3
159,27,2,328,3
10,55,2,42,3
204,196,2,134,3
158,119,2,63,3
218,143,2,308,3
211,258,2,92,3
21,62,2,435,3
219,83,2,0,3
286,341,2,586,3
440,314,2,274,3
185,150,2,115,3
608,384,2,455,3
453,208,2,471,3
146,93,2,212,3
359,223,2,278,3
213,142,2,179,3
232,130,3,737,3
38,95,2,55,3
83,233,2,620,3
24,22,2,68,3
45,308,2,352,3
143,313,2,72,3
193,288,2,24,3
260,204,3,759,3
305,67,2,261,3
4,37,2,495,3
5,339,2,109,3
103,135,2,551,3
145,41,2,218,3
95,46,2,573,3
195,27,2,532,3
184,188,2,412,3
8,115,2,455,3
487,89,2,513,3
262,170,2,542,3
130,369,2,745,3
116,64,2,1023,3
97,84,292,962,3
48,122,143,849,3
32,80,273,980,3
30,42,134,479,3
70,69,20,181,3
95,11,1,231,3
110,6,2,9,3
181,156,3,667,3
224,515,2,3,3
248,497,2,623,3
55,213,2,383,3
734,40,3,590,3
173,138,2,256,3
767,589,2,785,3
186,263,1,85,3
98,26,2,919,3
36,128,2,72,3
288,304,2,247,3
42,149,3,1023,3
187,290,2,576,3
223,421,636,1023,3
310,316,410,888,3
335,10,211,1023,3
775,582,418,704,3
363,73,117,824,3
999,362,15,712,3
190,74,1,4,3
106,15,548,1023,3
556,589,91,83,3
22,202,13,467,3
577,529,0,272,3
40,142,2,167,3
63,91,2,116,3
140,253,2,354,3
126,105,3,720,3
233,194,2,179,3
464,305,2,105,3
20,11,2,521,3
11,194,2,209,3
283,39,2,547,3
591,228,2,233,3
26,137,2,230,3
590,769,2,121,3
104,175,2,419,3
297,171,2,210,3
163,16,2,922,3
22,160,2,152,3
557,189,2,600,3
232,345,2,506,3
578,454,2,611,3
18,31,2,10,3
189,237,2,206,3
13,263,2,574,3
55,62,2,501,3
82,29,2,155,3
541,322,2,470,3
399,447,125,814,3
91,158,60,971,3
232,625,247,742,3
173,519,406,1023,3
214,374,136,95,3
851,501,21,968,3
525,113,2,37,3
118,65,1,822,3
17,66,1,389,3
136,107,2,192,3
83,663,2,221,3
82,360,2,646,3
770,345,2,84,3
293,337,602,1023,3
155,191,108,461,3
189,497,16,115,3
65,103,1,43,3
69,136,2,511,3
128,122,2,288,3
190,157,2,565,3
92,375,2,321,3
362,172,115,676,3
332,217,33,436,3
107,159,2,568,3
347,140,1,339,3
70,393,2,311,3
367,33,2,11,3
194,290,2,301,3
250,27,2,136,3
394,206,2,15,3
369,325,2,0,3
565,739,2,63,3
84,315,2,694,3
253,247,2,117,3
428,208,2,718,3
441,482,2,764,3
143,600,2,296,3
6,284,2,309,3
113,159,2,318,3
577,656,2,272,3
367,571,2,737,3
704,602,2,576,3
36,35,2,340,3
42,134,2,589,3
206,64,2,619,3
569,399,2,287,3
151,221,2,352,3
176,181,2,302,3
153,203,2,310,3
129,363,2,147,3
84,35,2,40,3
155,243,2,226,3
35,98,2,198,3
26,418,2,503,3
540,48,2,171,3
607,302,2,84,3
81,337,2,376,3
15,40,2,362,3
379,389,2,579,3
51,117,2,200,3
377,69,2,281,3
310,97,2,513,3
256,91,2,273,3
162,206,2,709,3
210,201,2,286,3
321,184,2,436,3
201,267,57,361,3
315,175,10,359,3
239,486,1,342,3
225,205,2,43,3
276,431,2,712,3
302,291,2,113,3
216,37,2,502,3
547,683,2,258,3
252,195,2,855,3
10,44,2,222,3
493,118,2,100,3
245,81,2,96,3
152,147,3,1008,3
398,241,2,307,3
398,443,2,906,3
178,366,1,113,3
193,17,2,665,3
52,26,2,184,3
1,8,2,110,3
90,10,2,532,3
2,63,2,93,3
356,314,2,401,3
294,325,2,282,3
58,176,2,96,3
104,56,2,386,3
221,332,2,489,3
232,19,3,693,3
506,485,2,411,3
244,60,2,170,3
328,320,2,233,3
92,15,2,261,3
277,178,2,418,3
253,171,2,761,3
227,210,2,241,3
27,108,2,244,3
315,308,2,113,3
141,138,2,248,3
35,194,2,497,3
37,267,2,206,3
116,18,2,179,3
21,143,2,457,3
528,445,2,12,3
426,535,2,427,3
124,263,2,128,3
32,260,2,225,3
207,261,2,44,3
155,92,2,38,3
57,18,2,234,3
260,215,2,198,3
2,32,2,331,3
98,25,2,174,3
57,17,2,305,3
18,76,2,285,3
174,271,2,68,3
19,133,2,428,3
178,66,2,483,3
65,497,2,619,3
52,347,2,736,3
433,653,3,880,3
136,39,2,153,3
138,187,2,835,3
114,182,2,643,3
323,245,2,623,3
160,95,2,588,3
198,159,2,58,3
16,51,2,371,3
296,15,2,117,3
49,66,2,18,3
129,64,2,85,3
251,160,2,394,3
401,56,2,416,3
112,73,2,321,3
335,213,2,153,3
84,113,2,177,3
110,79,2,392,3
8,20,2,163,3
68,148,2,490,3
167,23,2,518,3
11,20,2,169,3
150,207,2,390,3
199,145,2,124,3
16,48,2,58,3
43,109,2,154,3
73,77,3,415,3
163,144,2,77,3
232,143,2,449,3
17,15,2,96,3
157,109,2,101,3
88,51,2,226,3
88,151,2,112,3
61,75,2,289,3
104,41,2,29,3
34,24,2,380,3
331,226,2,118,3
150,11,2,105,3
66,139,2,159,3
75,123,2,344,3
116,11,2,385,3
409,343,2,184,3
53,49,2,520,3
6,13,2,12,3
87,35,2,400,3
84,119,2,423,3
35,23,2,273,3
72,60,2,249,3
12,32,2,194,3
141,20,2,106,3
116,286,2,427,3
286,46,2,510,3
111,335,2,423,3
554,330,2,339,3
417,234,2,67,3
19,57,2,96,3
119,12,3,522,3
57,37,2,289,3
502,269,2,488,3
280,320,2,82,3
175,106,2,615,3
102,21,2,18,3
87,125,2,404,3
219,207,2,51,3
395,428,2,126,3
54,185,2,184,3
32,15,2,316,3
134,111,2,395,3
178,89,2,522,3
21,14,2,75,3
99,18,2,841,3
184,44,2,212,3
289,168,2,256,3
336,275,2,145,3
2,71,2,122,3
55,30,2,57,3
23,80,2,231,3
285,14,2,7,3
58,77,2,7,3
59,177,2,133,3
12,14,2,388,3
20,108,2,0,3
205,178,2,122,3
19,144,2,0,3
84,161,2,17,3
2,126,2,176,3
101,34,2,38,3
57,51,2,151,3
85,51,2,60,3
201,206,2,0,3
33,125,2,7,3
197,184,2,61,3
146,284,2,77,3
32,58,2,0,3
29,64,2,72,3
63,130,2,76,3
87,32,2,106,3
6,81,2,31,3
248,300,2,189,3
146,234,2,196,3
0,12,2,140,3
115,129,2,20,3
18,31,2,0,3
48,91,2,119,3
49,34,2,60,3
28,31,2,75,3
114,66,2,26,3
47,10,2,33,3
110,90,2,20,3
111,151,2,121,3
86,122,2,54,3
211,321,2,64,3
58,117,2,65,3
12,55,2,65,3
126,199,2,0,3
17,10,2,40,3
80,145,2,53,3
34,37,2,87,3
125,82,2,22,3
59,40,2,1,3
75,126,2,78,3
95,112,2,3,3
98,180,2,38,3
57,166,2,27,3
143,154,2,28,3
131,179,2,57,3
83,88,2,53,3
6,101,2,138,3
291,259,2,79,3
322,395,2,76,3
76,30,2,77,3
246,287,2,3,3
23,36,3,33,3
115,114,2,69,3
79,58,2,0,3
126,116,2,55,3
2,89,2,59,3
66,57,2,146,3
198,145,2,42,3
41,51,2,25,3
10,104,1,42,3
97,141,2,14,3
99,104,2,71,3
36,82,2,70,3
81,124,2,56,3
136,134,2,77,3
134,44,2,30,3
22,165,2,104,3
217,134,2,42,3
12,74,2,0,3
34,18,2,106,3
63,60,2,0,3
160,143,2,68,3
20,109,2,13,3
90,82,2,1,3
36,57,2,94,3
19,17,2,24,3
97,124,2,86,3
1,27,2,8,3
121,98,2,6,3
129,130,2,45,3
6,27,2,0,3
92,151,2,75,3
7,79,2,32,3
79,99,2,41,3
40,80,2,61,3
16,53,2,19,3
87,122,2,113,3
138,105,2,22,3
167,155,2,57,3
46,65,2,108,3
65,82,2,0,3
28,81,2,34,3
95,103,2,61,3
41,75,2,2,3
20,14,2,75,3
3,45,2,33,3
140,200,2,95,3
143,93,2,14,3
125,122,2,12,3
3,12,2,80,3
110,84,2,0,3
8,15,2,32,3
51,44,2,8,3
200,181,2,68,3
76,50,2,81,3
13,41,2,27,3
73,88,2,72,3
134,153,2,13,3
27,56,2,5,3
78,42,2,94,3
90,119,2,36,3
1,21,2,56,3
11,35,2,36,3
65,136,2,37,3
69,100,2,59,3
157,223,2,0,3
15,28,2,80,3
158,198,2,0,3
79,54,2,29,3
157,187,2,88,3
35,29,2,3,3
45,94,2,59,3
180,224,2,58,3
72,94,2,34,3
83,145,2,12,3
86,97,2,0,3
35,55,2,92,3
194,237,2,28,3
100,21,2,14,3
51,90,2,79,3
56,28,2,0,3
111,134,2,68,3
70,44,2,49,3
13,77,2,45,3
176,167,2,22,3
55,52,2,41,3
185,259,2,91,3
4,82,2,98,3
98,90,2,4,3
80,82,2,115,3
144,156,2,45,3
20,8,2,135,3
12,140,2,55,3
130,126,2,37,3
48,80,2,0,3
65,178,2,62,3
191,118,2,2,3
147,255,2,190,3
38,39,2,24,3
135,186,2,207,3
137,137,2,148,3
42,65,2,59,3
3,62,2,66,3
101,15,2,22,3
141,155,2,79,3
104,104,2,7,3
267,344,2,26,3
244,404,2,71,3
38,9,2,24,3
107,181,2,37,3
203,188,2,0,3
83,90,2,28,3
166,139,2,81,3
197,211,2,0,3
6,15,2,12,3
235,256,2,199,3
49,72,2,223,3
117,117,2,65,3
44,59,2,206,3
58,81,2,31,3
27,7,2,101,3
53,28,2,67,3
48,196,2,90,3
38,123,2,100,3
82,101,2,189,3
195,157,2,32,3
21,146,2,5,3
121,180,2,17,3
1,58,2,68,3
24,22,2,145,3
24,46,2,133,3
78,174,2,255,3
20,111,2,15,3
104,178,2,19,3
69,13,2,1,3
81,19,2,0,3
171,125,2,194,3
26,29,2,47,3
13,77,2,101,3
98,196,2,75,3
4,8,3,302,3
148,106,2,48,3
3,15,2,306,3
225,335,2,40,3
131,54,2,93,3
265,248,2,9,3
41,43,2,38,3
12,70,2,19,3
39,19,2,183,3
154,21,2,162,3
66,19,2,115,3
90,163,2,406,3
41,66,2,115,3
107,290,2,361,3
136,132,1,175,3
100,43,2,221,3
191,133,2,53,3
221,162,2,224,3
284,217,2,49,3
2,65,2,67,3
54,90,2,15,3
34,16,2,33,3
23,109,2,246,3
226,37,2,71,3
52,100,2,0,3
120,69,2,103,3
22,97,2,132,3
366,293,2,115,3
181,253,2,10,3
336,469,2,256,3
110,122,2,0,3
292,387,2,254,3
18,125,2,163,3
371,319,2,539,3
59,139,2,84,3
184,113,2,405,3
144,326,2,255,3
173,19,2,344,3
6,276,2,429,3
127,181,2,88,3
7,53,2,205,3
7,131,2,88,3
71,225,2,327,3
125,65,2,459,3
29,237,2,561,3
101,212,2,619,3
88,33,2,292,3
237,92,2,396,3
338,179,2,97,3
45,209,2,181,3
266,86,2,154,3
516,423,2,127,3
118,18,2,140,3
182,380,2,361,3
643,154,2,149,3
350,54,2,89,3
512,93,2,91,3
505,262,2,197,3
150,46,2,225,3
439,388,2,817,3
59,6,2,52,3
327,50,3,684,3
242,173,2,121,3
36,136,2,4,3
28,14,2,91,3
117,95,2,124,3
106,344,2,37,3
16,189,2,52,3
128,80,2,211,3
33,113,2,65,3
55,117,2,10,3
23,236,2,130,3
139,353,2,189,3
37,169,2,545,3
46,139,1,12,3
289,56,2,871,3
257,16,2,938,3
14,235,2,998,3
207,234,298,712,3
42,87,103,785,3
138,40,15,386,3
193,175,1,136,3
439,43,2,31,3
185,34,3,654,3
27,112,2,504,3
381,380,2,508,3
5,131,518,1023,3
204,276,311,196,3
397,301,367,1023,3
426,523,400,126,3
199,65,84,1023,3
283,89,203,489,3
294,148,46,927,3
11,231,4,454,3
459,96,2,786,3
35,32,2,657,3
25,158,3,616,3
224,283,2,904,3
225,358,2,523,3
428,647,2,536,3
51,181,1,121,3
521,25,3,74,3
125,152,2,121,3
357,167,2,98,3
220,284,2,161,4
272,229,2,230,4
63,186,2,160,4
602,507,2,158,4
97,40,2,0,4
302,225,2,255,4
178,348,2,343,4
187,138,2,99,4
60,9,2,379,4
116,103,2,48,4
132,7,2,173,4
8,266,2,422,4
55,191,2,15,4
141,81,3,763,4
151,62,2,262,4
71,25,2,448,4
20,30,2,478,4
59,301,2,55,4
413,90,2,624,4
131,325,2,514,4
146,46,2,674,4
99,204,2,900,4
311,215,2,832,4
417,597,298,1023,4
29,183,99,1023,4
223,517,23,421,4
200,145,1,201,4
87,189,1,278,4
159,274,2,144,4
207,137,2,75,4
201,9,2,124,4
39,303,3,812,4
442,118,2,140,4
237,164,3,641,4
398,433,2,362,4
209,290,2,250,4
518,432,2,356,4
84,163,2,370,4
101,13,3,725,4
197,331,2,371,4
83,179,5,1023,4
76,147,1,60,4
117,180,2,971,4
158,20,2,453,4
44,49,2,225,4
336,126,2,534,4
416,265,2,84,4
134,162,2,114,4
182,55,2,480,4
582,280,2,325,4
480,79,3,1023,4
391,126,2,0,4
249,195,2,708,4
7,186,2,345,4
127,233,2,475,4
626,571,2,420,4
369,41,2,936,4
384,574,2,598,4
68,177,192,1023,4
180,137,96,308,4
528,543,15,591,4
510,597,1,345,4
140,49,2,290,4
580,323,2,1018,4
164,163,2,302,4
384,58,3,1023,4
454,163,2,243,4
104,15,2,629,4
131,25,2,540,4
19,153,2,687,4
205,285,2,35,4
425,87,2,139,4
180,131,2,610,4
399,251,2,388,4
103,94,2,933,4
279,307,1,247,4
313,496,2,789,4
109,207,2,395,4
16,170,2,724,4
64,102,1,906,4
280,62,1,775,4
50,45,2,608,4
124,110,2,272,4
367,108,2,190,4
527,157,2,469,4
427,414,2,32,4
403,151,2,350,4
421,122,2,358,4
341,21,1,4,4
648,272,2,392,4
446,219,2,320,4
73,184,2,281,4
34,76,2,271,4
484,147,2,199,4
163,77,2,0,4
171,345,2,83,4
85,175,2,370,4
84,289,2,144,4
50,65,2,46,4
120,23,2,441,4
58,56,2,370,4
549,385,2,513,4
681,66,2,415,4
199,588,2,138,4
220,79,2,628,4
346,8,2,587,4
244,139,2,288,4
87,141,2,183,4
399,206,2,157,4
546,627,2,12,4
157,270,2,276,4
354,163,2,0,4
90,81,2,271,4
219,44,2,638,4
268,161,2,224,4
528,385,2,91,4
58,153,2,226,4
8,150,2,343,4
98,16,2,246,4
310,59,3,684,4
181,174,2,449,4
500,318,2,930,4
189,146,1,27,4
442,307,2,784,4
75,117,2,44,4
312,286,2,476,4
153,35,2,230,4
106,44,2,99,4
255,158,3,560,4
541,464,2,309,4
328,198,2,740,4
165,15,2,701,4
51,29,2,354,4
319,242,2,45,4
237,251,2,60,4
167,254,2,672,4
7,33,2,0,4
546,439,2,283,4
287,433,2,243,4
375,237,2,336,4
39,181,2,212,4
80,137,2,132,4
51,282,2,376,4
701,631,2,439,4
30,135,2,796,4
303,394,2,530,4
579,187,2,59,4
299,59,2,517,4
105,20,2,109,4
257,168,2,198,4
19,166,2,507,4
194,314,2,10,4
17,313,20,1023,4
421,215,3,194,4
290,63,2,1001,4
111,224,1,647,4
502,128,2,710,4
80,169,2,649,4
388,346,2,1,4
65,14,2,949,4
470,309,2,216,4
188,54,2,0,4
454,529,2,90,4
91,205,2,333,4
539,131,3,861,4
375,424,2,295,4
154,188,1,349,4
37,161,2,659,4
302,232,2,834,4
212,110,1,27,4
13,209,2,772,4
862,548,2,377,4
673,569,2,529,4
232,230,1,541,4
132,117,2,93,4
97,65,2,310,4
338,244,2,56,4
181,79,3,1023,4
102,79,2,314,4
163,128,2,233,4
369,477,2,179,4
53,88,3,721,4
387,422,2,147,4
352,688,2,713,4
56,153,2,6,4
110,289,2,802,4
127,146,2,0,4
4,117,2,0,4
272,188,2,468,4
210,74,2,602,4
357,205,1,0,4
278,193,2,154,4
2,73,2,515,4
295,425,75,1023,4
158,157,14,787,4
291,320,1,1023,4
59,29,2,18,4
118,29,1,440,4
9,129,2,353,4
183,271,2,371,4
155,145,2,68,4
255,82,2,0,4
86,8,2,243,4
284,151,2,405,4
410,275,2,576,4
302,161,2,109,4
49,77,2,310,4
145,148,2,730,4
47,163,2,158,4
122,17,2,379,4
252,254,2,10,4
14,117,2,331,4
100,83,2,27,4
408,279,2,80,4
2,103,2,272,4
421,283,2,154,4
2,9,2,401,4
67,15,2,0,4
112,25,2,74,4
221,106,2,27,4
139,209,2,648,4
128,68,2,483,4
204,202,2,546,4
201,341,2,667,4
84,10,2,513,4
589,487,2,15,4
73,91,2,511,4
393,397,2,266,4
173,252,2,153,4
212,196,2,157,4
199,168,2,113,4
68,117,2,49,4
43,140,2,166,4
127,171,2,160,4
106,24,2,289,4
23,81,2,226,4
69,173,2,132,4
28,13,2,136,4
38,23,2,194,4
131,57,2,38,4
86,255,2,193,4
151,132,2,134,4
15,20,2,8,4
139,16,2,77,4
17,180,2,389,4
287,202,2,57,4
223,177,2,370,4
359,189,2,108,4
327,225,2,686,4
322,281,1,27,4
288,154,2,535,4
182,159,2,426,4
141,94,2,220,4
7,185,2,179,4
141,107,2,227,4
2,23,2,176,4
31,14,2,70,4
38,52,2,0,4
65,229,2,219,4
66,187,2,119,4
61,37,2,294,4
127,56,2,173,4
289,289,2,348,4
64,167,2,68,4
127,87,2,103,4
124,73,2,173,4
98,83,2,125,4
137,46,2,117,4
70,42,2,94,4
69,13,2,94,4
62,107,2,103,4
6,9,2,24,4
159,237,2,159,4
9,58,2,120,4
109,221,2,177,4
87,87,2,209,4
29,138,2,155,4
79,44,2,195,4
30,15,2,23,4
35,29,2,163,4
5,48,2,296,4
59,18,2,205,4
48,102,2,180,4
7,75,2,384,4
235,213,2,101,4
58,15,2,200,4
284,342,2,410,4
25,34,2,117,4
30,154,2,282,4
146,138,2,249,4
38,95,2,60,4
102,70,2,102,4
17,95,2,125,4
335,68,2,115,4
26,9,2,28,4
197,59,2,299,4
130,97,2,86,4
114,22,2,302,4
304,290,2,148,4
148,144,2,25,4
194,174,2,0,4
58,43,2,68,4
60,151,2,124,4
115,58,2,92,4
117,190,2,131,4
13,104,2,26,4
125,172,2,59,4
27,27,2,4,4
125,26,2,146,4
190,91,2,13,4
33,99,2,31,4
55,24,2,12,4
100,164,2,189,4
17,84,2,61,4
53,115,2,167,4
200,255,2,188,4
3,75,2,65,4
12,43,2,9,4
153,209,2,101,4
84,163,2,99,4
15,111,2,0,4
96,133,2,0,4
73,153,2,95,4
115,60,2,11,4
84,7,2,74,4
61,11,2,65,4
132,154,2,32,4
80,50,2,81,4
184,266,2,50,4
170,170,2,55,4
20,14,2,48,4
43,90,2,0,4
90,88,2,79,4
12,26,2,61,4
20,61,2,46,4
29,67,2,129,4
220,254,2,25,4
22,90,2,124,4
136,130,2,22,4
37,71,2,57,4
122,163,2,25,4
162,173,2,5,4
11,21,2,110,4
104,86,2,0,4
181,245,2,75,4
60,9,2,45,4
98,46,2,1,4
102,141,2,32,4
9,28,2,4,4
29,111,2,25,4
17,61,2,8,4
130,185,2,0,4
182,235,2,86,4
34,84,2,16,4
26,68,2,34,4
7,64,2,36,4
20,46,2,46,4
18,11,2,90,4
61,22,2,36,4
25,11,2,11,4
72,8,2,1,4
242,310,2,8,4
343,304,2,124,4
96,61,2,90,4
12,54,2,51,4
60,9,2,76,4
55,8,2,0,4
72,95,2,78,4
38,94,2,32,4
144,176,2,48,4
171,143,2,23,4
81,60,2,12,4
158,151,2,116,4
159,118,2,20,4
135,133,2,38,4
45,122,2,34,4
78,83,2,30,4
95,33,2,33,4
128,208,2,8,4
134,134,2,47,4
137,86,2,13,4
53,39,2,0,4
32,20,2,89,4
116,114,2,30,4
32,66,2,22,4
81,37,2,43,4
125,122,2,0,4
114,122,2,100,4
111,82,2,43,4
75,87,2,57,4
39,45,2,23,4
117,164,2,0,4
141,72,2,77,4
174,130,2,7,4
208,204,2,33,4
155,181,2,0,4
115,132,2,12,4
164,155,2,59,4
293,301,2,16,4
104,73,2,14,4
45,15,2,22,4
37,63,2,0,4
65,15,2,97,4
35,33,2,17,4
122,100,2,50,4
22,9,2,30,4
150,178,2,19,4
120,125,2,66,4
114,47,2,52,4
2,95,2,84,4
171,187,2,40,4
128,119,2,13,4
197,143,2,103,4
103,79,2,32,4
63,38,2,113,4
68,61,2,10,4
58,61,2,0,4
38,13,2,15,4
4,7,2,91,4
48,63,2,184,4
141,127,2,55,4
24,11,2,0,4
93,46,2,79,4
11,42,2,149,4
49,47,2,88,4
35,25,2,110,4
124,87,2,71,4
92,19,2,32,4
229,226,2,24,4
187,219,2,3,4
23,57,2,18,4
63,58,2,166,4
200,200,2,82,4
74,63,2,275,4
48,21,2,81,4
123,142,2,80,4
176,201,2,0,4
17,11,2,104,4
98,66,2,54,4
36,53,2,39,4
153,138,2,26,4
12,17,2,117,4
268,236,2,110,4
81,23,2,148,4
99,108,2,165,4
66,61,2,28,4
64,51,2,74,4
8,90,2,5,4
43,79,2,161,4
4,60,2,233,4
56,39,2,67,4
32,75,3,0,4
96,148,2,84,4
103,62,2,160,4
0,96,2,200,4
38,58,2,55,4
197,144,2,20,4
92,98,2,0,4
44,21,2,0,4
138,127,2,0,4
169,167,2,20,4
60,16,2,163,4
151,42,2,131,4
8,48,3,196,4
65,81,2,105,4
69,101,2,293,4
58,85,2,92,4
34,9,2,219,4
36,121,2,190,4
40,68,2,209,4
96,13,2,153,4
49,16,2,133,4
170,127,2,0,4
141,39,2,17,4
44,79,2,207,4
24,158,2,318,4
90,81,2,241,4
142,203,2,520,4
50,69,2,43,4
390,465,2,418,4
275,393,2,389,4
98,58,2,30,4
136,34,2,426,4
207,236,2,43,4
14,80,2,331,4
449,378,2,329,4
13,97,2,331,4
18,25,2,414,4
303,259,2,545,4
230,133,2,237,4
13,73,2,363,4
130,132,2,204,4
3,19,2,0,4
105,31,2,147,4
109,139,2,172,4
183,153,2,117,4
145,145,2,331,4
195,224,2,152,4
504,383,2,800,4
418,394,1,108,4
584,311,3,1023,4
155,171,2,269,4
475,430,2,315,4
191,431,1,85,4
202,317,2,287,4
31,164,2,7,4
214,416,2,644,4
367,257,1,224,4
158,358,2,596,4
377,150,2,488,4
24,179,2,260,4
505,133,2,331,4
232,17,2,103,4
92,62,2,37,4
39,116,2,26,4
82,76,2,0,4
179,273,2,73,4
30,10,2,26,4
158,202,3,622,4
230,175,2,245,4
183,231,2,793,4
149,49,2,108,4
13,227,3,926,4
277,91,2,429,4
115,157,2,761,4
201,319,2,579,4
224,13,2,254,4
332,109,2,0,4
700,464,2,195,4
122,205,3,672,4
368,343,2,288,4
30,203,2,618,4
162,56,1,61,4
88,160,2,541,4
175,22,2,117,4
530,397,2,292,4
611,652,2,280,4
398,88,2,71,4
406,193,2,304,4
548,474,2,3,4
188,38,2,386,4
489,219,2,168,4
168,98,1,193,4
82,104,2,310,4
374,228,2,25,4
0,148,2,101,4
430,178,2,319,4
178,112,2,296,4
117,122,2,751,4
212,95,2,219,4
301,91,2,734,4
469,31,2,361,4
152,20,2,746,4
377,84,2,514,4
328,16,2,638,4
352,145,2,901,4
140,108,1,216,4
44,110,2,675,4
15,183,2,0,4
284,78,2,207,4
136,152,2,429,4
454,458,2,137,4
61,33,2,36,4
239,49,2,482,4
377,23,2,488,4
63,78,2,354,4
182,20,2,673,4
397,283,2,405,4
36,89,2,544,4
56,353,2,660,4
196,684,2,466,4
8,81,2,467,4
262,87,2,144,4
155,65,2,250,4
114,270,2,525,4
116,156,2,307,4
252,141,2,463,4
478,321,1,225,4
129,50,2,517,4
147,214,2,90,4
327,146,2,1,4
346,280,2,29,4
124,241,2,412,4
0,168,2,402,4
24,153,2,371,4
239,15,2,681,4
132,84,2,67,4
52,121,2,540,4
360,121,2,152,4
68,291,2,200,4
322,456,2,241,4
358,26,2,414,4
212,132,2,365,4
250,174,2,68,4
93,170,2,545,4
262,233,2,566,4
120,105,3,1006,4
115,359,1,378,4
148,10,3,1023,4
291,130,277,489,4
739,628,63,1023,4
35,201,235,668,4
499,55,55,1023,4
288,448,17,606,4
290,93,623,1023,4
431,255,214,330,4
5,27,41,701,4
227,72,3,410,4
7,25,2,122,4
105,52,2,159,4
456,293,2,250,4
5,34,2,292,4
230,238,2,106,4
283,96,2,289,4
17,350,1,61,4
325,158,3,764,4
275,447,2,400,4
213,27,2,534,4
307,226,2,0,4
418,550,2,455,4
160,104,2,28,4
32,49,2,577,4
358,19,3,1023,4
40,259,1,136,4
283,275,3,990,4
49,49,2,258,4
207,254,2,615,4
56,57,2,842,4
67,215,122,694,4
496,116,27,738,4
757,349,1,727,4
64,144,1,818,4
346,310,1,523,4
525,445,2,836,4
906,800,2,152,4
487,392,2,927,4
197,251,3,891,4
102,79,2,238,4
53,258,2,358,4
55,22,2,267,4
223,261,2,455,4
55,30,2,448,4
332,368,2,96,4
501,209,2,207,4
417,39,2,128,4
309,273,2,413,4
23,469,2,170,4
318,321,2,167,4
155,246,2,20,4
75,44,2,39,4
377,265,2,536,4
145,65,2,400,4
428,429,3,874,4
376,311,2,368,4
253,136,68,1020,4
452,340,75,7,4
588,562,8,819,4
504,287,1,167,4
17,71,1,54,4
156,381,2,338,4
73,230,2,117,4
218,285,2,118,4
920,696,2,78,4
460,329,2,136,4
96,66,2,181,4
192,22,2,459,4
247,26,2,306,4
268,73,2,889,4
303,267,2,194,4
686,650,3,894,4
615,223,2,104,4
99,39,2,477,4
109,170,2,631,4
244,21,2,607,4
392,388,2,532,4
90,487,200,883,4
535,86,98,971,4
445,247,14,300,4
285,183,1,672,4
54,384,1,268,4
17,123,3,631,4
28,198,2,17,4
19,259,2,97,4
13,11,2,128,4
171,316,2,398,4
196,78,2,227,4
181,9,2,282,4
10,340,2,579,4
278,37,2,171,4
243,351,2,462,4
803,841,2,239,4
871,887,2,56,4
379,408,2,734,4
350,36,2,110,4
559,485,3,888,4
259,167,2,186,4
76,95,477,1023,4
746,444,153,396,4
216,64,46,811,4
544,698,6,351,4
151,158,1,388,4
116,144,2,454,4
375,14,2,733,4
700,481,2,349,4
201,206,3,740,4
434,309,2,175,4
126,219,2,737,4
172,152,2,455,4
183,137,2,762,4
9,27,2,17,4
278,170,2,557,4
570,414,2,539,4
397,233,2,404,4
646,422,2,1023,4
347,191,275,393,4
633,321,65,916,4
571,251,7,424,4
155,292,1,0,4
299,31,2,391,4
463,122,2,780,4
22,65,2,536,4
145,193,3,1023,4
210,235,162,587,4
179,385,47,538,4
14,70,176,960,4
583,360,102,218,4
153,216,306,1023,4
712,684,372,793,4
212,508,100,296,4
228,20,13,562,4
158,104,1,41,4
60,59,2,308,4
12,165,2,283,4
161,228,3,601,4
196,70,2,456,4
59,143,2,272,4
180,152,2,262,4
103,96,2,189,4
300,112,2,102,4
134,220,2,639,4
220,171,2,655,4
480,351,2,275,4
245,162,3,851,4
24,15,2,278,4
54,111,2,51,4
51,84,2,876,4
262,113,2,324,4
287,288,2,581,4
76,76,3,836,4
142,181,2,397,4
101,152,2,269,4
143,27,2,534,4
39,27,2,437,4
322,208,2,662,4
133,131,2,439,4
99,36,3,925,4
310,122,2,813,4
356,365,2,521,4
76,567,2,883,4
228,147,2,11,4
35,83,2,352,4
150,268,2,563,4
132,18,2,353,4
179,219,2,663,4
359,371,1,361,4
91,115,2,141,4
131,471,3,873,4
22,7,2,737,4
571,188,3,919,4
198,139,1,462,4
75,135,2,838,4
40,141,1,34,4
356,263,2,0,4
134,58,2,309,4
90,103,2,731,4
107,105,2,58,4
365,411,2,647,4
7,110,2,45,4
123,293,2,182,4
328,180,3,699,4
52,233,2,180,4
63,107,2,747,4
10,74,2,173,4
13,263,2,531,4
68,59,2,322,4
131,131,3,853,4
156,383,2,105,4
193,333,2,592,4
106,53,2,429,4
83,155,2,108,4
178,167,2,411,4
61,19,2,151,4
255,37,2,212,4
51,188,2,226,4
14,47,2,561,4
46,71,2,640,4
59,135,2,114,4
4,7,2,435,4
292,334,2,301,4
347,443,2,51,4
2,9,2,430,4
46,17,2,117,4
3,63,2,217,4
181,158,2,214,4
135,125,2,291,4
5,12,2,494,4
183,162,2,65,4
232,143,2,35,4
8,60,2,152,4
149,28,2,71,4
184,246,2,236,4
292,455,2,740,4
178,229,2,65,4
101,179,2,882,4
137,143,2,468,4
567,466,2,534,4
521,593,2,560,4
15,26,2,68,4
67,268,2,266,4
191,142,2,451,4
206,19,2,129,4
2,22,2,181,4
130,33,2,53,4
33,106,2,648,4
185,249,2,463,4
173,24,2,457,4
161,242,2,584,4
122,67,2,362,4
10,107,2,32,4
332,573,2,804,4
365,222,2,37,4
364,720,2,683,4
98,98,2,135,4
107,218,2,147,4
225,421,2,50,4
243,244,2,222,4
406,445,2,105,4
200,160,2,28,4
268,326,2,48,4
28,154,2,230,4
20,65,2,47,4
198,233,2,40,4
32,82,2,17,4
147,191,2,43,4
54,119,2,3,4
43,22,2,555,4
5,106,2,302,4
191,68,3,899,4
281,402,2,362,4
208,23,2,179,4
119,172,2,67,4
21,69,2,195,4
136,198,2,85,4
211,367,2,146,4
274,317,2,137,4
247,210,2,164,4
282,311,2,68,4
186,169,2,31,4
133,176,2,44,4
169,197,2,86,4
29,8,2,10,4
135,82,2,32,4
37,113,2,49,4
79,73,2,9,4
13,19,2,72,4
12,5,2,42,4
97,117,2,57,4
82,66,2,60,4
23,11,2,33,4
9,21,2,86,4
120,191,2,0,4
49,22,2,36,4
85,123,2,6,4
106,91,2,17,4
51,83,2,58,4
69,158,2,96,4
143,180,2,32,4
81,154,2,53,4
283,337,2,1,4
38,75,1,88,4
139,138,2,3,4
84,155,2,9,4
197,158,2,70,4
154,132,2,9,4
36,19,2,54,4
23,67,2,14,4
137,131,2,53,4
87,149,2,42,4
109,88,2,22,4
18,28,2,125,4
20,36,2,43,4
23,67,2,37,4
73,123,2,38,4
163,169,2,33,4
60,25,2,63,4
81,97,2,38,4
131,129,2,39,4
125,164,2,41,4
140,158,2,5,4
1,48,2,62,4
132,121,2,29,4
171,159,2,9,4
104,52,2,96,4
86,21,2,57,4
76,11,2,158,4
79,62,2,25,4
78,47,2,49,4
2,20,2,22,4
34,58,2,40,4
106,142,2,103,4
23,13,2,37,4
89,21,2,6,4
4,103,2,68,4
90,73,2,0,4
165,186,2,67,4
60,24,2,33,4
59,11,2,27,4
80,66,2,51,4
114,53,2,19,4
117,125,2,122,4
187,119,2,14,4
223,172,2,27,4
32,35,2,31,4
187,185,2,162,4
14,16,2,68,4
31,109,2,40,4
22,79,2,54,4
266,250,2,29,4
133,131,2,42,4
226,164,2,62,4
59,130,2,17,4
110,137,2,15,4
48,95,2,76,4
145,99,2,0,4
10,27,2,75,4
11,29,2,43,4
28,13,2,49,4
90,143,2,31,4
63,129,2,57,4
33,20,2,155,4
387,338,2,20,4
227,194,2,69,4
52,104,2,65,4
67,33,2,128,4
5,104,2,101,4
62,37,2,75,4
271,237,2,60,4
14,29,2,58,4
92,140,2,23,4
6,14,2,119,4
17,27,2,39,4
18,47,2,31,4
0,50,2,144,4
49,37,2,241,4
138,207,2,26,4
90,107,2,173,4
11,59,2,162,4
116,63,2,148,4
39,106,2,70,4
3,54,2,45,4
199,187,2,40,4
27,81,2,0,4
97,65,2,102,4
238,211,2,7,4
228,248,2,47,4
2,31,2,64,4
48,52,2,264,4
45,59,2,225,4
102,114,2,52,4
21,106,2,166,4
179,122,2,148,4
11,86,2,147,4
86,52,2,30,4
89,106,2,218,4
67,12,2,95,4
114,17,2,31,4
73,156,2,302,4
47,83,2,270,4
142,95,2,266,4
116,90,2,479,4
27,34,2,120,4
109,115,2,0,4
210,225,2,49,4
6,8,2,317,4
139,206,2,232,4
133,147,2,111,4
42,51,2,241,4
8,13,2,0,4
136,51,2,10,4
198,89,2,32,4
91,139,2,103,4
65,41,2,75,4
216,182,2,106,4
166,128,2,24,4
91,133,2,58,4
20,48,2,61,4
23,77,2,154,4
206,102,2,20,4
42,72,2,7,4
65,58,2,8,4
55,18,2,212,4
18,38,2,235,4
31,10,2,0,4
45,21,2,309,4
208,157,2,50,4
117,41,2,522,4
51,219,2,291,4
87,147,2,529,4
128,258,2,416,4
55,46,2,481,4
331,328,2,791,4
194,91,2,82,4
52,69,3,1023,4
151,120,2,566,4
175,60,2,572,4
81,46,2,539,4
141,27,2,215,4
126,51,2,544,4
279,219,2,357,4
145,295,2,580,4
229,216,2,89,4
166,175,2,0,4
129,60,2,244,4
332,80,2,148,4
115,75,2,99,4
59,39,2,512,4
1,143,2,273,4
18,15,2,531,4
63,171,2,715,4
59,201,2,423,4
55,68,2,169,4
149,120,2,981,4
134,76,1,150,4
372,115,2,657,4
87,127,2,370,4
88,155,2,445,4
138,21,2,77,4
59,54,2,696,4
115,96,2,26,4
313,252,2,701,4
60,65,2,719,4
426,240,2,500,4
144,135,2,597,4
167,12,2,429,4
4,50,2,118,4
233,281,2,13,4
79,54,2,545,4
62,142,2,332,4
106,124,2,559,4
57,304,2,598,4
