Ch1,Ch2,Ch3,Ch4,label
40,12,67,13,1
84,42,69,72,1
16,189,23,4,1
2,86,114,57,1
26,181,76,18,1
81,215,113,0,1
48,22,101,0,1
45,164,72,28,1
58,125,41,56,1
94,8,35,26,1
35,136,72,15,1
47,71,5,14,1
56,66,20,3,1
33,29,120,35,1
52,71,82,113,1
8,197,103,31,1
95,56,138,168,1
75,271,3,0,1
24,72,101,17,1
2,125,87,76,1
49,85,8,2,1
25,111,108,57,1
10,68,154,151,1
50,57,51,9,1
19,100,67,87,1
22,22,65,43,1
69,19,100,125,1
51,244,93,8,1
63,40,3,0,1
3,140,4,0,1
23,9,79,0,1
12,7,87,172,1
33,81,92,45,1
19,51,58,0,1
22,170,2,0,1
85,194,5,29,1
31,13,5,40,1
1,29,30,68,1
31,16,138,136,1
29,110,268,209,1
59,41,118,120,1
0,46,78,84,1
3,98,7,37,1
31,10,44,0,1
29,83,57,84,1
83,163,21,6,1
81,7,91,52,1
14,22,50,17,1
7,77,25,150,1
36,95,33,33,1
48,190,249,254,1
41,11,6,1,1
35,122,62,109,1
64,31,29,43,1
7,106,73,18,1
2,10,242,187,1
74,47,215,107,1
55,6,108,82,1
10,8,61,42,1
42,213,17,0,1
12,9,160,130,1
82,145,174,237,1
47,53,100,3,1
23,17,109,87,1
201,12,45,73,1
95,24,93,66,1
51,155,91,301,1
173,274,157,250,1
144,205,109,173,1
6,130,107,17,1
35,71,142,27,1
1,22,33,49,1
4,119,370,386,1
93,87,8,127,1
34,166,415,264,1
1,142,164,5,1
129,153,432,353,1
21,13,30,59,1
17,92,230,78,1
60,146,506,373,1
75,43,98,229,1
63,106,554,383,1
139,10,162,1,1
397,585,184,86,1
118,115,58,61,1
136,214,74,32,1
18,52,454,181,1
17,46,313,117,1
194,137,41,9,1
36,116,135,24,1
204,268,102,146,1
29,18,207,38,1
97,37,396,401,1
116,105,287,162,1
59,171,604,327,1
68,29,88,84,1
224,173,515,354,1
25,83,245,96,1
140,81,20,23,1
184,82,155,157,1
12,23,404,363,1
3,182,37,116,1
258,426,317,420,1
63,172,86,62,1
13,26,326,329,1
32,19,165,8,1
212,181,109,66,1
89,188,175,173,1
5,24,202,0,1
206,37,381,318,1
70,149,9,52,1
24,42,424,277,1
180,38,3,2,1
177,103,213,82,1
185,235,152,0,1
504,370,203,273,1
136,210,390,98,1
499,258,208,41,1
478,496,246,196,1
131,115,385,280,1
102,27,155,55,1
108,455,33,42,1
60,133,390,454,1
100,104,399,205,1
368,217,232,473,1
109,46,612,348,1
36,169,522,715,1
140,144,629,449,1
4,109,457,499,1
288,193,40,230,1
17,139,1023,757,1
158,80,540,741,1
224,19,565,130,1
142,136,1012,871,1
3,151,251,542,1
659,422,557,322,1
223,291,270,282,1
152,298,358,343,1
180,454,463,174,1
105,106,417,133,1
7,39,523,268,1
43,16,80,58,1
137,400,593,529,1
148,175,9,149,1
108,199,475,554,1
170,12,275,144,1
208,118,151,305,1
319,328,322,186,1
42,13,410,200,1
310,523,486,290,1
299,346,33,109,1
134,120,98,125,1
178,441,4,30,1
184,137,225,162,1
49,83,54,45,1
224,38,131,263,1
255,274,104,356,1
55,7,64,356,1
68,12,24,124,1
16,193,27,4,1
46,359,386,668,1
178,208,511,46,1
287,252,833,673,1
52,98,126,131,1
188,202,903,817,1
81,170,580,568,1
216,18,375,359,1
277,25,270,11,1
71,76,98,151,1
31,204,76,25,1
63,85,39,141,1
5,10,390,259,1
144,34,26,91,1
28,138,443,559,1
250,258,147,126,1
55,24,475,365,1
180,169,255,237,1
292,44,203,216,1
90,9,420,0,1
83,40,612,312,1
208,7,35,17,1
89,66,86,155,1
51,77,108,77,1
395,126,597,1023,1
92,186,616,902,1
33,53,127,78,1
110,58,542,799,1
117,79,472,450,1
206,68,256,683,1
223,456,154,517,1
221,101,577,342,1
122,76,93,139,1
186,276,29,240,1
253,194,174,213,1
316,329,153,371,1
228,208,79,56,1
159,79,206,29,1
83,103,156,480,1
321,91,309,530,1
281,252,358,342,1
71,43,510,311,1
177,54,393,496,1
42,287,350,581,1
397,72,245,126,1
225,281,294,615,1
304,288,72,107,1
139,180,144,142,1
214,279,758,372,1
58,137,323,167,1
132,242,23,5,1
188,146,231,355,1
207,198,153,342,1
376,129,82,17,1
468,53,73,61,1
402,86,137,109,1
121,28,79,387,1
108,296,229,296,1
290,93,86,210,1
193,505,259,311,1
126,255,192,9,1
129,38,272,387,1
336,331,57,188,1
198,335,388,376,1
4,92,424,752,1
162,271,340,83,1
259,8,680,1023,1
37,126,291,83,1
30,90,566,609,1
30,100,461,165,1
185,158,167,0,1
211,125,224,603,1
237,145,26,20,1
118,205,647,724,1
44,181,425,181,1
121,349,92,43,1
177,166,499,547,1
362,235,500,471,1
503,282,972,801,1
255,107,269,132,1
188,43,683,227,1
237,171,100,5,1
329,66,504,588,1
496,109,141,113,1
56,38,149,219,1
60,15,313,170,1
147,143,417,326,1
140,84,454,464,1
192,185,219,356,1
122,100,158,337,1
6,238,81,158,1
72,26,48,282,1
262,36,406,589,1
66,167,280,450,1
207,182,390,582,1
126,64,204,427,1
33,125,29,174,1
193,121,250,1,1
242,308,162,157,1
210,36,89,0,1
109,32,335,655,1
107,157,472,105,1
26,54,404,359,1
58,22,337,533,1
321,168,54,199,1
228,233,63,169,1
24,216,310,360,1
65,133,182,98,1
47,11,101,226,1
209,10,251,685,1
186,92,169,579,1
323,36,238,222,1
21,141,339,712,1
41,8,146,162,1
160,160,37,291,1
79,34,245,381,1
116,109,187,245,1
14,34,134,243,1
78,23,132,101,1
64,20,2,20,1
48,108,78,85,1
71,91,264,213,1
143,9,26,32,1
45,5,6,6,1
52,78,241,389,1
291,28,462,708,1
262,14,44,38,1
201,80,108,220,1
4,55,279,76,1
185,262,315,289,1
235,326,323,184,1
87,107,244,255,1
22,140,108,14,1
21,25,101,0,1
49,10,177,246,1
60,22,313,282,1
143,69,82,0,1
2,39,215,277,1
103,92,50,47,1
98,37,250,158,1
148,57,133,42,1
107,173,247,221,1
82,5,59,223,1
6,28,160,44,1
36,27,92,95,1
16,18,91,117,1
111,61,108,129,1
91,60,43,136,1
16,15,32,39,1
33,41,385,324,1
104,175,289,277,1
71,55,22,24,1
87,154,345,141,1
46,40,223,93,1
62,12,146,0,1
43,23,175,55,1
134,70,89,188,1
168,57,119,185,1
111,198,311,337,1
8,295,209,295,1
399,305,51,82,1
337,275,193,123,1
36,44,115,129,1
219,135,265,176,1
17,129,10,49,1
42,95,328,383,1
14,24,90,250,1
21,33,153,136,1
32,85,77,77,1
109,7,86,129,1
288,141,377,250,1
127,17,237,43,1
65,115,152,53,1
57,6,357,275,1
285,341,188,238,1
71,168,145,126,1
24,52,526,409,1
65,118,615,478,1
181,182,111,159,1
59,96,177,31,1
13,76,148,19,1
66,52,9,88,1
78,111,88,5,1
19,57,43,21,1
94,11,176,19,1
28,74,39,244,1
5,54,119,120,1
173,236,93,249,1
55,208,58,47,1
427,176,38,88,1
95,28,18,28,1
35,24,89,9,1
165,244,168,190,1
352,307,66,18,1
67,125,18,63,1
20,112,3,152,1
118,10,173,0,1
70,32,251,169,1
27,104,280,228,1
13,39,100,140,1
12,26,45,42,1
114,80,476,350,1
37,111,121,132,1
236,204,280,167,1
146,198,159,79,1
36,130,161,236,1
139,10,5,19,1
60,48,74,216,1
15,35,86,64,1
11,99,77,29,1
135,82,80,80,1
152,51,204,20,1
37,17,159,7,1
36,71,291,222,1
85,224,293,354,1
80,255,286,238,1
4,23,285,320,1
117,155,82,197,1
64,38,129,31,1
170,76,276,533,1
50,45,345,170,1
67,10,66,126,1
305,228,127,56,1
203,171,203,138,1
5,77,267,386,1
50,32,298,44,1
56,190,226,348,1
109,68,168,100,1
47,24,286,283,1
41,143,294,306,1
39,47,112,190,1
123,269,57,54,1
15,25,182,280,1
83,182,279,209,1
94,10,339,404,1
157,173,291,4,1
5,78,33,127,1
133,95,50,39,1
45,133,11,102,1
15,8,183,106,1
77,89,262,205,1
28,80,252,76,1
179,49,54,24,1
62,100,34,64,1
169,15,95,236,1
10,12,19,2,1
65,60,63,154,1
61,162,342,314,1
139,80,5,153,1
129,118,554,654,1
103,93,37,11,1
13,183,231,133,1
191,155,260,280,1
6,12,52,67,1
100,119,187,94,1
87,91,198,54,1
13,100,249,151,1
113,172,7,20,1
251,348,104,146,1
170,172,270,161,1
60,93,61,145,1
73,38,84,11,1
115,103,147,309,1
270,478,489,145,1
87,226,214,331,1
180,128,503,347,1
145,14,237,334,1
117,278,269,151,1
49,50,167,180,1
102,56,204,259,1
78,127,125,95,1
58,95,104,143,1
61,65,78,52,1
101,245,5,0,1
66,49,189,0,1
104,61,199,6,1
107,45,43,57,1
66,33,61,90,1
30,17,230,157,1
46,119,106,0,1
42,102,218,151,1
9,81,331,496,1
72,170,282,50,1
30,60,806,708,1
178,217,71,151,1
230,93,234,226,1
70,14,131,31,1
23,206,42,58,1
56,88,133,212,1
56,61,76,0,1
14,7,19,0,1
121,142,175,113,1
102,105,17,53,1
26,67,67,27,1
128,145,100,94,1
102,8,243,56,1
87,113,113,144,1
2,18,235,55,1
88,65,119,36,1
83,78,132,68,1
62,126,118,112,1
170,130,4,6,1
29,33,40,0,1
81,35,51,94,1
19,110,16,11,1
134,128,16,135,1
161,135,232,147,1
11,51,217,162,1
20,12,45,49,1
100,30,213,178,1
48,231,17,93,1
1,114,35,57,1
17,10,20,114,1
145,25,2,91,1
114,41,138,27,1
73,177,115,162,1
27,68,21,0,1
151,212,92,93,1
8,66,155,15,1
119,104,158,175,1
73,227,100,87,1
57,160,23,81,1
13,70,97,52,1
65,139,36,0,1
25,9,85,65,1
8,45,65,86,1
52,176,179,41,1
164,199,53,60,1
28,43,52,9,1
76,10,62,41,1
37,163,81,0,1
84,16,84,19,1
1,10,125,33,1
180,229,54,20,1
172,253,84,93,1
49,75,36,80,1
20,9,72,36,1
120,73,58,9,1
55,9,78,52,1
10,9,125,57,1
50,95,83,92,1
153,184,132,65,1
7,77,21,47,1
7,49,13,0,1
50,5,74,114,1
52,28,136,147,1
3,6,12,56,1
27,31,67,12,1
1,100,56,0,1
72,204,13,41,1
85,146,64,57,1
13,91,6,13,1
24,201,93,126,1
18,39,25,1,1
70,73,10,0,1
99,191,4,0,1
21,8,25,0,1
190,150,111,91,1
30,64,2,0,1
3,24,25,69,1
33,100,181,271,1
17,116,67,0,1
94,145,323,349,1
77,162,38,6,1
52,135,74,105,1
75,76,111,149,1
44,48,14,140,1
0,10,58,0,1
35,103,92,106,1
87,145,8,155,1
39,19,425,221,1
52,60,206,185,1
79,76,537,362,1
118,171,59,127,1
26,14,317,326,1
116,72,238,144,1
235,156,237,214,1
103,70,157,99,1
144,158,78,0,1
54,167,10,198,1
61,96,211,40,1
59,110,211,112,1
155,204,30,51,1
56,75,220,124,1
85,66,70,87,1
43,63,277,89,1
85,186,430,225,1
34,10,439,236,1
197,182,133,0,1
32,73,434,236,1
109,256,255,421,1
29,184,492,118,1
116,134,341,250,1
61,108,70,0,1
46,45,19,142,1
132,69,149,65,1
90,222,249,248,1
130,50,491,376,1
98,133,282,251,1
50,20,112,50,1
206,263,226,193,1
130,132,213,218,1
57,191,686,399,1
110,29,138,162,1
4,165,98,8,1
51,161,371,269,1
9,101,92,49,1
97,59,294,300,1
37,101,252,137,1
3,30,322,396,1
151,56,327,73,1
33,36,279,281,1
129,14,87,186,1
27,95,28,8,1
60,22,522,325,1
127,15,31,31,1
65,29,508,228,1
3,136,283,281,1
3,217,730,516,1
74,207,428,382,1
116,122,176,26,1
197,161,9,47,1
90,11,64,167,1
4,13,3,235,1
12,43,15,239,1
127,196,28,30,1
185,178,70,32,1
178,175,261,121,1
48,333,41,114,1
22,201,229,409,1
155,244,202,285,1
134,276,267,365,1
67,191,7,0,1
109,87,313,142,1
10,152,75,2,1
168,174,36,50,1
78,27,378,154,1
149,89,130,62,1
31,64,467,465,1
10,51,254,186,1
153,67,279,237,1
228,232,555,432,1
28,9,321,154,1
131,83,230,109,1
178,225,49,6,1
132,19,194,210,1
83,163,150,205,1
79,63,19,90,1
144,144,256,188,1
11,73,134,0,1
411,440,11,110,1
52,150,42,59,1
400,261,71,227,1
294,131,141,96,1
24,115,647,654,1
303,368,306,307,1
138,39,500,387,1
48,176,121,300,1
70,422,432,218,1
38,150,134,210,1
302,248,365,84,1
133,6,116,147,1
29,89,137,58,1
111,22,22,243,1
82,14,629,328,1
32,16,555,570,1
13,113,116,145,1
81,16,389,314,1
113,92,105,216,1
78,90,57,35,1
54,168,4,178,1
9,24,20,19,1
262,126,62,158,1
313,35,65,230,1
22,118,279,371,1
188,18,540,445,1
108,42,242,402,1
267,297,522,214,1
311,330,123,3,1
16,7,34,77,1
68,134,325,285,1
163,16,44,7,1
211,189,85,98,1
340,478,357,6,1
23,117,398,194,1
107,190,347,318,1
22,70,154,73,1
306,53,174,28,1
304,191,62,115,1
28,68,151,81,1
153,101,68,68,1
202,16,24,31,1
399,297,539,564,1
71,121,292,235,1
294,85,326,334,1
349,471,539,275,1
61,12,847,708,1
184,55,159,309,1
64,120,364,393,1
75,78,465,566,1
93,16,296,24,1
21,53,243,213,1
237,6,222,279,1
124,101,139,18,1
134,81,74,17,1
160,29,25,34,1
84,73,31,41,1
222,144,98,283,1
192,104,237,34,1
12,23,60,372,1
32,191,83,0,1
62,29,27,465,1
73,419,123,308,1
264,85,330,601,1
10,242,372,647,1
174,29,402,324,1
278,187,865,749,1
136,13,325,110,1
42,15,736,671,1
527,80,94,13,1
109,88,178,256,1
22,212,151,85,1
12,72,278,21,1
360,16,269,134,1
23,14,338,410,1
439,68,375,0,1
144,148,409,370,1
309,73,217,208,1
7,147,156,7,1
150,12,38,134,1
151,55,132,256,1
419,36,509,700,1
72,200,138,19,1
425,115,408,127,1
24,28,368,170,1
54,105,20,44,1
215,135,369,345,1
3,99,123,84,1
74,13,240,204,1
12,323,47,9,1
538,538,86,167,1
188,8,333,83,1
24,128,192,563,1
263,21,220,243,1
277,167,430,0,1
3,35,289,198,1
42,185,846,1010,1
122,38,106,314,1
39,83,632,602,1
114,90,467,711,1
129,135,17,234,1
31,61,688,716,1
7,163,179,446,1
231,163,251,0,1
215,23,785,931,1
91,159,73,324,1
100,122,699,723,1
370,61,401,210,1
161,100,21,8,1
134,309,219,42,1
314,105,556,267,1
130,193,328,249,1
13,110,80,240,1
419,84,370,495,1
62,27,76,91,1
83,99,504,539,1
164,110,14,2,1
130,63,234,198,1
15,60,80,360,1
20,72,33,119,1
206,198,228,13,1
223,55,562,464,1
387,223,488,470,1
4,38,40,229,1
376,55,47,82,1
49,42,37,39,1
49,16,264,277,1
371,141,53,29,1
113,78,257,456,1
235,7,3,78,1
151,160,394,481,1
130,69,421,435,1
273,411,29,70,1
70,119,211,277,1
133,320,739,476,1
163,204,312,112,1
134,221,182,79,1
3,145,185,260,1
60,56,77,151,1
144,106,134,252,1
68,134,111,119,1
233,14,17,94,1
8,313,37,0,1
68,145,70,46,1
74,23,380,387,1
172,13,75,38,1
124,32,370,403,1
71,56,36,298,1
33,71,110,3,1
35,79,371,638,1
29,22,6,62,1
8,7,164,228,1
16,99,325,279,1
41,108,105,16,1
42,89,157,35,1
153,53,645,635,1
135,23,80,346,1
189,16,500,392,1
109,243,198,190,1
18,57,153,303,1
95,41,278,446,1
46,123,369,578,1
160,232,15,175,1
40,85,244,255,1
42,49,298,506,1
215,197,279,36,1
264,271,125,329,1
123,183,185,284,1
6,32,40,61,1
17,129,8,36,1
66,39,97,147,1
42,16,327,463,1
262,64,416,387,1
41,20,128,20,1
178,123,263,290,1
5,53,354,545,1
11,22,329,543,1
12,37,325,309,1
124,209,528,612,1
269,73,157,139,1
8,226,254,419,1
50,14,217,583,1
33,141,314,94,1
85,24,148,148,1
79,20,323,252,1
133,19,453,546,1
93,28,34,133,1
245,127,135,27,1
7,42,29,98,1
0,27,595,502,1
85,40,44,224,1
77,171,11,91,1
18,99,501,493,1
194,37,120,123,1
8,39,154,124,1
4,6,289,283,1
18,35,6,54,1
6,23,61,0,1
51,64,69,101,1
138,19,193,308,1
103,89,270,23,1
171,99,305,356,1
9,9,58,27,1
70,157,81,105,1
10,21,251,369,1
94,145,202,151,1
207,154,39,82,1
5,24,117,99,1
25,14,46,59,1
66,97,291,357,1
28,74,213,472,1
37,112,141,84,1
72,152,215,416,1
88,20,170,292,1
46,142,266,117,1
92,120,95,4,1
157,204,182,383,1
23,20,31,5,1
27,17,380,445,1
0,85,145,35,1
64,125,13,131,1
124,32,45,71,1
51,20,152,73,1
45,70,45,0,1
14,78,481,459,1
21,124,201,0,1
25,96,235,111,1
174,133,333,275,1
36,16,70,108,1
9,34,236,99,1
64,16,8,116,1
8,67,98,59,1
26,61,158,94,1
13,34,74,41,1
61,41,1,88,1
130,157,137,10,1
162,219,64,0,1
27,21,225,224,1
7,26,263,215,1
150,118,204,49,1
95,22,58,11,1
35,20,115,24,1
50,100,63,24,1
1,130,122,13,1
83,86,321,277,1
191,163,230,198,1
46,154,140,204,1
83,126,261,207,1
6,32,221,152,1
59,29,41,158,1
11,19,53,30,1
61,229,213,122,1
30,129,117,120,1
17,11,260,87,1
90,218,42,1,1
111,225,371,333,1
7,176,90,22,1
173,68,123,105,1
42,114,50,114,1
155,69,148,0,1
136,29,90,84,1
223,214,163,163,1
219,231,563,216,1
88,198,557,261,1
27,41,169,69,1
126,291,5,41,1
5,50,180,112,1
115,195,6,0,1
60,67,197,0,1
23,181,11,103,1
53,117,231,298,1
124,231,93,7,1
16,271,41,141,1
59,11,237,189,1
11,52,127,13,1
70,12,203,74,1
202,154,5,178,1
19,47,231,14,1
20,81,356,11,1
39,26,128,187,1
109,9,168,158,1
227,287,131,90,1
284,375,11,57,1
54,86,21,18,1
198,264,410,155,1
207,380,195,2,1
16,113,21,77,1
43,168,18,27,1
180,305,206,29,1
217,152,250,133,1
122,307,204,0,1
112,28,207,283,1
82,170,105,63,1
82,203,114,127,1
82,253,77,97,1
12,115,89,19,1
76,27,52,86,1
153,261,318,381,1
142,210,313,435,1
63,14,326,231,1
4,31,239,305,1
180,14,100,35,1
199,17,168,374,1
150,74,15,56,1
23,77,123,165,1
10,12,80,33,1
6,56,111,0,1
93,138,8,62,1
315,467,250,39,1
34,64,164,252,1
111,48,49,75,1
265,210,129,14,1
108,146,41,94,1
81,42,6,21,1
47,157,239,180,1
405,17,422,217,1
47,39,110,19,1
87,186,276,147,1
8,61,23,127,1
34,106,49,85,1
3,16,73,168,1
90,287,264,76,1
97,160,149,240,1
181,71,14,0,1
41,47,112,133,1
154,160,326,85,1
36,15,1,4,1
51,11,159,169,1
53,80,8,138,1
129,9,143,136,1
75,27,84,127,1
143,51,47,0,1
54,62,52,0,1
28,8,13,0,1
61,73,143,294,1
161,167,72,10,1
87,172,236,263,1
11,12,71,151,1
106,103,201,27,1
198,162,172,190,1
118,145,220,107,1
26,84,116,68,1
169,52,181,67,1
209,103,178,209,1
168,171,52,160,1
112,247,116,205,1
70,24,40,290,1
124,171,117,86,1
54,138,55,244,1
149,81,108,48,1
39,27,49,68,1
243,251,83,59,1
80,133,205,243,1
25,122,10,62,1
6,125,233,364,1
33,79,146,40,1
111,106,148,138,1
70,90,48,41,1
69,135,99,21,1
62,37,211,147,1
178,40,160,28,1
299,158,72,17,1
69,26,4,61,1
53,203,77,1,1
57,22,89,89,1
49,38,17,113,1
27,105,184,91,1
126,27,7,20,1
140,253,34,10,1
126,226,14,0,1
137,197,83,91,1
259,271,125,26,1
61,62,59,8,1
176,139,99,104,1
41,34,107,9,1
42,12,53,22,1
41,103,36,0,1
2,15,113,21,1
6,10,83,163,1
125,205,12,36,1
135,151,34,34,1
210,275,79,40,1
91,104,3,22,1
11,76,39,0,1
35,23,50,29,1
40,11,16,61,1
99,174,12,5,1
209,170,154,9,1
3,12,22,44,1
102,82,155,62,1
37,131,156,39,1
93,33,40,0,1
224,285,87,68,1
40,24,114,37,1
16,48,123,29,1
81,98,23,65,1
173,251,16,0,1
65,175,29,0,1
81,164,36,114,1
91,125,36,69,1
3,57,11,43,1
292,285,133,29,1
121,124,87,14,1
60,126,5,0,1
8,14,102,15,1
8,74,103,0,1
195,388,110,79,1
4,146,45,37,1
242,290,97,167,1
54,89,329,94,1
164,246,23,67,1
146,229,290,140,1
76,75,204,48,1
57,67,117,0,1
13,15,114,63,1
22,16,80,10,1
68,75,15,56,1
79,154,285,67,1
26,206,2,167,1
92,13,21,23,1
9,12,52,15,1
7,19,276,55,1
60,28,101,142,1
8,40,471,176,1
75,34,370,276,1
27,85,115,100,1
40,14,576,494,1
47,21,236,407,1
23,70,227,76,1
177,300,455,407,1
164,355,65,38,1
106,159,214,140,1
8,70,71,67,1
153,250,147,1,1
56,69,519,298,1
13,89,202,260,1
132,135,229,26,1
52,62,161,192,1
3,31,313,202,1
174,182,139,15,1
159,147,233,248,1
207,108,250,173,1
32,131,172,80,1
114,193,24,128,1
115,39,63,216,1
144,40,226,453,1
30,59,233,276,1
189,135,327,388,1
67,142,9,44,1
179,13,215,290,1
83,39,101,41,1
78,49,316,202,1
117,19,478,365,1
435,306,314,412,1
3,182,542,433,1
47,15,196,143,1
100,211,494,190,1
52,102,205,270,1
83,359,664,293,1
220,89,210,192,1
140,43,40,122,1
50,92,353,64,1
85,46,139,203,1
233,202,458,186,1
202,345,89,62,1
20,51,140,209,1
269,188,103,49,1
27,106,329,253,1
52,49,321,20,1
20,113,520,231,1
44,91,40,44,1
88,148,239,69,1
215,347,147,13,1
173,164,172,48,1
38,78,351,240,1
152,137,226,30,1
35,10,457,294,1
293,55,55,89,1
357,235,669,558,1
50,358,48,3,1
55,39,515,374,1
359,283,407,135,1
385,194,93,165,1
129,168,599,219,1
254,23,86,274,1
119,26,364,130,1
5,15,96,59,1
11,41,70,112,1
100,100,354,285,1
168,233,349,557,1
327,545,580,595,1
599,407,470,306,1
623,285,663,501,1
242,287,256,98,1
51,343,416,175,1
90,71,199,308,1
91,257,231,375,1
155,263,56,37,1
255,128,243,368,1
18,11,301,335,1
13,21,387,253,1
137,500,52,0,1
349,788,222,314,1
316,414,363,271,1
225,322,31,160,1
46,174,50,10,1
41,199,158,93,1
218,275,211,161,1
55,61,137,121,1
351,46,90,34,1
127,31,36,7,1
166,299,128,85,1
235,94,378,213,1
229,357,208,324,1
15,29,282,216,1
55,24,185,105,1
88,278,557,217,1
22,156,219,184,1
373,60,499,492,1
96,343,398,497,1
264,415,409,363,1
394,284,339,277,1
121,22,56,106,1
77,100,30,22,1
7,60,135,16,1
34,80,251,126,1
89,92,43,54,1
143,44,423,537,1
109,286,226,354,1
460,133,111,214,1
165,345,216,249,1
183,14,50,224,1
49,182,92,241,1
14,108,278,25,1
124,165,134,34,1
97,76,79,170,1
42,83,111,79,1
275,421,219,254,1
301,184,944,533,1
87,229,203,227,1
445,314,592,273,1
96,28,468,470,1
48,17,596,273,1
47,34,1023,1023,1
256,90,287,769,1
187,142,744,642,1
342,152,155,329,1
239,271,300,134,1
88,265,126,303,1
0,89,176,519,1
122,213,129,30,1
185,19,11,103,1
447,148,31,6,1
85,406,159,3,1
342,190,67,254,1
118,10,55,151,1
67,25,38,18,1
99,14,38,281,1
251,32,225,307,1
91,18,298,193,1
248,55,299,150,1
381,157,124,31,1
76,130,228,254,1
81,90,88,236,1
294,417,184,270,1
71,77,76,286,1
86,180,252,392,1
158,162,155,51,1
125,66,435,165,1
201,69,251,158,1
303,22,793,994,1
127,82,621,780,1
249,128,591,561,1
16,75,407,773,1
6,70,340,270,1
31,10,83,134,1
185,351,264,276,1
301,361,36,64,1
103,297,486,406,1
30,19,36,0,1
57,33,668,590,1
406,338,167,59,1
605,513,341,31,1
405,313,278,186,1
68,24,207,66,1
66,23,375,502,1
279,25,223,241,1
52,147,594,298,1
61,9,276,304,1
20,154,569,389,1
163,73,3,114,1
238,280,151,161,1
78,157,315,216,1
275,204,526,580,1
304,441,76,50,1
70,125,329,398,1
51,28,358,255,1
10,50,177,88,1
202,223,307,186,1
150,11,281,0,1
30,14,16,363,1
88,43,172,37,1
144,102,256,309,1
63,105,17,72,1
2,45,18,0,1
263,309,334,417,1
73,65,226,74,1
49,90,49,2,1
122,180,31,85,1
21,19,143,272,1
482,418,112,11,1
274,215,325,308,1
61,7,145,227,1
193,237,446,512,1
204,25,388,481,1
16,259,36,147,1
110,91,484,656,1
20,39,252,337,1
31,28,31,211,1
186,169,503,639,1
179,136,326,366,1
53,126,163,431,1
71,19,385,571,1
190,260,146,330,1
434,473,494,258,1
475,174,212,349,1
236,243,360,83,1
155,11,513,605,1
322,52,389,252,1
378,34,415,462,1
32,59,98,7,1
151,47,244,23,1
191,20,571,395,1
70,37,102,52,1
364,35,88,77,1
323,62,551,386,1
290,360,7,43,1
36,251,167,27,1
131,63,135,68,1
74,200,159,210,1
16,60,296,120,1
23,30,184,133,1
116,88,257,255,1
118,13,390,538,1
16,125,453,200,1
100,36,303,358,1
80,164,189,69,1
201,78,412,422,1
4,45,57,325,1
96,179,212,76,1
179,129,320,493,1
431,329,264,579,1
533,573,134,244,1
303,179,17,50,1
273,79,30,93,1
72,38,42,0,1
33,190,182,281,1
65,125,203,426,1
78,74,140,82,1
93,24,130,9,1
145,13,183,379,1
278,107,460,915,1
231,104,168,58,1
38,104,729,1023,1
5,108,305,362,1
1,53,767,721,1
9,206,328,320,1
135,198,412,453,1
225,224,447,478,1
258,88,74,101,1
40,15,259,430,1
369,126,109,0,1
236,187,19,235,1
206,172,6,235,1
175,49,210,155,1
0,12,138,371,1
0,33,124,119,1
205,23,532,751,1
20,42,179,392,1
34,105,235,200,1
29,19,257,146,1
170,477,77,84,1
113,75,78,112,1
70,247,213,437,1
10,71,73,190,1
258,323,12,333,1
112,243,28,38,1
165,139,318,478,1
82,23,351,340,1
123,137,214,192,1
154,296,484,660,1
205,123,14,26,1
78,261,457,689,1
79,21,450,549,1
168,76,108,133,1
132,303,436,413,1
433,98,34,144,1
44,13,171,143,1
93,225,64,87,1
132,112,216,80,1
187,173,347,629,1
10,53,376,285,1
60,71,67,154,1
48,11,443,568,1
142,28,329,194,1
7,58,13,41,1
4,97,11,66,1
98,72,153,127,1
23,190,185,221,1
32,120,61,202,1
221,167,26,98,1
85,19,82,169,1
121,121,38,0,1
5,54,8,181,1
23,23,36,17,1
30,58,72,236,1
19,24,372,362,1
150,61,49,110,1
171,125,243,276,1
25,54,113,150,1
58,46,175,271,1
205,75,160,352,1
3,45,130,60,1
227,145,169,163,1
123,33,6,63,1
75,7,21,63,1
26,65,2,64,1
42,28,134,134,1
102,37,61,200,1
69,127,117,122,1
37,9,191,331,1
82,48,254,284,1
146,124,220,347,1
68,27,14,24,1
132,146,23,113,1
192,108,203,260,1
70,93,156,99,1
0,11,130,184,1
88,63,206,132,1
19,35,377,320,1
58,69,351,391,1
33,72,245,87,1
98,107,59,25,1
123,55,351,226,1
165,80,190,209,1
20,27,290,367,1
57,162,77,106,1
27,83,224,269,1
91,113,195,398,1
36,50,184,358,1
71,86,389,45,1
74,16,425,509,1
249,366,156,128,1
71,171,71,353,1
575,599,599,693,1
156,145,4,581,1
318,403,12,0,1
18,163,501,161,1
26,16,396,230,1
10,232,19,64,1
70,48,387,280,1
106,121,4,277,1
36,17,297,298,1
44,22,24,456,1
41,50,333,65,1
169,141,113,274,1
272,226,156,4,1
68,197,80,69,1
104,8,155,210,1
67,36,44,312,1
175,129,442,343,1
259,58,115,95,1
122,115,363,454,1
62,204,6,55,1
55,21,37,7,1
12,33,199,19,1
74,215,235,194,1
37,28,38,147,1
105,8,257,185,1
44,58,132,41,1
82,41,348,216,1
4,176,165,149,1
25,169,20,0,1
7,28,346,305,1
90,48,145,0,1
2,16,453,612,1
152,261,257,23,1
59,34,400,342,1
41,121,190,0,1
94,7,106,192,1
163,217,50,14,1
60,113,155,332,1
80,79,51,43,1
27,15,59,40,1
4,63,275,324,1
239,48,269,371,1
79,48,6,30,1
23,69,95,114,1
134,123,56,61,1
194,157,18,99,1
62,24,157,65,1
41,40,113,197,1
28,17,127,143,1
3,154,53,126,1
144,211,185,224,1
11,7,74,9,1
23,40,383,286,1
4,49,37,257,1
49,45,248,134,1
168,81,102,83,1
88,148,110,299,1
131,52,61,79,1
58,50,11,68,1
155,109,191,198,1
218,374,159,150,1
76,182,201,142,1
308,379,243,9,1
7,75,250,238,1
153,16,363,192,1
20,133,14,30,1
7,7,138,102,1
98,76,13,0,1
125,189,388,386,1
325,34,206,210,1
159,107,523,482,1
46,5,106,0,1
18,36,45,3,1
36,101,158,55,1
174,264,65,77,1
23,123,45,30,1
5,7,285,302,1
148,52,27,0,1
16,51,134,249,1
53,181,121,147,1
37,29,56,227,1
134,232,237,213,1
55,6,53,119,1
126,137,429,292,1
172,36,59,205,1
100,89,512,418,1
101,67,17,12,1
5,31,313,237,1
10,126,17,101,1
126,312,127,101,1
106,38,94,99,1
93,231,226,99,1
34,161,195,134,1
55,8,14,117,1
88,18,59,69,1
16,76,338,341,1
45,134,2,101,1
32,39,335,435,1
100,65,230,274,1
70,36,246,121,1
143,88,286,303,1
90,83,308,191,1
118,45,162,200,1
129,212,112,129,1
163,59,120,100,1
357,235,61,10,1
238,295,183,178,1
93,36,122,66,1
18,23,26,154,1
132,17,28,79,1
90,8,127,53,1
162,54,46,0,1
46,41,98,115,1
2,50,357,449,1
54,6,271,5,1
3,82,852,805,1
40,38,91,53,1
2,7,246,388,1
69,55,204,64,1
25,150,150,148,1
6,32,93,38,1
133,6,228,203,1
172,66,21,48,1
7,9,119,0,1
3,61,87,105,1
54,27,315,128,1
163,123,212,178,1
137,145,161,0,1
81,80,31,6,1
14,61,55,42,1
32,40,100,24,1
26,37,93,231,1
176,306,355,194,1
36,120,8,207,1
120,83,468,397,1
93,77,112,0,1
38,35,74,182,1
85,21,259,233,1
78,157,175,161,1
77,26,126,224,1
121,40,125,38,1
42,41,74,186,1
102,50,172,75,1
58,57,27,99,1
67,96,20,44,1
34,30,77,23,1
1,39,106,15,1
111,114,137,304,1
27,75,22,15,1
158,259,16,124,1
21,25,193,174,1
81,168,207,34,1
4,35,357,363,1
116,34,112,30,1
75,6,52,40,1
58,99,10,77,1
17,50,92,22,1
151,203,173,191,1
87,74,90,0,1
31,29,305,244,1
18,34,62,13,2
110,203,286,290,2
221,213,351,197,2
108,173,15,9,2
194,150,227,84,2
10,10,533,387,2
119,119,224,166,2
63,75,374,167,2
9,5,281,185,2
215,154,104,29,2
72,75,121,89,2
111,79,23,116,2
12,111,190,95,2
49,121,25,0,2
54,155,234,9,2
27,26,71,147,2
61,189,95,185,2
55,51,47,125,2
60,169,106,19,2
112,133,446,287,2
116,274,153,337,2
112,184,125,37,2
140,223,192,360,2
269,514,80,10,2
245,159,204,279,2
156,168,281,53,2
206,265,47,63,2
83,56,283,0,2
70,147,266,187,2
122,133,159,128,2
83,78,34,12,2
141,175,391,169,2
228,169,45,87,2
45,12,86,235,2
24,130,104,6,2
119,95,8,26,2
158,158,383,209,2
162,9,370,395,2
96,180,131,34,2
224,276,283,362,2
16,169,96,88,2
266,275,285,204,2
33,23,197,139,2
28,158,466,486,2
138,46,174,22,2
77,74,484,521,2
153,45,139,279,2
199,194,428,391,2
66,53,11,258,2
142,116,341,362,2
79,118,224,150,2
18,34,19,183,2
537,394,203,201,2
113,48,6,205,2
283,376,380,268,2
227,196,9,174,2
288,123,183,2,2
78,206,9,154,2
66,22,254,61,2
51,181,343,174,2
226,138,457,62,2
346,248,419,130,2
19,14,24,262,2
212,162,65,146,2
31,27,133,191,2
327,320,8,120,2
205,81,160,303,2
346,108,40,257,2
43,114,3,214,2
8,282,78,168,2
157,113,522,391,2
136,63,660,492,2
140,157,20,128,2
28,212,564,419,2
137,115,312,555,2
28,155,549,390,2
211,434,298,505,2
34,45,487,439,2
88,173,120,211,2
181,52,241,164,2
37,106,141,74,2
411,343,525,499,2
96,11,110,100,2
41,33,597,346,2
122,13,191,355,2
94,12,335,441,2
133,45,307,498,2
60,81,250,248,2
5,21,53,355,2
353,176,712,526,2
670,707,152,321,2
256,109,724,575,2
266,555,238,318,2
360,344,292,328,2
93,16,107,134,2
25,23,3,0,2
8,401,397,245,2
366,437,179,112,2
505,625,386,73,2
139,219,105,27,2
400,107,77,309,2
75,230,125,0,2
5,358,305,815,2
70,353,239,114,2
487,459,495,401,2
578,650,201,336,2
57,74,577,512,2
687,457,406,340,2
13,113,65,198,2
127,83,300,338,2
8,113,229,234,2
154,404,262,62,2
260,346,360,108,2
217,88,552,335,2
209,85,13,67,2
462,349,228,133,2
127,129,612,1023,2
446,354,414,712,2
268,74,215,16,2
301,359,460,696,2
115,208,12,133,2
158,536,431,33,2
140,119,312,145,2
216,229,231,241,2
32,72,138,52,2
131,316,264,242,2
117,82,51,24,2
28,102,38,174,2
11,103,192,330,2
239,518,163,3,2
304,194,79,96,2
108,312,108,62,2
381,261,469,214,2
26,397,70,66,2
138,215,422,404,2
384,263,8,53,2
287,185,432,152,2
154,250,135,277,2
234,222,114,219,2
124,266,221,174,2
140,91,163,39,2
91,146,64,171,2
246,450,351,418,2
4,63,16,11,2
243,145,297,546,2
13,106,237,40,2
727,504,275,146,2
329,458,725,269,2
134,293,197,171,2
609,671,154,186,2
85,282,118,43,2
168,359,96,135,2
511,583,15,53,2
388,249,207,24,2
17,125,93,96,2
271,43,303,249,2
214,269,249,387,2
96,73,84,14,2
145,20,410,226,2
74,207,53,0,2
277,470,322,198,2
230,28,238,131,2
264,366,207,123,2
27,61,11,357,2
211,315,205,355,2
11,177,345,509,2
182,114,354,58,2
136,46,188,137,2
110,195,304,136,2
114,55,231,416,2
71,39,41,229,2
2,114,259,385,2
12,117,260,318,2
367,797,180,22,2
319,256,58,320,2
365,320,536,169,2
149,7,751,759,2
55,108,176,0,2
120,24,720,576,2
139,272,241,293,2
76,71,503,521,2
118,161,32,199,2
251,49,264,106,2
50,183,12,60,2
255,72,13,11,2
305,51,16,9,2
408,10,21,67,2
119,123,25,80,2
82,298,14,54,2
67,179,169,318,2
149,306,85,36,2
118,163,195,405,2
175,56,160,303,2
398,382,33,86,2
196,276,196,176,2
36,109,383,451,2
86,284,292,214,2
174,127,48,59,2
136,12,115,14,2
46,22,33,0,2
25,131,96,195,2
19,19,117,146,2
35,344,293,302,2
538,258,187,458,2
196,143,247,168,2
197,429,198,204,2
14,83,284,2,2
48,6,235,277,2
152,6,161,71,2
31,32,309,479,2
76,222,176,0,2
162,105,139,316,2
84,56,343,322,2
24,164,33,168,2
191,277,104,41,2
552,101,381,985,2
92,104,168,322,2
57,205,55,130,2
264,198,471,569,2
90,215,337,140,2
264,225,488,444,2
512,446,359,416,2
392,295,653,572,2
241,93,440,532,2
65,37,564,428,2
43,60,292,210,2
126,239,524,539,2
214,98,429,188,2
197,54,2,148,2
136,398,7,207,2
779,129,274,439,2
107,81,53,23,2
40,291,163,360,2
40,203,197,534,2
110,127,634,775,2
513,518,357,572,2
368,155,461,242,2
309,223,208,269,2
87,233,388,389,2
74,173,473,445,2
48,220,216,22,2
20,252,264,282,2
74,16,489,724,2
295,146,205,239,2
16,109,286,466,2
145,73,55,438,2
227,57,97,6,2
144,68,175,0,2
338,176,819,885,2
59,111,234,579,2
149,194,1023,1023,2
267,223,411,492,2
12,69,858,811,2
89,297,450,507,2
46,33,319,547,2
195,190,50,101,2
475,207,498,143,2
150,170,837,648,2
32,221,12,112,2
491,206,65,503,2
129,22,114,217,2
125,266,126,336,2
134,409,230,460,2
179,92,109,96,2
184,78,168,102,2
391,245,483,346,2
23,86,77,88,2
263,18,1023,1023,2
286,8,50,213,2
16,136,863,853,2
213,28,54,16,2
454,64,718,1015,2
531,179,610,1023,2
133,97,121,21,2
4,27,251,311,2
170,28,367,567,2
94,168,366,556,2
154,162,125,115,2
11,99,356,460,2
277,11,263,152,2
70,123,26,135,2
238,131,156,317,2
0,82,270,378,2
118,13,246,379,2
116,280,123,81,2
41,231,80,133,2
21,38,371,221,2
10,75,181,83,2
55,180,761,649,2
1,11,211,150,2
1,61,297,364,2
31,61,380,410,2
132,105,169,144,2
206,15,44,65,2
104,17,168,263,2
6,30,96,11,2
86,11,274,348,2
133,107,87,254,2
26,166,12,0,2
105,74,74,20,2
91,54,459,478,2
174,37,12,442,2
58,79,233,3,2
10,91,29,32,2
50,36,92,121,2
76,35,68,91,2
33,29,162,113,2
29,100,128,342,2
46,95,148,101,2
0,14,86,220,2
40,48,400,584,2
31,118,542,589,2
27,52,29,91,2
32,207,52,89,2
54,7,217,271,2
13,11,44,67,2
102,106,23,118,2
10,41,38,70,2
73,63,182,249,2
76,232,426,503,2
77,107,56,26,2
105,41,318,230,2
46,8,117,280,2
10,230,5,275,2
104,40,228,286,2
66,110,232,166,2
43,80,61,279,2
149,22,36,94,2
131,40,262,147,2
145,187,326,157,2
46,240,271,270,2
40,145,12,47,2
118,134,116,119,2
42,113,258,93,2
7,67,8,0,2
27,115,215,69,2
20,18,108,39,2
91,96,110,51,2
2,24,3,99,2
81,199,183,288,2
3,6,100,0,2
154,153,336,473,2
0,134,235,49,2
14,42,200,324,2
207,155,62,55,2
151,410,9,67,2
137,111,193,164,2
164,154,131,128,2
70,93,88,36,2
127,17,10,96,2
159,196,250,276,2
157,114,145,197,2
393,52,503,639,2
28,15,78,4,2
76,118,549,279,2
3,7,176,205,2
35,11,88,0,2
0,7,161,8,2
47,192,104,7,2
147,116,184,272,2
116,74,157,276,2
78,212,392,298,2
165,227,115,216,2
75,79,62,27,2
60,62,68,0,2
26,119,55,105,2
12,118,243,258,2
96,5,48,134,2
114,164,44,59,2
99,133,112,254,2
71,169,135,57,2
97,157,159,123,2
16,110,229,125,2
173,83,170,162,2
21,109,3,69,2
89,68,27,0,2
1,54,110,88,2
217,24,45,49,2
128,162,183,91,2
24,41,83,0,2
1,125,101,205,2
110,8,312,212,2
207,177,188,366,2
30,53,140,16,2
160,49,188,252,2
52,27,228,139,2
115,162,45,100,2
60,104,115,41,2
92,105,111,89,2
79,253,144,363,2
6,102,155,7,2
13,79,111,201,2
8,107,137,74,2
32,13,122,139,2
1,37,89,228,2
69,81,74,93,2
60,46,129,220,2
10,43,94,17,2
129,53,2,26,2
83,241,4,128,2
13,76,571,334,2
6,184,46,205,2
2,163,240,393,2
241,277,242,234,2
302,293,338,427,2
26,106,300,184,2
21,13,638,510,2
205,212,20,21,2
2,26,229,130,2
85,90,213,237,2
85,95,31,119,2
156,294,211,134,2
45,59,6,75,2
146,103,349,234,2
145,100,154,270,2
53,12,261,253,2
118,196,157,109,2
75,138,392,262,2
20,274,145,267,2
10,125,219,40,2
377,332,297,313,2
23,61,200,18,2
155,119,348,33,2
82,42,308,338,2
46,42,15,126,2
4,67,205,230,2
17,119,8,114,2
168,88,148,125,2
50,37,214,138,2
163,208,130,328,2
2,10,114,72,2
9,13,77,457,2
211,315,402,299,2
70,215,173,668,2
324,426,684,408,2
97,150,291,334,2
38,78,102,9,2
135,78,35,24,2
0,49,53,0,2
59,18,165,32,2
64,36,68,45,2
169,216,13,75,2
138,37,6,0,2
194,63,173,47,2
94,71,60,28,2
84,63,123,81,2
337,324,474,447,2
2,20,293,223,2
136,162,775,829,2
29,140,251,257,2
164,96,227,227,2
141,120,90,236,2
15,110,362,159,2
55,84,264,178,2
74,28,130,41,2
112,113,73,155,2
154,47,271,236,2
237,19,141,5,2
1,105,155,258,2
6,16,213,35,2
209,222,60,128,2
45,34,142,13,2
135,102,315,177,2
183,246,69,1,2
78,24,74,37,2
66,45,31,4,2
2,66,27,62,2
13,30,66,16,2
89,179,89,0,2
37,91,251,169,2
4,113,4,55,2
53,11,140,197,2
26,54,187,42,2
146,87,52,31,2
114,81,12,3,2
93,207,3,0,2
72,10,183,83,2
133,53,393,141,2
48,127,419,423,2
120,19,686,398,2
146,85,73,34,2
159,144,109,75,2
42,60,53,8,2
6,25,127,30,2
11,38,6,218,2
3,85,383,158,2
7,12,3,136,2
89,123,73,54,2
6,114,103,55,2
222,129,231,175,2
23,6,229,130,2
92,149,39,37,2
88,135,165,230,2
100,244,99,58,2
34,24,138,278,2
7,11,273,139,2
72,58,3,124,2
3,20,79,34,2
155,240,142,60,2
94,19,195,83,2
151,175,367,103,2
61,75,321,229,2
28,15,352,5,2
74,125,88,201,2
280,208,6,8,2
121,392,16,17,2
31,198,142,55,2
117,185,52,8,2
122,55,3,7,2
135,82,63,74,2
108,107,222,117,2
210,12,14,143,2
33,117,384,137,2
240,251,126,62,2
19,15,107,303,2
19,67,164,244,2
225,119,426,86,2
41,122,453,412,2
213,78,501,139,2
47,132,335,339,2
275,110,362,194,2
122,85,234,504,2
424,187,47,48,2
146,76,248,114,2
311,285,126,43,2
48,13,492,337,2
256,265,174,272,2
20,174,470,190,2
86,45,652,517,2
118,419,19,124,2
31,160,727,793,2
129,87,161,348,2
302,71,302,661,2
83,118,420,39,2
371,110,501,759,2
177,70,585,336,2
207,209,479,529,2
29,116,63,163,2
124,213,5,154,2
107,279,48,106,2
171,444,495,114,2
55,282,448,285,2
70,118,287,361,2
140,92,29,129,2
134,75,61,1,2
48,14,98,210,2
348,209,84,144,2
254,321,250,446,2
25,332,23,257,2
160,35,466,484,2
130,191,90,94,2
146,135,43,103,2
73,174,118,295,2
51,118,69,264,2
143,134,267,512,2
23,12,34,455,2
198,32,597,424,2
52,67,355,484,2
188,109,127,0,2
32,147,138,69,2
104,21,201,138,2
311,486,265,75,2
117,43,65,0,2
93,127,83,86,2
62,103,15,149,2
11,137,256,28,2
325,200,146,95,2
384,354,137,0,2
47,225,38,210,2
67,226,257,46,2
10,71,251,51,2
221,292,451,292,2
307,214,12,379,2
2,227,9,72,2
112,119,561,434,2
104,260,326,445,2
157,184,42,61,2
144,96,351,83,2
52,12,188,168,2
27,17,66,0,2
11,207,351,176,2
9,203,492,453,2
59,16,121,84,2
98,34,281,179,2
299,325,30,189,2
157,213,284,504,2
219,31,291,11,2
108,214,398,559,2
415,293,683,491,2
3,373,467,400,2
168,134,74,78,2
68,53,233,346,2
143,88,60,153,2
112,22,22,175,2
236,95,409,333,2
78,279,10,220,2
170,36,55,39,2
99,67,129,355,2
65,56,11,165,2
130,194,371,53,2
450,630,254,193,2
255,292,562,6,2
167,147,215,403,2
150,130,33,35,2
118,64,198,145,2
48,29,153,53,2
29,231,143,380,2
205,35,346,435,2
79,451,292,622,2
232,342,403,644,2
295,349,206,487,2
219,366,160,168,2
100,621,271,109,2
362,495,60,29,2
111,175,271,166,2
82,220,66,14,2
65,164,61,268,2
31,115,93,41,2
44,69,1,17,2
204,41,67,153,2
73,211,11,285,2
348,7,220,586,2
7,55,135,38,2
5,156,261,581,2
66,175,240,42,2
81,115,35,251,2
356,611,1,69,2
128,314,68,173,2
415,345,138,149,2
110,509,43,24,2
160,477,708,617,2
11,26,59,119,2
111,305,552,522,2
131,213,459,301,2
283,161,624,604,2
76,102,142,110,2
43,62,386,190,2
14,59,183,264,2
220,27,620,463,2
133,30,449,497,2
83,149,293,80,2
75,58,252,56,2
2,359,7,283,2
115,426,262,30,2
212,193,33,154,2
5,32,582,420,2
32,39,170,352,2
64,141,47,152,2
229,67,109,266,2
89,7,544,820,2
2,14,79,159,2
95,104,512,673,2
208,366,46,44,2
0,55,125,228,2
38,50,268,133,2
45,196,154,245,2
9,325,38,10,2
119,39,324,181,2
96,289,5,158,2
277,12,400,442,2
102,249,171,278,2
189,42,695,607,2
198,138,391,395,2
145,48,620,652,2
176,228,196,436,2
408,77,344,284,2
190,129,242,237,2
22,30,127,256,2
175,39,50,0,2
76,174,369,190,2
569,644,238,381,2
759,502,494,447,2
67,10,387,525,2
2,46,702,351,2
1,52,676,931,2
11,201,277,19,2
6,8,353,515,2
85,134,431,613,2
140,34,82,2,2
186,135,187,31,2
175,22,49,251,2
60,61,511,627,2
39,65,163,287,2
63,99,279,103,2
121,168,521,578,2
471,448,91,272,2
341,349,512,717,2
136,145,180,4,2
202,324,82,90,2
36,115,266,406,2
55,174,52,89,2
2,80,225,265,2
204,25,66,124,2
20,94,393,262,2
96,13,158,241,2
183,19,261,337,2
76,32,472,466,2
125,63,4,21,2
5,147,319,341,2
142,125,72,13,2
59,87,79,109,2
120,108,5,0,2
69,11,68,13,2
184,146,114,140,2
115,24,119,91,2
18,363,367,533,2
263,142,128,338,2
337,10,44,97,2
86,254,266,614,2
265,14,354,153,2
179,48,548,788,2
237,222,12,240,2
119,68,81,135,2
137,19,379,552,2
147,106,7,58,2
42,68,578,826,2
133,142,173,528,2
214,156,258,332,2
9,62,83,303,2
79,189,33,99,2
105,14,9,82,2
115,199,160,150,2
54,23,4,56,2
5,156,9,39,2
270,19,342,339,2
90,90,115,76,2
1,79,163,116,2
90,76,384,278,2
45,49,210,237,2
8,13,179,160,2
127,114,95,209,2
115,11,69,241,2
19,62,125,160,2
117,45,216,24,2
131,216,80,56,2
4,126,51,196,2
148,121,214,258,2
55,69,56,23,2
152,13,437,348,2
154,89,36,30,2
89,75,296,396,2
157,78,407,495,2
146,46,467,272,2
35,46,203,285,2
45,163,290,226,2
33,21,155,316,2
165,93,243,324,2
1,9,621,693,2
62,37,111,127,2
264,181,335,446,2
75,11,66,265,2
169,261,112,121,2
4,79,221,241,2
12,45,556,540,2
183,7,210,274,2
485,159,496,676,2
96,6,153,328,2
108,60,105,43,2
25,35,240,87,2
22,95,97,48,2
207,15,350,314,2
14,100,67,135,2
108,52,170,91,2
32,73,121,0,2
23,67,161,270,2
63,14,271,110,2
13,48,44,67,2
34,74,74,229,2
134,59,178,315,2
90,175,390,271,2
22,16,268,252,2
202,90,51,397,2
12,100,73,28,2
8,21,243,376,2
33,6,229,139,2
106,117,177,144,2
123,100,226,177,2
18,94,174,71,2
27,47,154,18,2
22,75,71,59,2
32,61,23,45,2
39,19,188,62,2
157,58,134,301,2
93,244,27,32,2
170,173,71,237,2
160,164,49,43,2
15,13,143,1,2
35,16,14,0,2
69,151,280,302,2
170,137,178,4,2
64,27,53,205,2
198,138,17,61,2
25,20,100,0,2
89,112,123,209,2
11,25,46,160,2
30,125,263,299,2
115,90,258,315,2
64,43,167,11,2
70,102,179,24,2
121,7,332,251,2
271,272,230,59,2
20,15,192,209,2
9,145,96,209,2
131,178,369,327,2
4,20,243,357,2
204,120,29,34,2
43,40,21,112,2
293,283,181,121,2
62,107,469,275,2
56,87,59,69,2
38,95,192,286,2
42,41,561,704,2
13,134,10,150,2
116,40,338,374,2
13,7,156,37,2
164,22,289,243,2
213,225,208,166,2
168,137,22,20,2
85,445,345,283,2
79,199,40,57,2
171,246,144,107,2
16,68,4,38,2
106,54,41,56,2
114,296,46,173,2
1,135,223,247,2
15,11,88,56,2
56,11,401,290,2
12,21,38,50,2
24,23,415,287,2
206,141,89,25,2
10,15,16,25,2
85,17,130,108,2
76,47,271,74,2
97,25,248,123,2
82,89,66,82,2
157,78,16,12,2
158,212,91,90,2
93,39,144,12,2
21,93,170,55,2
20,123,169,155,2
100,45,174,64,2
100,147,126,0,2
83,181,25,16,2
39,285,151,240,2
175,93,131,3,2
20,31,90,74,2
52,19,2,0,2
182,106,140,106,2
31,376,439,267,2
357,550,384,299,2
95,107,166,119,2
78,6,56,134,2
121,14,129,104,2
150,126,5,1,2
14,89,162,202,2
25,53,1,112,2
58,92,167,98,2
42,37,45,68,2
118,36,361,302,2
40,43,41,221,2
24,45,323,117,2
49,145,20,276,2
232,110,72,51,2
303,203,243,493,2
170,171,162,72,2
56,227,92,17,2
70,104,61,6,2
70,49,233,231,2
37,138,249,216,2
8,43,32,57,2
103,136,185,145,2
49,161,211,272,2
84,64,223,208,2
56,15,40,0,2
5,88,220,399,2
1,93,185,229,2
156,81,120,49,2
168,272,385,520,2
18,35,167,0,2
158,233,37,148,2
242,344,194,45,2
72,113,18,97,2
135,67,177,159,2
74,51,447,209,2
52,55,465,439,2
3,10,459,260,2
15,54,151,95,2
32,47,421,500,2
71,20,140,169,2
28,17,399,393,2
77,102,68,128,2
3,17,487,384,2
21,96,85,56,2
131,109,32,179,2
8,13,213,67,2
182,296,51,41,2
37,104,47,76,2
15,12,185,196,2
56,127,117,38,2
116,192,70,19,2
25,34,39,60,2
37,14,274,246,2
15,106,114,17,2
12,23,45,241,2
35,36,177,114,2
32,83,168,51,2
130,230,290,289,2
2,8,415,207,2
115,305,470,414,2
22,25,207,109,2
43,65,129,99,2
65,92,13,81,2
36,135,3,15,2
98,105,103,104,2
39,80,31,0,2
28,21,52,38,2
75,103,61,34,2
32,14,145,137,2
40,111,73,50,2
7,74,109,31,2
24,40,194,192,2
160,207,227,121,2
183,148,240,266,2
3,231,139,220,2
95,84,211,207,2
0,55,75,164,2
115,189,115,77,2
3,20,75,54,2
184,77,65,0,2
50,199,146,117,2
62,221,11,123,2
14,97,106,0,2
22,59,87,124,2
9,139,197,2,2
87,65,183,167,2
46,58,36,0,2
32,9,49,0,2
75,32,191,193,2
57,45,51,69,2
132,126,8,128,2
69,150,142,5,2
47,34,228,152,2
73,119,251,191,2
15,168,15,0,2
2,84,12,87,2
72,240,87,73,2
202,258,231,103,2
30,100,28,0,2
78,178,205,15,2
100,151,216,250,2
6,6,507,340,2
6,18,124,176,2
0,85,309,279,2
200,90,34,87,2
29,14,118,111,2
60,93,44,82,2
37,24,76,142,2
79,149,133,33,2
109,229,58,102,2
84,127,76,0,2
316,493,81,136,2
143,148,63,38,2
5,27,18,19,2
28,9,137,135,2
107,71,40,109,2
43,85,81,103,2
23,6,483,94,2
34,26,69,90,2
1,59,46,182,2
151,283,285,155,2
90,41,91,289,2
171,217,640,548,2
6,61,335,281,2
27,137,260,315,2
110,18,46,5,2
60,90,18,56,2
5,67,138,59,2
32,59,136,106,2
42,130,11,0,2
68,81,47,31,2
3,19,20,111,2
176,273,251,252,2
245,182,90,156,2
55,154,251,283,2
104,374,148,13,2
159,201,58,71,2
45,98,206,122,2
35,35,99,87,2
10,30,63,55,2
42,44,87,20,2
20,7,102,0,2
137,104,35,11,2
84,63,24,29,2
121,233,177,174,2
120,98,371,299,2
158,26,35,42,2
25,81,63,63,2
76,36,243,33,2
1,118,272,115,2
248,205,16,91,2
14,135,143,134,2
146,111,186,27,2
73,50,6,15,2
5,8,4,18,2
33,99,54,0,2
31,7,196,100,2
13,7,53,1,2
12,33,126,90,2
85,244,193,5,2
21,18,61,0,2
142,464,33,21,2
23,137,5,58,2
54,110,117,98,2
136,273,137,109,2
35,59,36,9,2
30,37,186,103,2
20,14,64,90,2
14,32,149,133,2
46,48,70,31,2
59,55,217,191,2
2,9,111,67,2
46,165,40,54,2
20,159,13,52,2
165,82,37,2,2
103,140,62,0,2
134,96,1,40,2
21,153,74,45,2
92,110,90,0,2
87,109,142,73,2
79,31,70,65,2
73,18,72,101,2
149,132,55,63,2
35,59,33,0,2
105,216,16,0,2
4,71,48,187,2
199,209,8,0,2
34,53,142,43,2
3,21,4,0,2
172,170,126,42,2
96,174,7,44,2
41,46,20,0,2
75,193,106,38,2
215,222,39,0,2
0,70,45,0,2
96,102,11,0,2
14,100,140,209,2
112,231,127,38,2
11,35,46,71,2
132,84,8,0,2
27,175,32,43,2
159,338,43,11,2
165,157,51,59,2
29,114,272,144,2
3,133,3,7,2
14,7,63,28,2
67,42,38,76,2
111,11,288,203,2
72,197,161,135,2
16,43,82,6,2
122,116,187,69,2
66,54,81,30,2
7,63,156,166,2
77,160,53,1,2
195,179,38,0,2
23,31,69,0,2
24,84,176,124,2
22,10,174,43,2
54,44,174,76,2
35,35,54,54,2
5,66,89,32,2
82,13,14,0,2
13,24,102,44,2
4,75,170,68,2
62,39,236,139,2
2,31,34,35,2
66,232,126,118,2
192,275,298,163,2
114,24,94,128,2
188,32,52,22,2
4,12,32,23,2
3,28,223,95,2
8,61,470,296,2
15,30,57,2,2
36,14,117,55,2
8,32,87,75,2
131,61,153,93,2
38,41,168,102,2
20,26,71,112,2
72,76,46,36,2
17,12,259,178,2
103,42,270,99,2
58,14,249,87,2
162,347,323,133,2
281,449,64,0,2
14,14,47,55,2
122,201,40,61,2
34,74,171,51,2
39,59,13,30,2
12,88,13,0,2
91,15,30,38,2
33,60,116,75,2
11,20,37,29,2
53,10,23,14,2
27,111,61,11,2
144,177,725,450,2
151,144,382,195,2
14,45,69,49,2
26,28,69,52,2
132,289,41,0,2
262,344,12,8,2
76,107,73,54,2
113,217,33,0,2
0,19,2,15,2
82,182,3,68,2
76,35,15,41,2
43,74,41,26,2
80,75,133,40,2
10,98,67,93,2
173,276,12,0,2
3,41,104,0,2
250,363,175,136,2
63,101,72,52,2
48,64,14,19,2
99,121,10,3,2
27,23,217,199,2
17,14,109,0,2
16,30,30,64,2
1,62,58,45,2
70,148,18,77,2
52,147,52,0,2
36,24,7,64,2
5,53,115,74,2
96,94,6,151,2
151,216,26,85,2
95,220,61,5,2
98,145,12,15,2
145,245,37,98,2
100,75,514,418,2
50,57,81,47,2
17,39,766,560,2
118,245,105,27,2
33,57,155,155,2
70,168,72,47,2
137,15,194,190,2
246,249,429,365,2
80,41,102,93,2
89,58,555,475,2
45,79,216,47,2
46,7,264,152,2
62,65,160,282,2
218,93,49,128,2
0,93,572,623,2
40,306,96,65,2
149,236,576,614,2
194,63,186,16,2
131,225,92,164,2
212,95,155,67,2
43,52,93,402,2
138,123,423,251,2
23,62,308,476,2
98,24,634,416,2
271,63,139,332,2
135,69,251,0,2
217,162,48,0,2
44,117,83,78,2
87,122,471,420,2
393,421,252,1,2
4,298,596,497,2
309,294,15,70,2
76,345,376,204,2
77,198,500,393,2
207,245,230,190,2
159,20,198,147,2
11,100,434,244,2
151,97,482,363,2
84,11,436,400,2
218,39,553,764,2
124,59,524,318,2
210,33,91,318,2
136,125,741,498,2
58,361,362,615,2
162,197,525,197,2
65,63,205,72,2
87,113,136,232,2
88,34,96,276,2
186,41,425,291,2
41,309,428,412,2
87,18,82,47,2
147,51,257,171,2
201,178,344,361,2
233,203,106,45,2
92,77,313,40,2
64,54,428,150,2
197,111,397,391,2
437,296,110,1,2
425,246,154,51,2
115,82,41,22,2
248,127,143,95,2
75,11,214,42,2
114,236,787,486,2
23,16,560,449,2
83,101,382,328,2
91,43,724,842,2
536,160,17,87,2
109,228,497,660,2
361,183,154,144,2
122,24,368,316,2
110,46,294,126,2
345,166,792,611,2
86,214,79,143,2
72,76,630,536,2
18,92,46,243,2
101,18,819,305,2
180,101,117,153,2
57,40,674,443,2
82,159,291,195,2
147,85,505,410,2
85,21,849,740,2
104,61,97,144,2
123,25,332,188,2
162,138,20,217,2
94,23,23,249,2
235,321,217,353,2
349,294,275,629,2
149,239,264,63,2
348,228,642,522,2
67,135,356,81,2
71,77,445,528,2
480,345,509,820,2
198,223,153,97,2
248,62,78,3,2
8,183,132,93,2
51,25,171,175,2
155,123,378,231,2
166,18,723,899,2
442,511,38,162,2
36,125,2,87,2
319,409,375,356,2
60,50,139,58,2
7,15,276,27,2
90,70,66,139,2
181,415,289,293,2
128,159,250,319,2
293,359,188,193,2
283,72,150,107,2
30,118,7,0,2
58,17,149,23,2
368,396,21,106,2
69,131,178,71,2
162,29,6,42,2
63,16,203,63,2
104,227,365,618,2
78,16,141,466,2
369,522,388,196,2
13,9,106,80,2
44,300,388,499,2
52,34,154,367,2
338,217,435,603,2
21,192,69,61,2
233,56,192,32,2
266,106,177,137,2
40,56,497,593,2
203,298,334,184,2
341,326,23,156,2
223,142,512,347,2
614,619,476,515,2
93,200,66,143,2
211,34,17,12,2
264,279,200,84,2
50,191,378,487,2
15,101,85,190,2
36,109,275,370,2
32,80,72,241,2
42,191,164,230,2
76,199,36,86,2
74,212,184,74,2
64,226,73,57,2
193,52,211,213,2
14,86,127,237,2
429,604,166,14,2
567,512,39,49,2
37,163,575,477,2
285,18,86,156,2
85,177,427,504,2
147,79,467,219,2
182,35,634,564,2
238,53,26,129,2
16,81,240,210,2
62,100,34,49,2
64,132,58,129,2
235,86,247,213,2
30,88,355,281,2
181,178,308,248,2
363,437,129,103,2
66,98,319,411,2
142,632,337,480,2
240,608,278,22,2
340,400,39,223,2
44,54,318,272,2
125,392,206,35,2
366,7,438,614,2
376,6,186,308,2
161,63,704,751,2
176,175,216,326,2
281,61,297,218,2
128,69,92,377,2
37,134,17,127,2
66,110,695,746,2
77,215,430,647,2
38,29,674,648,2
297,113,144,471,2
364,452,567,386,2
296,387,379,456,2
13,129,1014,1023,2
114,180,269,495,2
89,321,149,111,2
139,103,319,391,2
60,14,287,579,2
244,69,73,0,2
29,39,32,38,2
49,189,107,303,2
126,75,145,374,2
214,103,145,148,2
148,63,28,206,2
299,866,198,263,2
267,455,261,302,2
141,36,413,710,2
94,231,547,543,2
316,136,791,966,2
90,314,386,345,2
276,324,351,429,2
11,17,376,178,2
9,31,131,438,2
330,17,343,63,2
155,70,27,36,2
104,128,661,587,2
8,100,7,298,2
80,79,254,171,2
4,17,71,18,2
272,146,215,34,2
4,267,210,291,2
541,417,146,129,2
74,154,625,779,2
69,100,51,4,2
7,217,233,115,2
70,83,141,182,2
114,11,546,508,2
278,184,541,502,2
102,97,387,326,2
125,196,761,967,2
282,227,112,153,2
100,68,45,45,2
303,53,139,144,2
305,772,247,175,2
435,400,143,283,2
36,107,427,107,2
86,71,406,547,2
341,281,117,76,2
277,183,247,251,2
35,185,261,38,2
1,66,391,499,2
65,122,207,276,2
69,32,366,539,2
44,188,4,18,2
6,208,110,167,2
155,14,72,115,2
34,7,65,52,2
132,38,95,1,2
4,22,370,249,2
222,14,187,11,2
155,175,438,102,2
35,181,109,331,2
119,181,175,156,2
151,97,46,86,2
45,12,192,245,2
251,47,213,307,2
110,49,109,129,2
61,31,60,89,2
63,81,165,149,2
119,164,17,90,2
41,284,22,231,2
131,8,263,527,2
50,132,195,178,2
81,99,544,734,2
68,131,358,50,2
88,27,697,745,2
241,101,16,151,2
65,33,39,211,2
247,131,236,281,2
39,37,699,580,2
71,215,379,434,2
123,47,610,965,2
329,30,520,527,2
73,10,33,218,2
287,66,707,926,2
32,35,213,14,2
56,111,628,812,2
231,149,5,25,2
16,14,61,99,2
26,82,101,235,2
113,67,274,295,2
14,87,200,207,2
68,81,40,23,2
111,67,105,222,2
58,122,487,408,2
110,63,177,4,2
69,68,430,660,2
66,296,426,690,2
22,119,490,519,2
14,139,205,263,2
15,21,217,434,2
128,111,64,118,2
16,91,20,0,2
251,105,38,8,2
46,14,145,170,2
86,8,135,94,2
14,25,19,69,2
26,11,141,0,2
51,27,295,365,2
103,95,132,79,2
91,89,473,406,2
17,23,75,48,2
0,66,141,82,2
29,30,145,27,2
17,26,201,145,2
77,5,117,50,2
6,30,110,29,2
69,15,113,205,2
88,99,51,64,2
5,13,18,131,2
35,76,435,329,2
99,55,143,99,2
10,30,338,368,2
48,134,136,195,2
86,59,411,403,2
26,184,442,538,2
97,15,226,200,2
303,274,641,815,2
111,76,205,5,2
216,249,588,791,2
338,223,92,204,2
402,212,85,204,2
85,10,208,287,2
112,18,33,46,2
60,32,20,232,2
70,143,125,121,2
163,173,82,1,2
121,38,350,288,2
13,71,307,287,2
3,119,204,285,2
218,229,335,408,2
208,205,229,60,2
493,465,403,310,2
298,355,14,270,2
120,103,558,358,2
36,75,272,214,2
233,183,8,128,2
336,63,249,90,2
74,88,267,410,2
70,101,387,506,2
24,19,78,169,2
15,73,227,191,2
16,145,217,9,2
184,45,679,433,2
77,45,65,138,2
81,231,835,690,2
127,141,191,225,2
218,392,405,157,2
21,50,334,7,2
51,26,211,118,2
60,262,39,250,2
162,7,195,72,2
54,43,317,298,2
44,38,8,169,2
282,93,89,193,2
178,97,120,85,2
52,18,166,182,2
0,33,436,305,2
62,43,17,86,2
44,20,224,299,2
72,16,51,58,2
224,254,302,470,2
127,272,39,49,2
56,26,480,441,2
5,24,204,13,2
136,259,192,145,2
29,11,351,82,2
154,23,22,71,2
307,7,273,449,2
66,13,15,86,2
57,23,219,226,2
109,12,152,0,2
32,88,121,168,2
55,134,525,400,2
8,236,120,35,2
58,50,70,99,2
121,21,11,243,2
168,16,443,328,2
260,252,139,200,2
41,41,37,93,2
36,194,326,255,2
109,42,257,367,2
32,137,151,393,2
88,11,276,306,2
106,129,43,215,2
53,90,341,423,2
1,120,309,8,2
16,154,185,198,2
134,243,143,189,2
177,184,374,263,2
35,246,1023,922,2
156,57,499,184,2
230,164,381,250,2
145,138,45,24,2
50,88,74,13,2
2,133,108,108,2
126,41,339,454,2
66,114,303,144,2
2,23,379,307,2
176,100,10,55,2
32,28,227,272,2
85,24,130,100,2
113,215,92,336,2
40,154,217,221,2
54,186,52,73,2
162,128,235,37,2
23,44,187,287,2
56,44,261,13,2
327,345,296,368,2
22,23,294,93,2
67,130,118,182,2
46,29,345,428,2
149,209,49,5,2
31,36,2,120,2
77,52,156,65,2
11,42,255,161,2
57,113,320,488,2
14,148,162,0,2
90,298,1,33,2
91,90,7,77,2
27,204,204,141,2
23,177,52,35,2
101,252,46,88,2
120,317,200,82,2
20,20,158,331,2
4,86,358,403,2
5,61,84,316,2
20,30,479,400,2
173,237,55,119,2
89,193,337,281,2
124,117,13,92,2
0,79,167,14,2
24,143,368,254,2
0,9,3,87,2
90,47,273,264,2
183,182,183,0,2
28,12,165,89,2
195,217,10,35,2
406,326,229,72,2
63,27,6,41,2
116,165,278,261,2
208,256,24,87,2
51,54,2,143,2
7,79,25,5,2
203,46,37,55,2
11,58,126,7,2
38,33,72,44,2
104,131,40,0,2
82,117,133,175,2
152,330,73,187,2
76,67,243,348,2
108,193,180,3,2
80,81,104,43,2
86,142,26,93,2
28,83,2,14,2
107,79,63,20,2
118,254,151,112,2
138,73,154,29,2
95,121,42,29,2
90,78,213,137,2
181,31,176,145,2
71,6,70,82,2
179,186,37,156,2
4,68,110,276,2
43,48,112,0,2
89,185,33,194,2
57,153,173,155,2
89,86,157,8,2
173,129,213,176,2
43,41,2,41,2
57,170,14,8,2
131,179,78,0,2
90,162,153,35,2
213,158,163,92,2
78,83,10,1,2
233,115,59,0,2
94,58,127,4,2
28,93,149,182,2
64,105,24,0,2
107,42,53,35,2
73,6,113,18,2
54,22,24,16,2
145,41,39,86,2
24,113,5,33,2
29,115,23,25,2
108,88,54,70,2
73,39,51,0,2
23,90,40,17,2
82,14,7,9,2
5,37,99,7,2
54,21,37,66,2
76,125,132,106,2
32,24,51,0,2
16,54,64,0,2
31,61,45,0,2
99,205,101,36,2
26,122,25,40,2
215,311,26,0,2
88,35,74,21,2
2,11,238,199,2
245,443,119,15,2
1,23,461,499,2
30,93,116,97,2
3,23,85,113,2
20,72,149,130,2
1,107,159,61,2
46,36,143,143,2
48,71,339,231,2
33,72,126,197,2
59,71,253,113,2
39,58,350,383,2
5,54,283,203,2
11,77,283,288,2
83,93,476,551,2
23,39,172,2,2
40,131,235,393,2
2,71,510,221,2
255,336,32,65,2
149,247,216,50,2
7,11,110,59,2
151,133,109,211,2
23,50,36,62,2
16,17,333,208,2
44,89,144,30,2
73,32,87,3,2
125,207,257,53,2
39,63,21,209,2
96,8,4,18,2
70,21,279,383,2
70,83,221,196,2
45,61,472,534,2
112,77,18,17,2
73,195,663,664,2
269,311,112,42,2
152,114,779,514,2
271,14,267,138,2
227,333,199,314,2
182,157,468,361,2
266,8,352,481,2
185,171,592,582,2
173,41,605,554,2
30,207,55,25,2
90,99,192,187,2
230,133,135,37,2
245,532,108,5,2
725,722,56,82,2
115,220,171,198,2
711,432,191,185,2
302,195,169,510,2
105,12,95,49,2
101,15,185,44,2
232,352,389,704,2
353,26,134,51,2
267,133,90,306,2
12,267,362,7,2
149,229,276,146,2
305,383,183,1,2
249,134,450,394,2
151,141,56,240,2
57,32,587,314,2
66,302,233,322,2
158,244,491,17,2
467,270,607,530,2
226,584,90,164,2
196,284,267,343,2
296,535,331,79,2
30,111,177,207,2
380,637,345,194,2
83,29,27,0,2
218,28,202,193,2
54,24,131,17,2
163,77,551,355,2
54,140,47,208,2
171,79,1023,1023,2
403,388,15,408,2
310,11,998,872,2
400,378,63,49,2
496,555,433,301,2
103,54,75,351,2
363,532,579,257,2
30,163,349,398,2
3,244,605,644,2
276,145,374,330,2
97,90,94,135,2
57,95,101,218,2
93,64,26,89,2
172,234,178,91,2
253,201,67,132,2
345,236,303,461,2
76,356,245,73,2
436,629,266,185,2
102,15,150,183,2
5,166,519,368,2
69,77,181,310,2
213,176,413,184,2
43,432,398,719,2
15,303,103,233,2
216,27,366,559,2
213,193,157,171,2
269,81,47,122,2
351,298,508,228,2
329,57,11,31,2
475,408,715,503,2
225,254,235,93,2
26,71,318,218,2
331,147,648,397,2
409,306,247,10,2
96,27,565,397,2
435,384,7,0,2
18,137,123,23,2
495,337,61,39,2
66,241,305,311,2
134,401,171,153,2
352,403,342,353,2
4,20,124,119,2
5,16,207,501,2
123,184,231,29,2
319,142,32,231,2
145,19,337,374,2
159,301,304,358,2
210,128,375,381,2
361,334,128,124,2
48,337,259,149,2
384,691,123,11,2
167,192,380,232,2
21,90,51,275,2
213,386,212,32,2
321,264,29,199,2
93,136,129,83,2
330,53,203,90,2
177,155,12,192,2
80,391,127,317,2
257,43,218,72,2
95,80,13,187,2
180,305,115,77,2
12,287,40,0,2
141,203,395,635,2
78,386,5,27,2
521,404,49,48,2
258,387,233,199,2
520,460,31,121,2
54,37,520,352,2
167,22,33,88,2
652,640,157,182,2
761,707,652,408,2
147,122,347,476,2
278,408,958,772,2
6,19,448,258,2
427,305,828,889,2
386,374,528,596,2
341,316,600,419,2
58,33,536,604,2
554,301,630,428,2
83,226,725,794,2
146,113,387,305,2
251,139,109,188,2
103,56,66,382,2
18,11,30,3,2
8,114,132,151,2
149,95,423,536,2
175,13,72,258,2
119,321,253,313,2
389,502,227,562,2
32,50,79,0,2
483,319,267,433,2
154,87,169,66,2
203,113,399,484,2
421,196,401,336,2
208,83,491,524,2
35,222,5,231,2
392,12,115,57,2
93,86,127,59,2
25,31,241,251,2
331,226,119,447,2
354,157,260,601,2
50,96,444,298,2
36,87,289,591,2
297,505,255,187,2
282,191,168,300,2
238,372,266,55,2
366,516,426,507,2
8,326,382,270,2
457,15,233,513,2
16,306,220,311,2
55,32,146,231,2
15,23,38,116,2
43,223,17,55,2
8,155,116,245,2
94,114,61,0,2
128,234,33,337,2
120,202,31,356,2
272,196,13,201,2
54,159,299,443,2
308,413,187,517,2
250,431,799,908,2
312,369,52,3,2
387,172,1023,1023,2
187,539,192,203,2
120,6,52,163,2
40,101,103,171,2
13,297,3,40,2
185,207,209,106,2
12,128,117,273,2
117,71,556,785,2
295,443,508,601,2
648,588,682,711,2
338,469,567,724,2
262,135,78,65,2
503,47,16,17,2
107,27,406,416,2
991,1023,104,46,2
157,94,248,271,2
399,218,315,83,2
268,329,293,208,2
30,53,293,475,2
385,280,287,375,2
21,97,388,372,2
247,43,278,340,2
172,59,359,596,2
329,202,436,538,2
212,206,580,409,2
793,917,131,243,2
126,170,25,138,2
173,271,311,537,2
597,891,177,252,2
423,709,461,780,2
189,364,532,624,2
249,67,73,213,2
0,317,674,637,2
86,404,107,330,2
309,37,731,746,2
19,91,191,300,2
37,75,790,978,2
23,11,168,233,2
10,123,214,244,2
175,139,171,388,2
80,17,149,8,2
557,581,466,988,2
56,102,393,279,2
431,529,70,407,2
64,227,672,626,2
605,516,465,818,2
332,217,335,506,2
31,61,48,40,2
149,349,176,265,2
332,272,157,236,2
308,14,96,175,2
60,145,57,142,2
1,111,73,84,2
169,257,34,68,2
25,172,155,159,2
127,233,240,142,2
14,124,601,532,2
44,177,322,366,2
96,135,302,443,2
109,218,2,68,2
184,386,41,450,2
78,108,48,266,2
385,61,154,148,2
235,155,140,292,2
89,35,373,342,2
176,31,87,130,2
186,147,150,69,2
84,101,627,474,2
42,75,144,495,2
312,340,413,442,2
6,422,95,190,2
19,65,224,268,2
158,23,173,209,2
82,152,5,201,2
375,520,450,341,2
41,94,44,168,2
218,47,276,235,2
287,46,47,87,2
12,68,252,28,2
115,109,294,373,2
33,77,240,205,2
188,49,327,586,2
179,43,91,88,2
205,716,37,191,2
492,834,430,399,2
176,71,166,181,2
33,196,367,376,2
173,171,61,52,2
303,275,498,447,2
240,438,227,270,2
83,26,447,418,2
7,56,57,89,2
161,237,119,199,2
161,329,415,576,2
1,291,26,7,2
251,47,247,371,2
6,154,89,109,2
27,58,59,72,2
197,266,15,9,2
178,388,180,282,2
144,170,161,315,2
339,316,359,285,2
442,70,196,43,2
129,332,262,507,2
201,114,97,80,2
8,77,360,230,2
115,160,27,63,2
132,152,364,385,2
1,86,69,52,2
169,86,655,766,2
170,470,768,248,2
43,176,335,609,2
258,226,1023,838,2
160,96,58,207,2
130,314,384,291,2
12,145,622,672,2
71,278,13,77,2
396,52,315,371,2
232,127,269,325,2
37,75,77,251,2
45,117,281,383,2
234,42,343,483,2
81,35,22,75,2
99,18,267,466,2
232,49,211,0,2
55,69,53,20,2
174,177,395,143,2
537,695,90,0,2
96,203,146,48,3
156,224,38,19,3
190,222,180,361,3
103,150,25,78,3
47,110,143,70,3
0,87,122,114,3
47,41,177,120,3
201,283,66,180,3
77,90,81,30,3
3,71,14,51,3
17,87,433,320,3
52,142,153,5,3
135,15,404,306,3
68,53,169,193,3
35,109,139,119,3
51,159,151,110,3
178,292,69,62,3
131,158,36,199,3
30,125,450,397,3
37,111,424,248,3
49,15,413,344,3
24,62,456,417,3
45,120,234,76,3
21,249,67,112,3
3,144,3,0,3
76,81,370,324,3
160,228,358,289,3
170,104,144,91,3
45,141,240,348,3
58,66,308,392,3
5,41,285,115,3
79,122,399,513,3
202,349,403,307,3
123,150,5,73,3
83,59,265,270,3
12,13,295,227,3
40,42,60,41,3
33,106,174,98,3
60,18,64,8,3
123,64,171,111,3
114,217,68,58,3
94,61,120,130,3
108,95,202,237,3
120,54,50,77,3
57,106,39,49,3
80,137,245,287,3
30,90,207,240,3
88,256,444,514,3
81,250,361,131,3
65,187,586,712,3
219,321,578,446,3
84,26,140,91,3
83,26,256,232,3
40,39,81,31,3
74,158,121,0,3
100,124,11,61,3
73,21,424,493,3
96,43,264,252,3
54,28,160,256,3
22,65,309,491,3
1,92,166,57,3
125,51,211,89,3
48,46,210,210,3
169,372,136,59,3
358,512,278,104,3
26,61,75,37,3
70,15,165,213,3
60,18,94,61,3
198,154,157,50,3
57,94,14,0,3
30,75,231,384,3
50,105,163,129,3
37,76,313,422,3
284,41,424,455,3
0,23,126,181,3
11,70,342,305,3
13,76,88,79,3
14,36,183,124,3
82,161,31,19,3
82,246,120,162,3
89,193,263,314,3
172,224,216,167,3
36,49,43,75,3
7,10,247,327,3
4,41,319,330,3
159,90,35,87,3
166,130,134,66,3
3,6,10,90,3
111,89,62,0,3
24,23,47,57,3
52,61,39,74,3
29,43,6,92,3
11,32,315,178,3
97,163,303,357,3
50,22,125,14,3
23,88,354,496,3
103,150,59,130,3
38,164,124,207,3
24,19,71,104,3
42,47,15,89,3
40,67,258,237,3
106,111,141,38,3
8,9,438,449,3
90,83,53,39,3
5,53,322,384,3
69,16,186,130,3
72,52,80,55,3
8,55,17,0,3
200,125,114,52,3
227,336,186,221,3
61,44,510,281,3
217,313,207,205,3
27,71,315,429,3
37,170,566,508,3
124,101,8,190,3
19,31,766,814,3
45,82,173,102,3
48,146,216,271,3
4,56,131,101,3
16,7,12,7,3
201,72,38,140,3
113,62,389,393,3
1,106,277,120,3
44,36,269,188,3
163,209,413,359,3
14,32,202,191,3
115,35,124,51,3
100,44,117,123,3
6,56,38,11,3
4,21,94,80,3
26,44,27,23,3
3,36,40,26,3
89,71,180,175,3
6,9,131,0,3
0,53,220,159,3
38,31,126,106,3
43,9,38,61,3
13,61,12,17,3
49,71,43,18,3
83,34,56,51,3
6,94,2,0,3
116,156,25,7,3
73,38,145,157,3
38,13,58,0,3
304,402,124,50,3
84,31,30,43,3
144,128,99,56,3
4,113,75,88,3
63,233,201,135,3
143,285,33,122,3
48,97,309,223,3
37,31,83,52,3
14,6,67,6,3
128,37,49,69,3
1,81,12,0,3
99,81,81,27,3
71,60,62,73,3
137,130,50,22,3
196,230,9,14,3
145,155,89,63,3
7,18,6,2,3
223,227,43,40,3
57,6,20,23,3
76,139,5,13,3
25,60,43,55,3
22,10,28,0,3
46,69,58,87,3
6,65,10,0,3
30,33,23,0,3
30,85,23,39,3
34,56,87,53,3
14,32,3,41,3
34,8,86,21,3
252,275,1,0,3
35,182,19,62,3
131,303,84,0,3
177,402,1,8,3
0,34,84,39,3
27,55,5,2,3
88,92,82,30,3
103,147,6,24,3
52,78,41,13,3
2,12,64,41,3
15,27,4,28,3
26,54,45,52,3
1,19,76,100,3
22,6,76,115,3
97,195,92,45,3
11,22,126,132,3
63,46,22,0,3
87,207,55,89,3
46,113,176,5,3
107,120,30,17,3
18,63,156,46,3
20,9,157,68,3
37,89,79,46,3
39,12,90,74,3
17,9,39,66,3
49,63,3,23,3
43,27,64,7,3
66,60,18,9,3
63,130,10,0,3
180,214,92,27,3
3,64,14,48,3
141,201,68,3,3
11,15,75,7,3
89,141,41,0,3
55,27,49,0,3
110,112,3,9,3
60,11,14,9,3
33,76,12,43,3
2,49,46,22,3
59,6,143,73,3
25,7,54,0,3
40,51,139,73,3
4,34,37,59,3
60,10,60,71,3
10,14,40,53,3
58,42,8,0,3
92,56,118,97,3
129,127,17,18,3
32,104,5,57,3
178,260,49,35,3
11,17,61,66,3
207,241,30,0,3
37,20,2,42,3
24,9,20,56,3
43,95,12,25,3
10,30,15,27,3
102,47,30,34,3
68,56,34,0,3
83,59,6,0,3
51,7,63,40,3
68,61,53,65,3
33,65,42,0,3
17,31,61,5,3
260,192,81,57,3
2,61,15,8,3
56,10,91,55,3
139,30,16,56,3
203,300,17,0,3
81,111,6,56,3
13,7,74,66,3
15,37,12,37,3
50,102,29,29,3
2,37,57,0,3
10,38,82,125,3
1,16,4,22,3
55,85,62,69,3
24,31,4,12,3
3,44,16,0,3
25,57,9,5,3
2,95,76,32,3
47,56,6,0,3
142,220,3,50,3
39,81,28,55,3
84,150,5,0,3
0,44,44,25,3
65,85,25,59,3
133,235,39,59,3
31,24,40,59,3
324,307,2,0,3
47,7,47,41,3
80,49,3,33,3
68,125,60,67,3
52,70,43,17,3
103,33,2,32,3
65,42,9,7,3
66,81,17,0,3
90,30,78,57,3
5,51,19,0,3
31,103,20,0,3
91,77,14,32,3
0,118,54,37,3
98,63,45,53,3
100,114,11,4,3
44,99,36,104,3
12,51,40,55,3
49,79,3,22,3
78,25,77,59,3
35,12,1,1,3
1,46,15,22,3
15,29,52,38,3
1,6,29,0,3
15,77,132,134,3
20,94,40,24,3
46,5,31,46,3
145,266,34,5,3
41,63,33,0,3
222,461,63,68,3
70,162,12,25,3
0,22,68,88,3
50,7,1,11,3
26,9,11,11,3
30,86,16,14,3
33,26,82,44,3
1,30,78,71,3
4,52,5,5,3
12,5,92,0,3
91,74,11,19,3
99,202,176,234,3
191,315,8,37,3
60,131,81,90,3
91,94,1,33,3
71,166,44,8,3
13,40,140,46,3
80,160,106,124,3
114,162,21,30,3
58,75,102,129,3
5,46,123,1,3
27,59,15,0,3
11,107,9,30,3
7,22,90,70,3
63,49,40,68,3
35,95,8,16,3
50,96,14,15,3
44,8,14,0,3
181,254,2,32,3
149,202,6,0,3
51,130,7,4,3
25,7,13,0,3
16,29,23,41,3
34,9,54,49,3
110,122,5,30,3
55,5,10,8,3
13,35,34,0,3
70,22,11,28,3
39,27,1,30,3
6,25,12,33,3
27,11,75,73,3
44,63,42,23,3
91,121,7,33,3
126,166,31,32,3
42,41,15,28,3
10,41,26,67,3
72,104,2,0,3
50,124,11,37,3
12,21,14,0,3
17,53,1,0,3
25,7,88,47,3
1,7,48,7,3
37,84,16,31,3
37,22,59,16,3
97,116,13,29,3
35,89,11,22,3
95,85,3,0,3
9,119,18,39,3
5,81,27,85,3
2,43,50,31,3
39,124,12,36,3
12,24,69,13,3
18,139,5,0,3
14,107,90,13,3
1,38,8,0,3
79,149,27,7,3
74,146,94,61,3
8,76,6,0,3
7,57,77,66,3
35,38,14,0,3
14,17,90,66,3
111,225,15,0,3
179,197,11,24,3
116,202,70,20,3
110,148,11,23,3
67,132,50,61,3
5,5,20,0,3
1,21,47,79,3
44,166,2,31,3
55,30,13,0,3
52,113,95,69,3
84,97,46,34,3
116,99,34,68,3
25,9,38,33,3
40,62,5,10,3
27,137,1,1,3
21,75,36,8,3
96,232,47,70,3
27,110,69,39,3
29,79,46,19,3
0,58,116,64,3
20,71,41,0,3
39,117,1,94,3
116,173,107,100,3
13,64,24,16,3
80,164,6,0,3
61,142,34,30,3
52,90,51,63,3
4,19,4,0,3
5,54,63,34,3
65,80,118,79,3
119,152,14,0,3
72,47,87,66,3
50,49,142,46,3
23,26,108,47,3
17,81,182,130,3
53,26,64,28,3
92,70,48,90,3
149,165,2,0,3
33,26,34,0,3
17,10,38,87,3
28,6,179,137,3
16,9,34,0,3
6,24,126,78,3
32,31,95,44,3
30,18,99,31,3
22,9,33,112,3
8,7,138,51,3
67,49,70,130,3
9,61,232,163,3
53,44,17,39,3
9,71,79,75,3
61,70,42,2,3
14,15,42,96,3
91,140,179,146,3
58,53,27,0,3
44,9,70,3,3
63,41,138,39,3
72,67,52,116,3
21,101,303,199,3
2,86,129,87,3
43,81,2,10,3
7,17,59,95,3
2,26,22,18,3
43,26,57,0,3
15,60,17,51,3
28,66,158,105,3
73,132,9,2,3
4,99,87,74,3
114,135,76,149,3
3,92,100,24,3
246,241,277,136,3
21,57,388,279,3
85,84,131,16,3
143,168,578,363,3
156,110,32,0,3
99,59,486,126,3
35,12,477,357,3
122,167,413,87,3
110,120,117,7,3
6,48,289,350,3
1,61,329,245,3
57,25,139,76,3
102,127,72,80,3
19,73,15,4,3
85,47,39,0,3
198,104,14,118,3
80,88,119,94,3
18,88,175,23,3
77,27,567,441,3
44,167,132,19,3
73,7,692,476,3
321,350,69,230,3
147,151,245,23,3
264,418,186,88,3
38,27,25,146,3
151,80,539,284,3
157,156,459,624,3
45,134,341,110,3
7,120,601,368,3
49,117,90,135,3
227,212,253,28,3
169,89,25,166,3
11,55,492,66,3
46,36,508,562,3
146,193,749,425,3
191,32,742,514,3
232,92,480,346,3
359,369,55,342,3
83,53,225,372,3
150,148,93,95,3
133,201,85,41,3
130,111,116,11,3
409,611,518,522,3
45,122,178,96,3
191,301,385,178,3
99,280,72,5,3
317,228,78,115,3
122,26,171,159,3
306,316,18,150,3
93,100,76,32,3
12,228,54,1,3
136,338,190,236,3
138,74,379,369,3
9,153,404,199,3
27,79,679,357,3
297,74,539,532,3
10,29,658,721,3
458,438,634,664,3
138,114,7,186,3
157,13,962,512,3
316,67,252,176,3
171,52,514,284,3
108,29,118,254,3
189,275,254,68,3
362,223,367,362,3
28,43,401,336,3
133,184,77,71,3
375,387,215,215,3
328,297,83,295,3
149,185,102,15,3
7,26,353,290,3
135,57,33,81,3
292,461,479,578,3
1,29,65,91,3
125,71,284,380,3
115,18,63,111,3
52,61,298,299,3
72,153,154,242,3
78,153,389,507,3
90,197,23,57,3
43,200,122,398,3
35,67,434,558,3
53,36,378,717,3
36,321,797,799,3
408,452,195,468,3
483,599,569,555,3
80,76,149,438,3
16,106,579,359,3
22,14,338,575,3
122,65,686,863,3
165,95,49,249,3
411,243,630,1023,3
195,24,557,343,3
376,40,1023,1023,3
221,135,386,288,3
52,56,1023,1023,3
209,52,410,285,3
39,118,936,1023,3
190,94,129,5,3
7,55,641,847,3
81,231,11,133,3
214,80,364,447,3
94,40,77,314,3
56,10,113,73,3
248,172,424,729,3
46,24,256,93,3
75,105,434,435,3
13,136,189,26,3
101,183,385,219,3
462,209,96,193,3
153,216,607,482,3
260,20,300,441,3
25,71,1023,1023,3
338,188,404,292,3
119,580,379,406,3
234,773,566,94,3
140,85,945,601,3
77,220,159,227,3
108,117,647,304,3
599,279,55,104,3
192,390,195,113,3
492,577,135,0,3
260,382,374,284,3
122,229,18,233,3
352,201,384,446,3
152,181,209,125,3
165,107,286,36,3
84,122,309,140,3
144,78,594,706,3
95,119,556,395,3
38,14,266,669,3
8,23,717,375,3
545,520,226,209,3
198,111,350,637,3
324,196,36,89,3
49,406,3,72,3
228,304,250,171,3
39,132,277,196,3
127,318,94,147,3
838,989,109,52,3
312,281,416,95,3
152,99,279,26,3
87,63,132,85,3
103,245,72,195,3
253,250,29,153,3
12,29,48,110,3
146,206,86,34,3
128,231,120,2,3
282,350,281,167,3
275,402,63,173,3
59,216,77,194,3
297,414,160,405,3
294,406,280,134,3
10,86,361,159,3
34,174,292,215,3
65,146,397,18,3
36,103,201,128,3
109,194,354,389,3
177,190,170,178,3
182,85,381,254,3
127,117,11,43,3
182,244,140,16,3
33,262,6,133,3
8,267,259,226,3
92,420,582,555,3
198,244,221,119,3
219,478,67,0,3
120,375,127,276,3
83,166,403,719,3
361,72,614,631,3
40,195,75,104,3
15,159,59,146,3
41,17,398,263,3
106,74,133,39,3
209,243,508,811,3
201,183,140,175,3
419,643,213,468,3
289,283,137,7,3
357,478,135,292,3
50,319,515,669,3
184,48,83,87,3
96,209,391,212,3
43,72,198,307,3
285,99,364,324,3
343,210,253,447,3
183,120,468,587,3
59,17,486,586,3
31,243,299,457,3
34,167,205,332,3
17,32,423,165,3
123,489,81,36,3
175,520,161,27,3
138,259,33,222,3
289,23,27,94,3
337,423,28,72,3
425,619,480,399,3
97,317,171,510,3
96,93,18,89,3
52,88,280,335,3
9,136,125,231,3
1,157,642,973,3
95,37,204,91,3
100,197,504,581,3
10,184,92,265,3
192,245,249,279,3
404,226,249,249,3
222,240,153,0,3
309,435,159,128,3
13,60,87,218,3
202,309,154,193,3
210,70,231,155,3
198,116,276,148,3
350,411,328,397,3
34,22,388,586,3
4,143,542,583,3
173,64,29,528,3
16,155,167,234,3
64,115,6,60,3
445,249,123,100,3
245,512,46,102,3
514,451,357,455,3
266,340,378,159,3
130,171,405,523,3
258,363,110,76,3
228,12,220,531,3
422,102,95,158,3
38,137,4,226,3
204,62,348,0,3
297,91,190,106,3
60,67,150,220,3
30,91,44,70,3
264,92,231,590,3
66,42,343,258,3
75,10,224,154,3
284,141,30,8,3
311,251,32,199,3
259,423,112,359,3
151,79,133,106,3
7,58,82,58,3
241,78,142,225,3
268,73,318,531,3
118,62,69,89,3
5,118,407,347,3
133,223,151,50,3
207,137,149,210,3
102,50,234,4,3
14,167,197,119,3
346,379,558,346,3
530,816,241,279,3
27,31,50,68,3
51,172,328,145,3
345,344,370,270,3
237,375,273,726,3
267,237,254,74,3
191,103,734,946,3
38,136,22,229,3
61,138,206,194,3
9,78,226,62,3
16,13,326,337,3
118,222,321,481,3
52,6,119,65,3
244,21,203,444,3
199,337,172,99,3
409,416,116,58,3
462,725,150,28,3
213,583,187,159,3
199,209,312,151,3
224,115,151,149,3
32,69,107,61,3
9,58,320,221,3
11,102,671,665,3
11,203,21,317,3
570,102,21,64,3
108,59,173,89,3
33,169,93,262,3
124,63,88,20,3
215,290,50,97,3
201,99,42,23,3
261,421,118,39,3
1,26,199,288,3
76,86,434,255,3
308,258,14,123,3
224,69,647,756,3
122,209,154,75,3
331,296,39,128,3
115,14,242,277,3
68,159,277,148,3
366,13,344,638,3
57,187,520,405,3
108,161,231,306,3
263,234,144,286,3
116,197,155,130,3
127,260,12,107,3
250,257,3,98,3
148,15,95,194,3
67,76,46,104,3
175,279,7,260,3
250,225,160,151,3
278,115,164,379,3
148,409,654,765,3
40,26,125,148,3
35,195,344,403,3
75,88,30,17,3
22,72,315,689,3
186,161,200,20,3
183,174,268,150,3
29,13,82,181,3
212,256,344,129,3
24,17,311,244,3
114,116,46,30,3
134,8,27,14,3
422,211,169,90,3
176,282,107,127,3
699,678,119,295,3
257,350,467,476,3
92,135,4,73,3
128,296,166,227,3
92,99,87,223,3
2,153,187,118,3
355,370,344,563,3
415,249,121,113,3
9,39,276,321,3
359,321,6,19,3
16,197,194,248,3
25,108,338,326,3
88,12,86,124,3
84,150,41,104,3
202,404,91,16,3
159,123,51,320,3
382,271,130,305,3
40,146,58,163,3
60,275,65,54,3
35,27,324,70,3
74,27,88,17,3
65,87,348,226,3
220,73,154,37,3
155,23,160,235,3
203,31,9,33,3
177,159,153,130,3
90,158,105,71,3
300,396,61,4,3
136,55,103,70,3
141,113,110,2,3
226,241,165,107,3
16,156,195,171,3
325,160,43,170,3
107,195,745,563,3
30,144,142,187,3
61,11,358,169,3
40,12,169,240,3
171,274,31,58,3
35,378,321,107,3
10,95,121,97,3
111,36,378,128,3
73,149,104,20,3
8,48,147,190,3
133,70,412,460,3
190,18,112,355,3
196,55,51,90,3
29,218,98,19,3
68,168,52,319,3
65,12,79,18,3
5,46,114,39,3
127,30,148,108,3
27,70,182,213,3
58,17,357,367,3
169,84,68,85,3
148,240,299,83,3
130,129,322,187,3
260,438,21,21,3
22,110,119,108,3
189,92,110,155,3
123,287,515,343,3
222,180,54,0,3
301,199,12,79,3
137,46,99,107,3
84,17,207,304,3
119,25,396,306,3
237,282,135,333,3
161,33,248,367,3
85,92,36,74,3
346,369,7,9,3
275,261,148,173,3
22,147,134,89,3
113,121,191,60,3
49,21,253,194,3
37,145,494,417,3
24,63,193,162,3
2,52,109,121,3
35,210,90,2,3
1,94,111,381,3
42,49,138,88,3
186,201,122,0,3
3,98,205,5,3
44,9,95,85,3
7,86,218,100,3
33,129,279,263,3
37,71,93,115,3
263,398,62,135,3
6,69,39,32,3
104,90,95,95,3
15,14,403,317,3
4,6,180,34,3
1,34,541,465,3
56,77,336,185,3
96,101,186,110,3
105,58,168,89,3
112,163,9,68,3
121,181,93,92,3
57,136,91,59,3
45,55,11,12,3
38,30,43,0,3
69,74,263,212,3
87,176,116,0,3
123,107,159,148,3
18,119,112,112,3
137,244,275,273,3
2,15,6,59,3
0,30,267,207,3
98,116,136,134,3
16,111,86,30,3
61,213,136,132,3
89,24,136,96,3
36,19,118,84,3
12,68,60,74,3
172,11,42,7,3
180,110,154,171,3
222,219,53,95,3
76,72,30,52,3
28,25,73,162,3
138,210,23,26,3
381,467,57,11,3
6,12,177,77,3
99,77,19,0,3
18,112,21,16,3
55,21,33,67,3
0,9,4,99,3
116,125,70,73,3
50,145,107,29,3
62,5,117,102,3
13,122,64,10,3
64,69,63,23,3
186,14,148,0,3
20,45,138,66,3
317,285,139,109,3
75,116,185,139,3
84,115,26,70,3
161,271,90,105,3
115,303,97,68,3
5,29,35,43,3
81,131,88,42,3
75,23,43,12,3
50,18,5,85,3
38,11,33,68,3
62,124,17,77,3
74,39,47,1,3
34,81,34,0,3
55,75,36,115,3
63,69,63,116,3
66,47,42,0,3
45,101,17,11,3
148,293,94,15,3
33,43,25,0,3
23,12,26,7,3
16,98,23,9,3
209,187,75,0,3
183,372,18,30,3
17,25,63,0,3
51,48,164,134,3
35,89,153,97,3
51,39,177,107,3
12,8,80,62,3
97,202,22,36,3
52,85,3,0,3
153,163,29,25,3
121,190,23,7,3
78,36,1,19,3
49,14,11,0,3
98,84,111,104,3
66,51,169,169,3
253,364,33,14,3
50,32,25,0,3
10,49,60,107,3
68,99,329,304,3
34,121,158,54,3
8,59,163,151,3
13,8,172,188,3
148,6,24,4,3
1,79,110,46,3
12,131,65,4,3
27,89,9,28,3
114,140,133,91,3
164,109,70,75,3
208,274,225,150,3
5,20,73,61,3
17,32,114,157,3
97,129,174,129,3
63,34,6,160,3
42,89,211,206,3
42,118,6,50,3
72,35,62,0,3
64,109,113,54,3
25,75,60,59,3
122,251,25,47,3
154,325,65,96,3
24,120,59,4,3
71,141,16,101,3
45,50,51,44,3
13,18,54,24,3
22,126,46,11,3
22,114,50,75,3
1,50,20,92,3
26,126,149,143,3
60,98,127,0,3
61,26,18,0,3
4,16,156,132,3
24,83,39,21,3
34,99,186,135,3
18,30,110,116,3
253,466,21,88,3
25,38,15,71,3
42,115,86,87,3
28,110,115,121,3
26,26,7,26,3
44,42,343,349,3
83,32,146,101,3
150,97,40,73,3
64,89,7,0,3
47,81,57,16,3
10,75,67,137,3
17,35,45,15,3
15,22,6,19,3
158,94,2,9,3
243,343,151,15,3
5,19,95,38,3
142,171,27,0,3
156,66,78,124,3
47,103,27,4,3
35,6,7,3,3
63,12,52,115,3
133,241,10,0,3
103,111,34,20,3
223,456,24,51,3
95,168,213,149,3
10,85,58,97,3
42,163,63,113,3
185,281,107,158,3
163,60,95,94,3
22,13,45,14,3
70,112,242,178,3
12,30,175,82,3
137,124,43,52,3
116,43,153,114,3
14,12,30,20,3
67,148,60,3,3
93,201,128,46,3
21,92,86,0,3
26,149,31,35,3
204,310,101,117,3
7,77,180,164,3
86,137,124,65,3
11,9,37,96,3
208,197,87,87,3
78,122,62,35,3
29,86,12,30,3
28,56,68,3,3
4,29,74,33,3
40,17,22,41,3
47,68,16,0,3
34,109,14,71,3
31,30,33,38,3
7,7,2,0,3
43,9,13,68,3
94,141,10,71,3
195,167,90,8,3
78,233,34,16,3
89,54,215,3,3
24,80,46,0,3
56,46,3,59,3
84,49,8,12,3
6,14,73,0,3
14,59,37,1,3
91,143,96,0,3
247,310,166,0,3
53,137,16,3,3
68,32,29,0,3
182,161,34,109,3
87,40,10,0,3
32,95,15,49,3
16,39,10,35,3
4,90,13,25,3
24,64,118,71,3
19,14,342,242,3
112,28,190,71,3
53,51,474,424,3
47,35,31,0,3
65,86,49,135,3
63,126,16,5,3
188,281,61,47,3
53,50,80,120,3
50,102,1,42,3
145,207,6,29,3
81,22,4,0,3
197,323,78,0,3
105,183,29,0,3
52,61,57,0,3
79,134,73,0,3
40,28,54,17,3
94,31,182,24,3
137,261,10,11,3
226,228,286,96,3
32,188,81,0,3
56,82,74,174,3
60,48,285,209,3
62,245,21,38,3
178,317,225,162,3
41,25,113,53,3
32,68,171,151,3
180,326,73,109,3
194,240,111,81,3
38,92,55,5,3
179,266,28,117,3
120,123,156,62,3
162,196,278,185,3
62,152,4,5,3
6,91,56,134,3
148,67,298,210,3
93,125,541,532,3
2,103,10,0,3
59,184,254,327,3
62,134,56,40,3
27,89,3,46,3
177,367,292,268,3
24,206,71,110,3
7,9,142,99,3
5,127,74,220,3
35,11,145,60,3
46,101,114,42,3
37,17,35,94,3
108,75,32,0,3
77,41,14,52,3
46,151,36,75,3
40,41,89,68,3
70,91,26,75,3
80,13,16,2,3
28,30,31,4,3
28,43,92,155,3
143,178,3,0,3
65,95,8,32,3
77,243,28,47,3
157,234,3,8,3
124,99,95,103,3
98,107,2,9,3
51,99,74,54,3
197,239,65,30,3
61,61,104,76,3
87,29,44,101,3
43,115,168,161,3
45,207,5,42,3
19,35,131,234,3
79,92,159,155,3
33,53,68,143,3
93,103,359,276,3
80,132,5,56,3
23,119,89,26,3
167,230,13,42,3
79,91,263,367,3
5,18,93,23,3
41,39,202,40,3
24,40,1,126,3
196,100,63,32,3
56,47,204,96,3
125,140,216,252,3
164,178,6,12,3
65,97,610,611,3
2,73,49,56,3
33,29,480,497,3
87,20,219,166,3
112,106,318,344,3
68,60,132,166,3
44,32,140,303,3
165,124,387,236,3
68,213,38,34,3
64,23,388,274,3
69,141,326,291,3
116,99,374,457,3
93,89,562,562,3
137,42,52,137,3
110,114,440,494,3
45,63,272,109,3
15,81,216,184,3
109,185,52,32,3
41,92,241,300,3
46,54,173,68,3
25,6,14,0,3
136,161,165,235,3
68,44,250,123,3
211,271,27,12,3
17,35,9,113,3
17,112,336,253,3
8,106,24,122,3
13,47,466,336,3
136,81,25,0,3
23,145,172,177,3
114,84,129,61,3
29,175,277,355,3
118,153,15,115,3
68,78,240,273,3
55,62,36,18,3
152,95,96,103,3
97,122,154,62,3
56,63,42,28,3
114,116,262,174,3
1,23,211,191,3
6,17,22,34,3
54,57,236,95,3
7,65,91,42,3
51,174,148,279,3
59,134,367,348,3
103,60,98,227,3
1,8,180,188,3
40,42,189,123,3
9,19,101,150,3
54,30,170,181,3
5,133,71,55,3
27,80,217,260,3
59,113,165,188,3
176,316,185,17,3
171,152,350,185,3
45,13,324,236,3
55,87,662,572,3
54,5,489,455,3
15,26,64,57,3
76,8,3,12,3
132,86,4,0,3
149,219,183,95,3
29,61,41,108,3
116,240,168,137,3
134,204,172,271,3
84,31,38,4,3
78,129,8,62,3
48,85,332,237,3
62,239,57,76,3
7,51,2,302,3
100,157,206,199,3
44,32,55,79,3
99,172,48,83,3
170,247,126,129,3
129,172,47,143,3
15,46,339,337,3
21,106,166,94,3
50,73,79,121,3
61,72,260,320,3
78,106,76,62,3
3,96,111,71,3
140,175,53,10,3
135,179,172,139,3
0,17,38,166,3
31,20,467,329,3
11,119,144,59,3
116,175,491,459,3
131,88,254,158,3
70,199,294,262,3
4,27,135,133,3
140,168,4,70,3
31,6,2,0,3
115,91,15,54,3
12,102,8,56,3
107,92,28,11,3
77,186,231,184,3
24,7,420,338,3
83,73,215,96,3
21,29,555,575,3
17,46,68,19,3
81,49,265,175,3
11,24,63,65,3
1,90,309,416,3
147,137,57,66,3
97,147,55,214,3
92,150,83,167,3
63,79,52,22,3
48,9,125,65,3
134,169,345,235,3
115,60,45,1,3
143,91,336,177,3
95,49,158,58,3
231,194,61,51,3
116,19,29,113,3
163,168,24,15,3
38,124,218,111,3
2,72,9,43,3
26,27,63,11,3
39,8,164,155,3
1,57,239,399,3
23,24,314,142,3
130,119,228,440,3
186,308,582,437,3
67,136,24,44,3
0,39,234,237,3
57,120,488,457,3
43,135,150,157,3
114,165,489,427,3
103,37,47,71,3
158,247,126,99,3
161,162,148,147,3
1,98,42,0,3
31,79,67,85,3
60,160,126,75,3
73,151,46,0,3
79,9,91,114,3
72,185,52,53,3
10,17,34,41,3
79,218,13,26,3
7,17,65,3,3
53,31,103,25,3
15,10,154,0,3
30,102,173,162,3
64,67,6,68,3
45,37,177,40,3
21,85,46,6,3
44,46,80,47,3
21,74,13,32,3
4,80,136,237,3
121,127,88,38,3
5,34,45,0,3
125,257,77,137,3
78,77,30,134,3
108,302,88,95,3
7,35,66,40,3
39,178,14,2,3
93,109,42,76,3
162,125,245,311,3
4,193,165,24,3
79,158,88,167,3
48,135,227,135,3
74,147,260,146,3
6,7,88,14,3
80,118,233,166,3
126,56,121,101,3
91,138,153,65,3
137,125,70,105,3
229,188,279,293,3
32,90,33,52,3
154,263,83,142,3
78,121,90,10,3
12,19,48,69,3
134,154,115,77,3
14,40,24,36,3
9,6,2,0,3
216,239,140,175,3
150,43,96,16,3
116,247,74,138,3
51,45,110,128,3
3,36,5,0,3
60,158,20,50,3
17,121,159,99,3
51,107,93,97,3
5,42,73,132,3
34,93,50,34,3
7,66,80,152,3
132,226,90,100,3
74,215,67,114,3
190,347,29,56,3
22,102,24,24,3
19,42,89,27,3
111,171,48,26,3
3,82,62,85,3
162,158,148,177,3
20,73,11,82,3
0,46,85,80,3
1,46,84,44,3
25,65,82,28,3
80,139,1,8,3
65,80,59,22,3
5,6,7,0,3
268,276,10,28,3
274,327,38,13,3
18,57,91,32,3
105,192,82,8,3
14,64,46,66,3
99,121,74,57,3
32,71,3,10,3
75,137,192,176,3
27,9,133,136,3
36,145,148,159,3
34,33,12,0,3
39,13,51,50,3
83,38,161,184,3
38,9,46,44,3
139,181,312,232,3
73,159,45,26,3
97,123,312,232,3
98,61,16,23,3
71,36,55,72,3
39,106,35,0,3
47,79,91,55,3
85,77,26,13,3
3,80,62,62,3
8,5,43,2,3
6,106,111,131,3
65,128,165,131,3
57,73,62,151,3
63,17,92,38,3
28,6,44,10,3
71,66,16,15,3
8,14,121,51,3
160,153,71,36,3
56,76,169,92,3
11,24,10,0,3
176,243,58,66,3
38,109,69,70,3
188,235,35,43,3
154,198,18,65,3
18,6,10,0,3
53,50,44,16,3
73,69,15,3,3
55,33,51,0,3
26,97,128,93,3
140,105,62,0,3
99,87,107,82,3
0,21,52,43,3
14,7,64,0,3
14,64,96,101,3
44,34,71,96,3
30,85,5,68,3
131,161,65,45,3
141,100,23,140,3
38,88,32,44,3
2,20,56,33,3
9,21,134,31,3
32,18,94,97,3
13,15,7,45,3
59,38,52,7,3
118,79,47,45,3
30,105,15,0,3
187,225,64,0,3
2,31,75,0,3
49,98,30,11,3
119,131,106,67,3
25,11,23,73,3
10,98,87,110,3
31,67,17,8,3
187,313,169,117,3
6,29,35,0,3
115,188,52,35,3
1,27,10,29,3
70,68,86,28,3
29,32,62,115,3
50,21,47,13,3
6,20,27,38,3
41,17,24,22,3
135,124,59,0,3
69,27,124,103,3
4,50,70,0,3
40,29,86,16,3
67,101,51,50,3
78,70,8,61,3
63,112,64,113,3
84,81,61,138,3
6,65,71,90,3
3,32,12,22,3
117,115,19,25,3
54,65,41,0,3
2,70,8,0,3
51,44,101,84,3
23,42,6,0,3
126,163,82,85,3
11,63,73,0,3
26,46,18,3,3
61,63,100,23,3
36,31,18,0,3
53,8,82,0,3
5,72,43,24,3
35,155,66,35,3
37,60,121,39,3
56,50,163,141,3
31,20,4,0,3
124,139,164,155,3
12,23,39,99,3
104,120,81,127,3
7,7,11,68,3
38,98,29,3,3
99,203,82,64,3
26,141,22,39,3
22,17,2,0,3
5,37,12,33,3
69,171,56,73,3
65,127,39,70,3
1,27,11,0,3
41,38,2,32,3
51,93,13,0,3
1,55,102,62,3
61,11,170,148,3
12,43,45,38,3
36,110,90,146,3
120,65,57,76,3
55,90,1,0,3
143,187,87,36,3
122,199,1,0,3
29,94,78,49,3
40,112,47,25,3
15,6,70,20,3
124,69,187,125,3
10,31,8,0,3
22,128,134,105,3
11,71,44,38,3
47,8,81,103,3
191,279,10,30,3
24,53,1,30,3
160,224,49,31,3
15,15,12,0,3
9,26,63,0,3
18,77,112,121,3
75,79,49,16,3
145,155,117,124,3
25,13,5,0,3
20,105,13,41,3
67,197,29,36,3
168,173,63,3,3
84,28,15,0,3
108,77,63,35,3
43,22,5,23,3
11,73,97,42,3
114,188,61,37,3
221,222,39,44,3
15,46,1,0,3
101,113,7,24,3
35,159,1,0,3
70,60,151,124,3
92,178,30,78,3
82,5,63,44,3
41,70,10,74,3
1,23,45,68,3
4,14,5,0,3
18,115,11,36,3
37,135,24,0,3
5,19,33,0,3
95,223,35,0,3
197,313,55,10,3
5,31,2,34,3
15,59,34,0,3
62,95,36,0,3
27,75,80,13,3
2,5,28,0,3
57,133,32,97,3
26,53,69,78,3
33,43,20,20,3
11,47,17,20,3
66,35,2,59,3
11,64,22,59,3
77,121,55,58,3
12,49,11,39,3
10,44,128,88,3
62,99,6,43,3
1,69,154,15,3
13,63,42,18,3
2,25,244,136,3
0,12,88,56,3
40,14,124,39,3
79,142,124,140,3
119,147,14,0,3
85,15,11,51,3
50,106,97,123,3
134,169,8,7,3
28,8,5,16,3
47,74,3,0,3
28,85,72,71,3
26,7,5,0,3
83,140,25,77,3
44,23,2,0,3
0,9,12,0,3
66,88,11,15,3
3,23,72,68,3
46,23,5,0,3
80,124,73,127,3
151,138,2,0,3
1,12,43,71,3
12,11,1,30,3
3,33,49,32,3
67,14,20,0,3
122,174,8,0,3
91,94,35,24,3
4,12,114,28,3
70,95,30,57,3
7,32,79,49,3
13,42,120,45,3
1,47,90,55,3
177,193,125,100,3
71,63,18,67,3
104,19,105,136,3
30,60,14,33,3
34,7,12,24,3
147,79,40,53,3
32,45,9,9,3
43,20,51,76,3
28,7,35,0,3
17,57,35,50,3
34,111,10,24,3
127,146,35,1,3
33,60,23,21,3
50,101,64,24,3
79,131,68,6,3
0,9,14,1,3
143,187,15,0,3
0,57,29,11,3
105,92,118,58,3
78,90,43,21,3
31,82,13,9,3
137,144,26,6,3
47,115,60,45,3
79,163,59,0,3
15,67,80,93,3
38,89,32,0,3
30,81,3,0,3
112,170,3,9,3
73,90,25,5,3
36,35,25,24,3
12,33,17,15,3
55,70,71,13,3
104,49,22,20,3
41,7,9,21,3
62,64,38,27,3
31,7,24,20,3
0,24,11,31,3
31,114,50,63,3
77,134,47,30,3
125,255,28,71,3
83,18,14,0,3
87,23,2,48,3
163,211,61,78,3
129,162,33,13,3
54,72,53,0,3
48,24,54,21,3
27,73,63,38,3
56,18,55,23,3
19,45,66,46,3
63,54,47,61,3
31,101,31,0,3
9,61,54,59,3
66,10,33,13,3
57,6,1,67,3
78,36,1,45,3
68,27,2,13,3
78,99,5,5,3
136,84,38,0,3
27,7,106,72,3
140,181,10,22,3
6,15,10,11,3
7,14,17,0,3
62,18,22,0,3
7,30,42,1,3
31,87,101,0,3
66,19,45,32,3
6,88,106,1,3
4,26,17,7,3
2,40,81,54,3
52,11,45,0,3
95,38,98,52,3
0,25,73,6,3
71,120,35,83,3
68,18,13,11,3
30,87,57,3,3
59,8,96,72,3
4,9,74,45,3
65,23,19,92,3
32,19,40,22,3
1,33,2,10,3
26,101,12,0,3
34,65,82,4,3
1,19,97,43,3
59,85,39,0,3
31,31,26,10,3
0,8,42,34,3
188,228,7,9,3
110,84,34,25,3
4,16,8,0,3
46,48,31,32,3
70,99,38,28,3
91,83,121,74,3
57,103,74,86,3
20,12,90,123,3
43,41,50,63,3
94,112,75,80,3
23,32,45,21,3
63,123,96,76,3
2,25,13,0,3
57,104,7,0,3
63,84,62,16,3
4,17,74,32,3
127,85,66,75,3
24,114,16,13,3
132,207,16,12,3
3,28,19,8,3
7,67,23,0,3
11,38,3,6,3
19,54,42,23,3
56,55,37,50,3
124,107,14,0,3
47,51,8,0,3
113,84,49,57,3
38,13,35,2,3
5,26,71,69,3
113,157,51,0,3
73,65,2,0,3
3,15,3,8,3
78,59,29,0,3
0,7,8,13,3
27,19,7,0,3
42,62,14,1,3
82,63,6,29,3
1,27,11,2,3
6,15,31,0,3
41,87,21,0,3
51,81,66,18,3
6,44,13,28,3
49,72,29,40,3
29,15,22,25,3
28,79,24,8,3
43,64,18,0,3
3,75,59,34,3
15,8,25,0,3
55,128,36,0,3
14,17,2,60,3
24,9,20,5,3
57,130,37,44,3
12,7,18,6,3
34,81,2,9,3
38,93,1,0,3
9,5,37,1,3
2,8,41,40,3
3,33,4,0,3
16,7,1,5,3
1,12,10,0,3
5,37,16,0,3
21,25,11,21,3
65,71,16,0,3
53,69,4,28,3
19,80,23,10,3
4,16,4,0,3
64,6,21,15,3
7,33,51,41,3
68,71,5,0,3
0,5,28,18,3
32,78,2,0,3
6,35,5,19,3
7,28,14,0,3
2,17,3,0,3
17,53,10,13,3
10,5,11,0,3
18,13,13,18,3
30,76,5,0,3
2,9,14,0,3
35,35,35,14,3
70,72,38,0,3
41,6,12,21,3
32,25,15,0,3
25,41,5,4,3
8,38,6,0,3
5,5,15,0,3
14,7,13,21,3
10,43,7,0,3
0,44,2,0,3
21,39,30,11,3
5,5,19,2,3
3,47,15,16,3
2,9,16,0,3
31,46,2,0,3
1,55,1,0,3
5,27,19,0,3
23,6,12,23,3
12,42,4,0,3
1,41,1,0,3
26,10,14,0,3
1,6,9,3,3
5,28,6,9,3
0,10,17,0,3
40,46,1,13,3
34,77,5,2,3
53,91,11,0,3
22,5,25,32,3
10,38,6,0,3
0,15,6,0,3
7,5,16,13,3
4,33,7,0,3
3,30,9,16,3
0,12,12,0,3
21,24,1,0,3
7,48,10,6,3
13,21,18,4,3
14,5,20,36,3
3,20,5,0,3
11,8,7,0,3
3,11,20,16,3
5,42,9,0,3
0,32,23,24,3
0,5,23,0,3
23,22,13,7,3
4,44,31,18,3
3,16,11,22,3
3,11,26,29,3
3,33,13,8,3
5,8,30,0,3
2,9,30,26,3
11,46,17,0,3
0,55,8,4,3
6,43,25,0,3
16,23,2,15,3
1,48,47,33,3
4,6,4,0,3
27,11,19,33,3
12,32,52,31,3
4,14,3,0,3
3,5,82,51,3
65,89,50,76,3
2,29,47,66,3
10,7,38,55,3
39,40,17,0,3
26,12,64,58,3
0,7,59,48,3
3,25,43,79,3
18,41,3,11,3
0,22,3,27,3
0,10,3,2,3
25,75,7,14,3
4,18,31,39,3
16,7,5,2,3
114,116,17,51,3
96,18,6,61,3
18,65,91,77,3
26,9,49,75,3
23,65,25,0,3
64,32,100,39,3
67,45,42,137,3
17,21,12,17,3
28,80,5,41,3
7,18,123,117,3
1,39,82,41,3
26,79,153,169,3
5,14,2,8,3
9,13,63,91,3
31,63,32,31,3
0,21,109,85,3
20,7,144,141,3
56,93,103,96,3
0,59,128,73,3
0,15,21,28,3
29,45,40,10,3
25,77,43,3,3
3,25,120,96,3
4,44,50,48,3
50,74,145,143,3
4,19,32,18,3
22,43,117,138,3
53,86,71,100,3
35,76,34,51,3
16,46,42,38,3
15,23,9,42,3
47,106,24,42,3
7,26,33,0,3
51,100,4,0,3
35,81,104,40,3
4,15,79,49,3
10,55,155,75,3
47,87,107,26,3
26,76,112,84,3
58,62,2,3,3
18,25,95,86,3
6,64,113,95,3
15,64,31,10,3
26,78,107,63,3
14,77,74,67,3
22,31,17,1,3
113,142,150,120,3
18,101,14,0,3
2,44,77,53,3
26,8,92,71,3
71,87,21,0,3
39,84,87,85,3
69,60,22,20,3
13,33,92,163,3
7,67,133,91,3
25,19,2,32,3
31,15,148,136,3
35,14,7,26,3
18,82,37,59,3
7,57,95,68,3
16,13,69,91,3
4,43,33,45,3
26,48,27,8,3
31,34,125,138,3
2,50,5,0,3
7,21,19,42,3
3,25,21,0,3
22,58,51,41,3
0,58,105,160,3
18,39,2,0,3
13,11,37,50,3
5,57,108,91,3
50,71,35,7,3
24,59,73,89,3
16,62,1,0,3
5,8,7,0,3
12,26,50,45,3
1,42,3,19,3
1,37,102,26,3
23,22,1,0,3
3,27,125,81,3
1,73,15,31,3
1,17,52,29,3
15,26,34,33,3
0,39,12,6,3
1,11,59,66,3
0,48,56,60,3
7,36,62,41,3
82,13,67,96,3
15,65,61,42,3
33,7,67,114,3
91,14,8,3,3
7,5,2,15,3
73,6,57,64,3
32,15,32,0,3
3,22,110,47,3
14,34,5,0,3
10,14,95,58,3
1,34,108,41,3
51,62,26,0,3
17,21,176,166,3
6,64,48,51,3
11,18,47,0,3
46,6,6,13,3
1,52,38,0,3
11,25,24,2,3
67,6,147,173,3
4,49,25,20,3
11,39,138,165,3
10,18,124,77,3
2,24,41,0,3
3,65,59,99,3
32,17,5,0,3
35,6,40,44,3
3,28,20,0,3
2,10,1,3,3
32,32,94,123,3
17,35,4,0,3
10,24,144,166,3
10,19,14,0,3
26,22,56,96,3
9,46,21,30,3
25,29,9,36,3
14,27,11,51,3
10,25,34,0,3
13,7,14,0,3
8,42,83,49,3
55,28,78,37,3
71,25,37,24,3
1,35,71,70,3
4,5,15,28,3
37,14,103,108,3
40,22,38,0,3
38,6,43,84,3
15,21,1,0,3
0,11,8,7,3
23,15,10,8,3
10,59,4,2,3
15,31,34,13,3
20,5,4,5,3
32,25,20,0,3
30,41,7,0,3
1,24,43,7,3
0,41,37,82,3
25,5,7,4,3
2,13,44,115,3
23,14,31,31,3
4,31,11,17,3
70,8,42,14,3
17,23,21,1,3
26,26,3,0,3
43,6,39,33,3
56,67,18,4,3
12,6,2,35,3
2,59,14,0,3
7,22,48,24,3
11,12,60,29,3
51,9,83,55,3
21,53,24,23,3
18,7,53,29,3
28,15,84,169,3
49,17,14,0,3
20,10,138,192,3
13,5,1,13,3
10,18,4,1,3
24,18,29,16,3
15,19,32,67,3
9,19,41,3,3
1,43,71,86,3
12,28,82,50,3
2,7,9,0,3
5,44,76,70,3
2,20,49,13,3
26,15,49,78,3
0,41,7,1,3
3,16,32,1,3
14,16,60,45,3
0,46,32,0,3
3,57,36,43,3
0,30,2,0,3
1,11,4,0,3
5,62,47,20,3
14,6,49,0,3
33,6,19,3,3
0,37,34,5,3
6,12,10,5,3
1,43,62,87,3
5,47,53,60,3
56,6,13,4,3
4,11,100,120,3
24,38,23,0,3
20,25,1,0,3
29,6,106,95,3
2,32,47,64,3
0,43,76,56,3
0,23,27,59,3
23,56,43,77,3
1,27,9,17,3
23,38,50,69,3
0,30,18,32,3
14,15,7,13,3
7,37,10,9,3
17,10,40,36,3
17,19,9,0,3
9,10,54,37,3
