Ch1,Ch2,Ch3,Ch4,label
42,111,13,23,1
6,51,83,168,1
5,6,61,128,1
108,143,67,109,1
79,97,8,50,1
100,150,131,47,1
9,27,8,7,1
34,101,169,191,1
6,61,77,40,1
107,135,75,133,1
54,92,154,149,1
185,207,31,24,1
0,27,65,8,1
79,143,131,107,1
81,104,244,259,1
8,14,246,0,1
6,13,66,40,1
156,138,412,299,1
135,85,114,97,1
49,33,47,7,1
7,10,55,8,1
134,238,144,141,1
84,9,323,219,1
190,213,84,106,1
69,121,14,120,1
11,27,74,28,1
156,247,229,173,1
15,132,85,21,1
44,23,14,15,1
100,58,221,17,1
10,49,209,113,1
11,63,99,13,1
125,180,109,0,1
3,103,169,14,1
125,207,53,4,1
58,35,14,112,1
31,125,139,154,1
108,91,151,194,1
53,66,51,58,1
107,145,23,59,1
2,28,60,41,1
60,71,191,147,1
70,235,53,30,1
143,91,70,237,1
90,111,35,68,1
101,109,173,89,1
38,73,123,166,1
88,221,70,65,1
31,39,50,0,1
138,51,394,177,1
127,564,137,470,1
3,14,291,75,1
251,465,247,14,1
134,39,93,184,1
117,74,397,90,1
149,121,518,193,1
137,217,212,201,1
76,215,209,177,1
443,95,726,210,1
241,135,233,0,1
427,14,503,572,1
181,51,741,25,1
185,13,228,279,1
104,135,907,110,1
227,339,102,145,1
119,86,1017,87,1
159,77,276,807,1
190,281,719,435,1
103,414,243,252,1
188,65,1023,1023,1
191,256,77,386,1
95,25,1023,1023,1
253,5,399,389,1
436,235,480,595,1
199,104,287,225,1
45,10,738,101,1
442,548,403,1023,1
260,45,19,261,1
293,67,669,1023,1
204,471,386,27,1
234,32,73,700,1
196,225,1002,1023,1
60,287,507,0,1
284,117,230,1023,1
452,307,1023,75,1
61,365,1023,1023,1
27,80,126,780,1
437,234,644,40,1
274,137,48,395,1
397,73,1023,1023,1
204,277,41,66,1
8,378,1023,1023,1
266,169,417,746,1
321,332,634,940,1
28,77,998,1023,1
492,65,264,541,1
188,444,588,705,1
371,303,1014,1023,1
31,59,1023,523,1
230,410,732,686,1
279,166,114,732,1
412,34,1019,896,1
20,48,68,285,1
60,56,333,212,1
47,35,713,161,1
22,37,545,321,1
200,19,300,737,1
201,201,352,696,1
124,127,72,444,1
361,19,1023,1023,1
90,77,101,578,1
97,87,208,155,1
181,121,355,384,1
56,191,500,699,1
213,203,231,128,1
146,270,479,460,1
33,38,287,738,1
133,146,147,152,1
164,187,25,0,1
89,103,335,834,1
81,46,534,274,1
63,63,310,169,1
203,144,859,223,1
158,31,89,718,1
382,335,23,413,1
146,443,1023,1023,1
38,179,177,873,1
110,188,781,767,1
488,130,624,416,1
124,322,246,803,1
119,410,540,89,1
156,38,676,1023,1
23,147,834,210,1
110,107,469,210,1
124,26,1023,1013,1
250,266,199,674,1
254,470,262,347,1
17,141,827,611,1
60,61,34,578,1
141,221,1023,1023,1
184,187,416,688,1
70,123,1023,640,1
206,389,219,41,1
10,94,540,375,1
98,35,560,303,1
27,110,861,287,1
211,169,552,380,1
38,43,141,17,1
73,25,305,418,1
79,111,624,888,1
28,31,1023,1023,1
22,402,24,188,1
122,276,890,389,1
271,306,352,857,1
220,440,1023,1023,1
423,283,1023,965,1
276,129,639,287,1
130,199,281,95,1
145,155,710,60,1
108,54,624,413,1
62,6,475,227,1
66,87,94,331,1
173,133,1023,1023,1
109,128,1023,1023,1
138,456,667,612,1
200,704,949,1023,1
221,248,1023,998,1
205,39,186,458,1
230,4,1023,1023,1
75,145,1023,640,1
75,10,888,851,1
76,122,174,443,1
88,70,327,8,1
375,204,233,334,1
73,85,455,200,1
180,202,226,5,1
61,103,147,131,1
86,112,848,501,1
0,69,181,317,1
58,20,1023,1023,1
179,129,1023,990,1
111,259,66,656,1
7,90,1023,1023,1
102,100,617,318,1
5,74,443,307,1
30,132,740,17,1
29,144,671,337,1
375,224,405,273,1
165,464,78,155,1
223,428,529,264,1
98,336,300,151,1
91,232,181,220,1
128,183,228,216,1
92,21,65,71,1
2,15,63,249,1
102,199,28,279,1
179,183,112,145,1
18,37,310,5,1
38,83,615,5,1
29,63,81,181,1
9,101,493,260,1
9,17,56,21,1
40,106,137,183,1
27,9,225,0,1
150,262,133,69,1
63,153,375,196,1
257,276,95,168,1
13,191,98,358,1
46,53,507,1023,1
88,18,542,397,1
196,371,484,254,1
3,63,274,197,1
65,76,311,297,1
5,141,92,57,1
34,9,6,15,1
58,126,26,0,1
10,35,407,359,1
27,80,91,43,1
35,11,510,461,1
85,27,394,354,1
68,227,302,347,1
69,49,268,121,1
78,116,89,86,1
40,19,375,345,1
156,121,428,526,1
185,130,322,164,1
28,200,455,307,1
42,88,81,5,1
104,87,78,93,1
1,131,152,146,1
157,128,23,228,1
37,61,69,303,1
121,207,26,123,1
102,110,452,417,1
113,139,30,142,1
82,119,35,154,1
15,145,263,498,1
3,7,649,371,1
102,160,434,133,1
46,35,367,274,1
60,107,279,0,1
554,466,303,300,1
143,194,107,294,1
105,63,148,144,1
16,31,99,22,1
27,18,252,88,1
5,44,157,241,1
6,128,89,313,1
66,17,131,179,1
89,8,175,160,1
52,82,276,458,1
85,199,344,238,1
135,197,100,11,1
48,6,12,222,1
70,115,478,588,1
6,100,484,281,1
135,95,222,118,1
203,166,342,43,1
50,30,273,52,1
163,221,235,251,1
152,149,175,186,1
186,29,151,205,1
76,214,208,28,1
266,15,465,309,1
203,32,518,200,1
88,133,5,203,1
4,39,433,329,1
16,71,216,109,1
142,158,217,315,1
127,101,493,108,1
111,165,606,552,1
250,167,94,3,1
2,8,132,304,1
11,181,247,28,1
29,78,213,210,1
130,339,225,546,1
177,121,12,140,1
25,43,88,37,1
143,270,75,232,1
54,188,254,296,1
178,94,141,26,1
25,14,566,426,1
158,55,135,0,1
61,163,132,150,1
90,221,164,99,1
35,204,137,273,1
172,268,88,0,1
28,191,203,21,1
42,23,259,624,1
292,147,104,205,1
90,53,197,34,1
45,9,111,53,1
41,35,148,52,1
24,239,709,739,1
105,130,148,39,1
52,30,553,517,1
13,25,176,47,1
102,79,367,92,1
25,12,8,41,1
181,180,16,28,1
6,196,187,103,1
55,109,91,41,1
148,384,35,38,1
26,347,212,402,1
44,20,347,260,1
10,80,65,72,1
274,243,106,74,1
49,13,242,374,1
21,14,265,55,1
60,124,219,196,1
203,255,61,28,1
108,294,409,323,1
173,147,176,184,1
86,87,12,204,1
36,133,84,99,1
91,159,77,9,1
126,412,253,353,1
47,28,32,0,1
32,127,49,31,1
63,128,61,31,1
81,275,11,0,1
187,170,688,491,1
53,73,355,459,1
47,140,277,96,1
134,131,526,276,1
111,170,129,277,1
43,113,283,255,1
66,7,11,23,1
44,136,104,98,1
1,136,4,0,1
178,59,88,0,1
293,163,80,104,1
12,39,105,214,1
159,60,214,232,1
164,17,488,372,1
52,17,147,153,1
70,104,465,183,1
109,134,314,309,1
184,175,227,223,1
135,17,375,37,1
4,126,284,199,1
155,185,342,321,1
144,133,225,222,1
11,66,258,183,1
0,36,138,227,1
190,333,121,57,1
91,152,1,75,1
477,540,152,136,1
37,9,263,287,1
213,391,197,472,1
6,156,574,843,1
204,109,716,473,1
30,91,243,179,1
107,143,423,317,1
5,23,282,204,1
70,85,156,154,1
18,65,3,70,1
26,25,371,441,1
46,116,108,4,1
11,29,42,56,1
102,81,221,47,1
25,6,310,203,1
274,296,332,140,1
345,379,63,150,1
50,47,158,167,1
212,159,137,135,1
169,106,120,204,1
99,28,113,0,1
10,70,1,33,1
169,171,7,79,1
43,162,791,382,1
86,260,42,291,1
177,118,439,381,1
176,27,387,335,1
32,11,139,206,1
150,146,25,190,1
56,63,207,47,1
160,174,524,324,1
9,116,171,109,1
107,171,138,75,1
90,242,192,211,1
89,140,165,222,1
89,61,74,274,1
36,119,212,84,1
80,83,21,42,1
241,146,2,27,1
460,428,60,86,1
71,87,10,34,1
9,47,359,337,1
114,33,429,162,1
66,241,321,554,1
10,62,209,398,1
139,309,512,330,1
92,145,250,150,1
1,32,143,146,1
69,29,638,356,1
313,121,176,14,1
39,200,28,29,1
31,48,651,168,1
195,317,212,0,1
122,79,730,606,1
96,197,211,179,1
110,68,306,54,1
211,23,101,439,1
167,106,116,428,1
33,15,245,52,1
14,61,57,29,1
188,9,186,0,1
243,190,370,107,1
341,85,586,517,1
373,317,311,330,1
138,69,926,913,1
117,86,146,272,1
3,129,551,649,1
132,143,149,716,1
78,7,327,789,1
94,41,57,169,1
377,677,467,295,1
71,71,44,327,1
287,503,356,171,1
73,164,524,693,1
175,184,548,123,1
192,242,202,36,1
105,54,136,234,1
486,249,1023,924,1
7,107,376,80,1
274,135,60,565,1
327,337,854,1023,1
56,151,325,568,1
267,86,857,845,1
408,681,682,135,1
46,49,647,725,1
8,83,30,532,1
229,24,297,342,1
2,45,192,31,1
29,7,103,147,1
130,41,106,145,1
11,153,665,626,1
200,98,379,16,1
250,64,193,275,1
87,137,264,2,1
302,187,554,429,1
518,71,725,295,1
161,545,1023,694,1
234,259,638,1023,1
39,62,160,5,1
21,488,421,213,1
419,68,651,542,1
53,34,1023,1023,1
229,398,1023,1023,1
171,113,618,343,1
280,287,891,453,1
15,388,880,1023,1
172,11,132,11,1
196,21,112,324,1
219,13,633,1023,1
325,435,369,26,1
26,38,620,315,1
338,116,333,604,1
150,16,905,782,1
60,107,102,851,1
266,60,942,295,1
249,72,620,52,1
70,19,250,204,1
10,209,1023,620,1
16,186,549,203,1
521,462,1023,376,1
144,261,95,0,1
106,58,706,109,1
341,74,639,209,1
46,192,1023,604,1
213,332,697,632,1
216,65,668,611,1
87,240,1023,1023,1
25,39,65,375,1
204,69,435,222,1
66,46,245,100,1
307,178,75,366,1
102,5,1023,188,1
47,153,1023,53,1
180,259,372,1023,1
352,426,33,567,1
73,283,220,387,1
84,85,336,163,1
53,108,773,1023,1
290,88,431,53,1
72,148,94,528,1
85,76,205,406,1
16,95,77,90,1
24,75,198,541,1
289,207,1023,781,1
228,278,198,186,1
47,154,891,539,1
477,55,258,537,1
4,72,433,1023,1
186,35,555,461,1
178,65,761,792,1
104,88,331,338,1
177,319,89,73,1
117,35,507,249,1
185,407,778,1023,1
399,147,212,165,1
22,83,1023,935,1
3,8,1023,1023,1
40,73,230,323,1
44,86,1023,1023,1
162,195,1023,1023,1
257,27,1023,763,1
152,127,616,0,1
192,15,116,0,1
47,119,267,631,1
84,28,524,484,1
285,159,1023,814,1
400,570,1023,1023,1
43,110,1023,1023,1
147,8,479,11,1
54,18,1023,1023,1
63,56,1023,938,1
67,153,158,243,1
147,37,834,1023,1
143,51,458,254,1
39,345,392,806,1
161,324,1023,813,1
43,211,46,89,1
4,95,1023,950,1
211,137,20,52,1
194,123,607,323,1
27,17,1023,1023,1
53,212,242,496,1
92,76,1023,1023,1
79,110,1023,1023,1
36,72,64,158,1
4,71,1023,1023,1
100,266,1023,1023,1
156,102,1023,745,1
84,84,417,169,1
32,35,124,42,1
57,89,10,34,1
68,14,85,429,1
155,133,253,230,1
39,33,108,0,1
144,42,53,100,1
15,23,150,263,1
122,25,197,3,1
42,33,541,878,1
219,174,999,982,1
171,119,169,64,1
115,53,754,831,1
2,208,635,1023,1
64,13,37,84,1
185,154,91,98,1
134,84,53,186,1
335,405,117,22,1
173,365,355,44,1
26,6,305,239,1
5,90,4,39,1
185,208,321,52,1
56,7,754,533,1
242,147,506,76,1
152,97,119,326,1
43,42,315,231,1
63,47,183,188,1
42,235,19,0,1
125,174,118,128,1
39,12,287,171,1
0,17,355,0,1
91,235,112,701,1
118,380,713,1023,1
88,172,71,80,1
123,224,115,19,1
1,59,230,384,1
76,74,75,31,1
104,104,12,163,1
167,183,549,286,1
123,124,351,199,1
34,16,446,255,1
82,11,271,276,1
103,206,478,201,1
83,167,642,338,1
18,26,38,270,1
40,26,93,235,1
97,229,32,35,1
83,75,189,370,1
57,259,37,62,1
156,239,382,323,1
113,99,5,109,1
29,21,92,415,1
29,87,89,132,1
35,66,187,439,1
82,117,281,191,1
242,77,89,49,1
3,213,15,0,1
289,479,506,425,1
32,38,335,29,1
117,250,752,715,1
5,34,464,502,1
43,88,478,177,1
126,287,533,382,1
142,346,112,108,1
3,141,239,228,1
33,75,543,461,1
20,13,385,45,1
261,207,291,223,1
62,6,340,206,1
149,241,174,201,1
7,62,324,531,1
198,229,12,139,1
150,191,311,221,1
38,175,108,39,1
126,149,254,313,1
47,178,210,243,1
101,378,223,521,1
110,140,369,437,1
124,182,151,45,1
184,411,9,344,1
5,62,148,392,1
56,149,393,516,1
150,90,366,119,1
63,72,11,59,1
18,32,97,427,1
158,189,149,240,1
44,162,286,1,1
37,51,368,424,1
76,119,155,73,1
87,234,112,408,1
369,204,224,146,1
78,55,433,119,1
19,101,12,12,1
0,19,42,358,1
20,37,162,229,1
145,49,600,435,1
56,15,631,460,1
91,218,217,49,1
7,22,206,47,1
180,8,7,60,1
291,404,13,18,1
178,321,527,815,1
295,411,90,262,1
152,192,473,1023,1
259,116,146,189,1
202,189,68,289,1
50,154,400,410,1
104,17,328,438,1
30,32,780,487,1
89,25,77,322,1
303,287,292,399,1
7,29,86,203,1
124,316,173,177,1
36,122,112,140,1
25,11,96,36,1
161,65,346,436,1
161,164,605,297,1
396,394,324,152,1
95,183,389,52,1
34,22,325,431,1
95,115,82,82,1
177,150,85,10,1
5,91,292,31,1
33,332,30,63,1
182,12,435,212,1
442,632,236,342,1
50,58,328,218,1
123,385,355,403,1
16,89,44,48,1
136,295,404,406,1
68,193,97,180,1
104,112,311,0,1
81,125,376,414,1
31,122,354,400,1
58,31,327,271,1
14,79,295,312,1
73,79,625,465,1
99,123,107,13,1
219,193,509,492,1
94,62,263,326,1
152,11,271,266,1
246,249,61,1,1
85,61,27,437,1
2,8,48,16,1
212,237,42,13,1
20,209,7,26,1
31,145,361,35,1
167,122,72,222,1
1,45,109,22,1
6,23,40,36,1
15,43,19,10,1
55,10,47,35,1
146,84,264,133,1
183,104,21,152,1
159,198,257,204,1
151,161,163,66,1
86,162,252,163,1
59,20,649,481,1
92,61,221,119,1
116,208,164,23,1
122,57,177,81,1
23,160,352,438,1
87,279,61,282,1
10,31,90,15,1
97,199,146,417,1
1,119,302,446,1
36,15,262,27,1
98,17,25,124,1
88,138,2,150,1
40,111,156,140,1
6,9,228,235,1
34,56,215,27,1
8,12,345,382,1
100,148,65,79,1
91,99,160,126,1
75,78,79,126,1
38,38,847,397,1
111,178,6,196,1
151,139,450,9,1
243,254,598,639,1
202,151,191,0,1
47,10,349,294,1
139,126,484,475,1
68,20,155,159,1
36,142,651,615,1
41,129,57,114,1
14,66,206,77,1
20,6,255,226,1
24,64,284,169,1
92,74,159,0,1
1,76,295,121,1
54,15,228,147,1
25,18,481,249,1
146,103,187,173,1
65,182,27,29,1
160,129,139,228,1
68,12,86,87,1
51,27,26,232,1
64,261,240,310,1
67,205,39,96,1
71,227,275,167,1
66,107,105,107,1
31,36,128,9,1
65,126,15,0,1
42,44,103,0,1
7,19,266,87,1
111,120,149,174,1
2,32,136,60,1
62,25,73,116,1
150,246,111,187,1
310,262,105,112,1
197,215,220,9,1
77,89,83,11,1
6,79,36,383,1
0,108,162,190,1
14,10,143,339,1
32,94,80,264,1
123,58,236,430,1
42,37,515,617,1
15,105,98,303,1
25,75,800,685,1
260,384,70,81,1
179,190,267,648,1
34,102,391,787,1
51,166,480,587,1
146,263,148,516,1
240,274,264,559,1
89,27,109,308,1
225,86,455,187,1
101,280,44,97,1
0,103,98,135,1
33,103,15,112,1
74,38,8,99,1
90,122,260,507,1
5,203,307,248,1
112,11,252,361,1
193,157,27,188,1
118,206,241,140,1
221,214,77,64,1
115,158,163,37,1
70,17,61,149,1
223,298,145,1023,1
20,95,317,337,1
140,100,908,549,1
10,10,30,262,1
246,256,706,481,1
148,101,594,25,1
86,21,64,558,1
106,28,186,16,1
5,21,352,17,1
178,111,500,382,1
364,339,301,504,1
58,30,368,434,1
145,21,922,546,1
94,116,192,445,1
18,63,1023,1017,1
143,49,148,25,1
4,10,1023,1023,1
145,46,479,231,1
28,234,105,57,1
95,19,923,989,1
61,239,750,470,1
27,47,658,285,1
88,53,616,347,1
39,40,346,609,1
168,159,187,223,1
77,12,141,57,1
111,6,848,843,1
172,33,352,155,1
318,341,123,336,1
25,53,110,569,1
109,118,381,167,1
162,400,299,49,1
269,136,425,1023,1
198,168,819,247,1
142,234,67,215,1
207,368,133,351,1
354,80,311,255,1
441,193,122,140,1
68,93,493,664,1
50,61,673,1013,1
181,37,427,350,1
174,179,367,223,1
0,6,1023,1023,1
21,177,537,269,1
165,225,1023,1023,1
36,349,85,580,1
51,110,1023,1023,1
76,181,269,297,1
244,382,487,644,1
211,135,1023,1023,1
51,107,501,1023,1
333,225,520,610,1
147,367,168,5,1
3,151,60,376,1
152,26,210,97,1
13,133,351,302,1
153,10,202,105,1
9,222,570,554,1
225,306,324,406,1
46,391,848,424,1
97,562,135,120,1
696,68,308,798,1
394,180,398,720,1
100,228,70,268,1
439,65,493,516,1
24,97,102,1023,1
516,152,240,420,1
122,326,22,299,1
33,129,152,25,1
224,185,80,701,1
17,199,31,22,1
29,149,196,169,1
67,257,241,348,1
482,188,662,49,1
360,173,160,400,1
49,335,1023,1023,1
173,323,1023,1023,1
149,82,236,180,1
649,225,1023,471,1
537,212,833,410,1
278,46,364,291,1
139,39,62,470,1
413,111,1023,914,1
293,20,481,302,1
375,395,676,346,1
310,63,563,443,1
7,31,310,0,1
84,147,99,490,1
230,505,269,1013,1
511,349,554,278,1
411,340,154,13,1
28,197,354,221,1
298,140,114,12,1
105,178,399,499,1
154,25,1023,635,1
37,26,49,296,1
61,32,1023,1023,1
110,53,172,47,1
47,47,1023,1023,1
499,446,231,848,1
56,19,891,1023,1
115,33,1023,1023,1
141,81,1023,800,1
374,35,1023,1023,1
227,35,1023,1023,1
454,663,1023,883,1
182,12,426,218,1
264,53,1023,1023,1
56,86,367,376,1
59,41,829,1023,1
12,7,1023,1023,1
21,8,668,142,1
177,43,1023,1023,1
84,112,1023,748,1
26,82,176,9,1
249,61,357,712,1
68,206,49,50,1
120,137,475,385,1
156,87,294,0,1
32,212,185,296,1
120,48,755,491,1
10,61,365,457,1
12,232,84,614,1
41,40,1023,555,1
18,45,409,434,1
160,74,996,420,1
75,108,604,252,1
88,72,145,297,1
12,7,362,275,1
47,6,365,562,1
110,24,439,463,1
37,62,1023,1023,1
166,72,28,213,1
95,263,4,159,1
51,48,274,414,1
39,18,289,45,1
10,85,21,85,1
129,7,136,1,1
29,563,960,783,1
65,291,1023,914,1
52,161,17,206,1
9,95,440,388,1
137,103,4,158,1
3,49,90,20,1
52,28,237,44,1
112,16,368,225,1
57,54,149,54,1
69,60,487,302,1
2,72,238,130,1
44,12,142,359,1
264,119,115,87,1
94,229,54,44,1
154,109,193,56,1
20,9,740,561,1
94,151,1003,1023,1
25,53,52,0,1
77,56,725,534,1
77,7,124,9,1
5,119,249,153,1
4,79,87,38,1
108,76,4,86,1
40,108,230,320,1
21,22,562,374,1
4,78,499,513,1
172,5,22,0,1
84,93,330,55,1
116,121,31,142,1
71,10,274,492,1
10,46,222,261,1
62,23,378,316,1
201,141,191,25,1
111,143,83,81,1
84,9,154,110,1
154,121,510,0,1
12,73,15,45,1
61,42,162,140,1
14,103,11,0,1
21,77,914,383,1
143,95,647,55,1
244,307,526,975,1
22,202,448,493,1
17,33,223,246,1
16,12,355,116,1
56,97,116,335,1
0,7,1023,838,1
94,68,375,99,1
81,70,125,330,1
4,12,668,137,1
31,8,90,308,1
24,125,740,672,1
8,227,183,141,1
19,289,257,266,1
22,27,370,329,1
176,96,270,67,1
160,171,134,231,1
40,11,249,255,1
20,199,5,176,1
294,370,61,198,1
145,125,548,464,1
133,126,374,165,1
7,120,282,382,1
143,183,496,259,1
56,13,159,189,1
139,418,883,387,1
176,280,381,501,1
50,95,100,24,1
54,249,44,117,1
95,301,367,149,1
80,13,172,322,1
134,79,336,40,1
306,717,89,554,1
140,114,143,83,1
8,16,200,174,1
8,208,323,223,1
56,94,199,404,1
105,190,51,18,1
179,209,419,278,1
71,308,289,101,1
61,107,94,19,1
63,117,192,72,1
261,309,207,187,1
63,114,88,67,1
163,310,634,516,1
70,76,317,527,1
26,83,440,250,1
163,15,238,10,1
13,213,605,445,1
50,64,330,433,1
51,94,31,345,1
117,25,218,202,1
57,134,326,282,1
2,311,45,6,1
93,181,39,263,1
144,289,341,123,1
91,121,124,28,1
345,271,410,25,1
24,196,17,84,1
10,47,130,97,1
11,192,182,174,1
187,272,127,188,1
138,14,380,157,1
233,15,136,215,1
0,50,468,113,1
59,168,480,517,1
18,47,372,239,1
45,14,291,170,1
51,77,319,182,1
167,172,118,17,1
24,164,99,7,1
60,34,325,44,1
95,70,267,271,1
206,77,200,0,1
39,119,284,0,1
22,41,297,384,1
100,131,390,102,1
21,255,603,346,1
23,465,284,265,1
179,229,141,205,1
229,187,78,17,1
95,30,25,270,1
2,6,17,132,1
297,199,423,345,1
155,151,45,97,1
57,125,177,145,1
1,37,395,400,1
53,226,194,282,1
136,204,188,0,1
4,121,223,100,1
0,43,42,12,1
304,243,244,366,1
163,181,306,195,1
140,68,203,20,1
14,27,279,231,1
10,277,104,139,1
19,99,101,59,1
23,67,27,37,1
90,237,448,553,1
77,97,133,80,1
211,161,177,260,1
74,247,3,0,1
19,89,100,173,1
10,61,179,187,1
6,7,140,68,1
26,10,319,113,1
7,16,195,0,1
177,220,272,267,1
85,122,444,257,1
69,146,295,134,1
76,138,527,239,1
241,485,26,62,1
168,195,215,113,1
32,28,144,739,1
25,16,670,0,1
64,77,160,26,1
24,24,486,468,1
92,105,359,235,1
52,76,154,93,1
276,217,300,178,1
26,21,366,287,1
1,35,29,68,1
65,129,209,185,1
186,154,139,84,1
27,69,175,237,1
135,175,299,160,1
4,7,284,202,1
104,133,498,249,1
208,367,341,445,1
23,60,398,187,1
125,251,548,269,1
138,25,93,142,1
105,127,237,233,1
80,45,154,119,1
155,128,131,151,1
141,35,242,93,1
71,72,87,21,1
17,44,287,197,1
29,94,42,57,1
60,72,261,127,1
17,94,225,284,1
98,30,227,58,1
92,87,188,206,1
99,122,120,147,1
6,45,169,14,1
24,98,306,281,1
12,42,177,143,1
52,111,227,151,1
29,179,99,125,1
54,7,79,9,1
60,137,82,42,1
7,9,218,116,1
83,15,30,127,1
100,119,346,200,1
97,221,220,215,1
65,202,325,67,1
140,188,76,0,1
114,109,125,25,1
72,92,197,75,1
204,261,7,112,1
8,21,97,82,1
256,269,9,0,1
66,190,225,183,1
251,351,177,185,1
1,83,139,232,1
89,164,98,5,1
185,51,401,30,1
116,26,189,229,1
83,92,479,313,1
31,112,87,85,1
0,50,476,377,1
15,37,6,27,1
13,57,576,168,1
42,158,103,256,1
154,177,279,24,1
63,145,87,53,1
94,99,75,209,1
135,99,116,0,1
40,108,293,231,1
16,39,224,502,1
47,119,184,45,1
88,350,171,106,1
52,32,685,871,1
81,50,6,135,1
150,46,135,170,1
72,56,744,445,1
182,266,2,135,1
120,217,412,97,1
60,102,692,796,1
111,74,342,154,1
231,18,8,57,1
144,70,175,424,1
3,103,48,166,1
3,79,827,674,1
124,189,266,263,1
376,46,608,466,1
162,279,368,666,1
91,56,294,320,1
17,214,568,1023,1
40,63,172,86,1
12,111,679,293,1
67,180,360,394,1
115,132,3,181,1
435,320,239,123,1
571,61,723,617,1
139,59,812,218,1
144,34,1023,1023,1
97,269,1023,923,1
160,45,756,979,1
90,17,373,108,1
278,63,569,1023,1
297,149,121,218,1
52,441,37,180,1
680,9,330,110,1
150,114,469,391,1
79,38,54,371,1
308,263,855,743,1
165,160,306,562,1
129,68,915,886,1
78,6,478,185,1
44,99,954,1023,1
164,43,234,263,1
207,374,54,218,1
335,108,286,837,1
162,32,69,677,1
263,42,70,340,1
163,210,492,730,1
216,170,292,859,1
335,76,701,1023,1
15,19,541,834,1
74,194,350,537,1
208,384,660,450,1
8,16,446,306,1
84,197,39,35,1
174,257,74,33,1
104,52,803,434,1
220,52,475,372,1
392,103,99,356,1
191,58,53,15,1
15,9,786,275,1
163,185,286,664,1
190,83,1023,412,1
371,326,955,887,1
18,152,142,606,1
80,200,1023,1023,1
302,167,565,343,1
69,5,1023,1023,1
353,81,388,613,1
233,97,1023,1023,1
22,42,219,181,1
227,282,155,458,1
67,13,337,78,1
159,147,579,263,1
43,416,119,174,1
202,7,389,632,1
55,134,779,1023,1
102,199,377,185,1
75,277,1023,153,1
0,15,78,536,1
407,235,1023,207,1
23,40,131,179,1
237,396,310,422,1
290,8,436,852,1
1,79,880,1023,1
201,386,1023,1023,1
368,732,182,436,1
7,195,629,658,1
132,129,443,395,1
37,129,1023,1023,1
69,144,1023,1023,1
50,219,1023,930,1
156,281,1023,1023,1
178,224,469,235,1
376,697,335,362,1
128,403,896,1023,1
130,246,1023,1023,1
62,182,38,120,1
456,644,281,148,1
173,194,1023,557,1
524,53,1023,1023,1
268,397,1023,1023,1
150,379,79,565,1
121,51,905,83,1
93,175,725,1023,1
280,32,729,1023,1
153,80,1023,1023,1
261,117,556,348,1
91,10,574,442,1
115,88,322,67,1
193,40,302,213,1
41,561,670,322,1
124,556,1023,618,1
15,17,116,266,1
52,27,1023,1023,1
3,209,395,364,1
39,251,1023,1023,1
185,101,271,62,1
13,62,393,1023,1
162,159,325,307,1
132,241,620,193,1
486,56,831,400,1
293,23,1023,1023,1
309,301,731,172,1
260,280,1023,1023,1
261,58,1023,1023,1
141,275,328,531,1
21,66,1023,1018,1
12,14,271,508,1
156,247,1023,667,1
46,119,551,319,1
218,364,652,865,1
312,179,1023,927,1
97,49,1023,1023,1
37,127,255,1023,1
272,157,673,964,1
133,284,524,575,1
146,654,365,42,1
140,112,620,440,1
321,156,405,295,1
238,278,1023,1000,1
71,42,1023,1023,1
46,73,873,794,1
186,202,20,205,1
9,59,756,645,1
64,39,22,91,1
41,6,184,170,1
115,178,90,69,1
9,109,223,167,1
132,362,383,184,1
41,127,42,237,1
33,118,41,458,1
22,189,279,102,1
162,47,446,511,1
49,49,528,835,1
5,26,769,169,1
8,202,348,242,1
69,102,15,178,1
2,80,379,592,1
21,38,460,197,1
26,70,240,11,1
151,125,708,304,1
8,66,43,340,1
74,97,741,545,1
25,249,649,348,1
33,12,52,14,1
75,331,35,13,1
111,365,579,397,1
56,20,61,73,1
47,76,468,328,1
118,264,294,189,1
89,181,31,397,1
22,17,152,88,1
117,165,225,1,1
6,44,248,56,1
104,52,247,236,1
14,23,240,16,1
74,76,410,149,1
222,235,337,159,1
10,30,125,47,1
85,136,146,248,1
38,131,219,117,1
244,272,324,479,1
52,222,98,94,1
23,130,221,149,1
74,20,458,355,1
49,238,10,67,1
32,77,312,133,1
49,260,157,195,1
199,100,78,220,1
36,61,131,104,1
46,28,164,74,1
120,105,237,302,1
86,13,114,50,1
61,71,200,1,1
74,97,364,395,1
300,375,193,392,1
99,21,510,783,1
118,251,196,455,1
22,13,230,14,1
207,259,100,95,1
88,81,258,82,1
10,52,91,71,1
88,152,89,223,1
102,26,180,170,1
53,173,345,133,1
5,24,35,122,1
144,45,880,749,1
30,170,866,689,1
223,101,25,79,1
63,73,60,233,1
213,205,321,0,1
207,93,451,206,1
88,423,173,163,1
213,24,171,613,1
153,197,372,763,1
15,53,210,302,1
131,45,346,521,1
6,32,455,273,1
46,91,84,155,1
53,75,234,68,1
55,12,283,321,1
84,60,231,337,1
75,9,106,154,1
93,95,27,126,1
20,192,300,8,1
31,17,363,566,1
48,201,253,521,1
18,69,99,198,1
16,66,415,393,1
28,148,303,160,1
111,116,251,52,1
246,592,355,80,1
2,394,56,78,1
273,21,281,212,1
120,26,129,141,1
52,85,290,771,1
25,27,352,116,1
418,396,12,321,1
262,6,448,356,1
245,20,370,117,1
90,223,272,360,1
317,185,301,281,1
177,24,506,198,1
32,33,220,272,1
50,95,589,521,1
181,143,224,25,1
35,30,104,284,1
222,431,177,359,1
196,110,91,114,1
59,146,7,112,1
275,410,238,331,1
693,344,43,324,1
612,740,179,48,1
149,45,196,329,1
4,199,474,603,1
145,76,370,500,1
281,22,182,27,1
76,71,324,88,1
245,104,135,479,1
74,35,205,86,1
129,146,330,288,1
93,183,16,33,1
26,76,136,88,1
74,136,161,225,1
37,282,229,243,1
246,420,337,81,1
2,52,11,363,1
14,501,448,507,1
7,52,192,295,1
40,61,203,453,1
69,8,349,340,1
41,69,78,102,1
126,63,528,445,1
18,102,523,264,1
64,246,298,269,1
47,192,151,101,1
137,49,164,3,1
21,49,5,17,1
42,269,31,192,1
18,11,8,73,1
181,234,229,265,1
153,337,158,483,1
236,361,400,345,1
122,111,63,206,1
222,351,95,112,1
196,21,502,317,1
101,146,124,299,1
183,224,225,284,1
21,9,78,92,1
3,46,382,159,1
18,159,315,140,1
200,280,28,53,1
98,20,281,86,1
120,143,32,32,1
92,213,379,464,1
312,281,73,0,1
20,78,306,82,1
67,286,155,230,1
83,113,70,311,1
14,265,164,277,1
139,5,548,0,1
12,147,370,734,1
36,12,387,240,1
102,73,591,323,1
93,104,151,194,1
102,26,33,106,1
170,215,13,4,1
104,13,146,167,1
116,159,169,208,1
102,222,31,0,1
15,49,151,153,1
208,461,72,111,1
1,7,174,137,1
38,223,752,559,1
203,128,19,122,1
162,305,957,477,1
35,25,508,510,1
148,332,196,94,1
13,101,240,97,1
25,40,133,82,1
185,58,24,106,1
69,25,142,93,1
164,186,199,183,1
10,7,118,31,1
32,195,275,221,1
3,329,47,174,1
64,209,391,323,1
113,29,74,13,1
365,479,223,317,1
129,169,110,148,1
91,41,54,79,1
99,45,293,328,1
23,35,169,86,1
41,78,249,195,1
274,315,91,58,1
100,404,56,67,1
0,99,72,123,1
114,205,21,87,1
10,49,267,104,1
26,54,225,151,1
9,14,135,38,1
21,59,323,226,1
146,322,337,385,1
154,190,90,0,1
448,498,364,223,1
75,86,30,172,1
52,13,15,227,1
22,28,19,24,1
289,249,69,216,1
32,35,129,151,1
73,113,180,202,1
22,52,46,122,1
128,169,74,107,1
219,290,25,57,1
20,70,166,77,1
32,143,268,177,1
5,22,15,64,1
25,17,27,0,1
35,11,146,6,1
49,64,236,212,1
20,42,97,59,1
72,160,230,286,1
34,70,3,0,1
283,93,132,2,1
31,85,53,151,1
26,36,32,0,1
123,46,305,74,1
15,35,143,0,1
82,82,3,140,1
30,26,233,110,1
35,76,236,118,1
145,46,135,113,1
118,83,189,25,1
140,70,331,265,1
157,170,489,507,1
205,229,100,21,1
169,179,120,0,1
122,24,120,309,1
77,154,326,387,1
122,222,7,51,1
2,37,156,185,1
5,187,203,112,1
159,9,15,100,1
33,222,67,121,1
237,57,338,273,1
49,74,299,292,1
179,59,31,221,1
78,43,269,294,1
63,136,226,307,1
63,197,227,240,1
91,138,312,130,1
398,557,15,14,1
127,193,777,864,1
149,224,435,399,1
150,576,502,257,1
7,166,522,478,1
342,143,995,532,1
135,202,1023,910,1
146,6,287,509,1
38,45,578,775,1
31,20,68,65,1
144,192,792,381,1
271,225,68,377,1
85,37,334,66,1
238,151,169,126,1
353,171,649,1023,1
109,434,577,1020,1
245,274,21,597,1
152,134,519,549,1
181,127,90,325,1
290,312,634,607,1
92,219,36,34,1
17,74,407,300,1
96,69,288,726,1
150,110,765,623,1
11,85,57,20,1
102,54,337,390,1
234,149,350,505,1
197,109,349,208,1
21,287,704,1023,1
73,28,434,381,1
173,14,564,1023,1
207,303,171,298,1
28,286,350,347,1
139,180,1011,1023,1
31,95,689,636,1
186,48,761,351,1
154,315,177,26,1
147,50,122,422,1
166,162,514,638,1
38,83,190,396,1
63,275,1023,785,1
223,219,962,190,1
125,80,75,59,1
83,180,471,621,1
248,21,670,896,1
186,163,1023,62,1
325,251,648,43,1
14,145,1023,1023,1
261,55,262,72,1
167,73,1023,1023,1
0,24,1023,1023,1
266,145,913,982,1
153,42,922,574,1
91,173,44,648,1
688,134,566,858,1
61,90,528,243,1
81,240,762,390,1
70,147,390,121,1
575,34,1023,403,1
452,126,602,934,1
199,68,202,12,1
75,199,920,1023,1
247,672,808,499,1
28,208,98,1023,1
53,92,236,963,1
57,47,176,431,1
242,233,385,1016,1
305,202,1023,399,1
138,370,7,277,1
471,119,126,962,1
169,776,688,997,1
466,164,103,6,1
65,101,1023,549,1
212,8,613,601,1
43,45,885,539,1
426,221,1023,135,1
124,98,309,207,1
85,41,961,1023,1
148,19,806,562,1
31,110,879,1023,1
36,23,619,318,1
28,489,1023,1023,1
312,517,994,30,1
248,245,463,1023,1
20,6,1023,998,1
229,467,414,747,1
19,222,1023,862,1
458,369,1023,1023,1
238,98,135,395,1
51,45,1023,610,1
193,96,203,327,1
94,195,18,546,1
179,50,283,155,1
128,126,1023,1023,1
25,272,127,38,1
359,127,764,0,1
47,24,237,236,1
126,9,229,471,1
253,110,540,102,1
65,45,1023,1023,1
161,135,756,526,1
330,64,595,827,1
362,869,197,356,1
506,682,978,1023,1
178,328,208,381,1
176,99,1023,413,1
230,176,601,38,1
109,44,338,178,1
10,108,930,360,1
347,64,899,520,1
107,151,67,71,1
305,35,1023,1023,1
313,133,1023,1023,1
87,245,849,809,1
105,260,1023,1023,1
29,247,426,741,1
124,293,315,1023,1
216,601,539,1023,1
205,31,1023,156,1
34,210,852,1023,1
591,441,1023,1023,1
195,174,921,102,1
184,209,1023,1023,1
6,182,1023,855,1
234,50,549,419,1
31,207,183,1023,1
204,100,589,380,1
87,170,301,20,1
183,39,129,160,1
254,262,227,661,1
43,75,20,569,1
125,121,449,561,1
104,245,440,492,1
14,139,509,177,1
74,442,9,5,1
238,322,596,808,1
107,295,85,285,1
161,215,236,178,1
174,111,159,363,1
68,31,206,323,1
191,222,547,143,1
573,628,171,239,1
124,152,388,348,1
127,87,403,0,1
4,45,74,32,1
250,237,169,374,1
67,119,273,197,1
23,75,77,64,1
85,104,663,250,1
11,52,152,413,1
49,551,497,171,1
156,219,170,100,1
46,262,682,34,1
58,25,410,116,1
2,230,434,510,1
126,131,1023,1023,1
63,110,534,278,1
77,50,384,289,1
30,11,502,606,1
39,77,160,57,1
157,210,16,86,1
109,181,341,551,1
13,371,226,84,1
67,91,139,59,1
182,408,745,414,1
39,22,141,50,1
22,58,36,39,1
127,145,175,0,1
23,14,197,458,1
282,254,52,170,1
51,108,359,244,1
15,38,289,2,1
47,15,284,54,1
104,29,334,111,1
205,251,277,200,1
85,125,38,32,1
17,91,586,304,1
108,185,251,169,1
43,60,396,415,1
186,56,217,202,1
90,224,385,41,1
32,293,117,37,1
3,159,400,716,1
184,259,220,88,1
182,251,595,403,1
55,38,36,260,1
108,183,592,641,1
232,303,372,31,1
193,102,237,115,1
152,14,265,206,1
243,363,304,185,1
96,67,112,380,1
119,104,276,415,1
213,411,129,279,1
132,290,349,518,1
190,159,237,138,1
9,57,8,1023,1
37,36,162,386,1
123,28,261,94,1
1,43,394,212,1
117,108,97,1,1
66,66,686,321,1
141,127,943,445,1
88,178,349,12,1
50,190,317,435,1
45,299,145,113,1
118,34,183,174,1
136,36,470,152,1
107,139,174,316,1
115,253,94,316,1
188,49,63,798,1
216,581,226,426,1
144,60,50,15,1
96,184,102,42,1
156,175,138,191,1
116,246,93,143,1
17,62,117,74,1
234,253,300,521,1
262,224,694,562,1
118,245,138,33,1
21,223,24,115,1
133,73,228,130,1
202,90,17,78,1
102,92,200,23,1
99,169,165,530,1
106,211,23,117,1
84,153,290,555,1
7,201,275,102,1
161,160,59,33,1
188,80,353,190,1
17,93,199,215,1
59,27,286,112,1
95,160,237,222,1
53,38,181,221,1
76,77,152,13,1
79,31,630,546,1
48,211,328,341,1
11,79,486,429,1
233,125,14,129,1
85,79,390,139,1
232,237,290,129,1
56,35,480,199,1
78,148,430,207,1
82,129,219,145,1
30,22,422,117,1
32,80,257,0,1
88,208,32,71,1
83,10,31,198,1
145,108,638,634,1
261,267,23,9,1
62,89,207,69,1
139,360,4,280,1
23,180,162,4,1
170,271,442,108,1
14,66,326,184,1
7,128,344,88,1
106,10,8,99,1
22,45,21,138,1
269,62,146,201,1
54,125,166,345,1
74,44,401,273,1
172,129,455,264,1
48,166,94,179,1
26,140,188,0,1
151,158,74,363,1
117,109,288,15,1
12,55,5,54,1
149,47,83,124,1
245,263,72,10,1
149,148,193,82,1
283,345,29,80,1
211,202,163,78,1
365,352,96,105,1
100,88,123,103,1
3,92,19,216,1
20,113,52,63,1
164,146,498,319,1
52,194,239,311,1
264,89,198,224,1
180,381,67,119,1
59,164,231,99,1
10,29,96,117,1
76,127,616,539,1
170,14,207,315,1
47,90,305,473,1
13,73,337,354,1
118,21,670,322,1
54,40,57,178,1
86,113,348,99,1
240,195,462,8,1
83,87,304,268,1
128,200,343,583,1
3,167,55,243,1
100,73,508,186,1
179,394,178,908,1
3,146,190,25,1
202,509,543,165,1
24,252,131,639,1
156,139,222,171,1
322,172,310,172,1
104,89,144,142,1
74,107,361,702,1
84,15,221,97,1
10,57,287,120,1
27,28,303,111,1
34,28,126,51,1
108,98,39,205,1
175,249,383,85,1
158,264,270,83,1
216,279,162,78,1
57,203,588,465,1
151,145,67,5,1
381,453,347,269,1
59,92,58,70,1
129,225,226,328,1
12,30,27,58,1
16,57,346,327,1
30,33,201,85,1
119,116,1,49,1
120,108,25,114,1
61,117,72,0,1
1,48,51,203,1
9,7,115,144,1
1,121,45,25,1
214,349,69,2,1
44,185,209,270,1
109,235,140,12,1
73,186,11,118,1
9,20,133,136,1
271,378,134,38,1
159,297,164,84,1
41,15,61,107,1
156,314,79,69,1
25,38,185,134,1
6,135,288,222,1
35,49,6,93,1
15,118,264,159,1
92,139,159,202,1
69,130,502,180,1
104,189,130,242,1
88,150,101,142,1
29,110,8,163,1
49,332,24,248,1
4,281,359,724,1
18,55,141,374,1
37,45,47,23,1
33,14,271,472,1
130,239,5,47,1
31,52,83,7,1
53,117,55,125,1
43,8,205,281,1
39,160,31,48,1
89,192,53,187,1
355,102,257,177,1
324,122,422,472,1
90,86,54,185,1
104,174,363,535,1
110,172,100,60,1
91,105,197,88,1
36,121,381,213,1
228,388,333,318,1
344,279,415,54,1
260,200,3,199,1
17,108,510,223,1
10,93,16,13,1
20,47,85,139,1
80,17,155,10,1
64,165,119,261,1
45,334,626,587,1
340,333,48,185,1
241,185,395,20,1
8,9,419,617,1
42,102,76,234,1
192,446,65,98,1
157,12,114,127,1
197,265,303,329,1
222,145,27,21,1
252,49,550,201,1
86,57,67,5,1
93,262,7,255,1
49,89,201,79,1
400,93,269,483,1
155,386,22,2,1
135,122,373,203,1
134,69,1023,1023,1
210,386,120,174,1
153,37,648,251,1
485,762,310,200,1
221,225,461,62,1
54,322,418,1023,1
158,258,49,15,1
17,143,44,219,1
67,204,201,438,1
8,11,304,249,1
177,153,391,210,1
123,43,983,826,1
28,292,107,809,1
274,271,271,116,1
120,147,155,250,1
16,195,647,36,1
37,228,476,769,1
10,195,581,99,1
177,22,109,97,1
98,184,18,407,1
31,454,366,407,1
453,22,80,268,1
56,158,466,1001,1
75,22,223,368,1
403,126,480,576,1
256,545,15,143,1
210,163,397,51,1
84,367,345,570,1
607,410,406,736,1
307,339,975,276,1
154,11,125,850,1
373,191,936,543,1
113,250,1023,840,1
139,23,247,429,1
22,11,1023,1023,1
208,184,64,304,1
111,235,836,354,1
117,57,916,898,1
227,236,939,671,1
39,137,1023,1023,1
368,75,759,628,1
10,111,853,1023,1
93,151,43,552,1
248,266,1023,1023,1
177,473,539,377,1
1,50,950,1023,1
27,88,1023,1023,1
264,165,1023,1023,1
294,77,746,509,1
43,102,352,706,1
93,263,125,175,1
16,79,271,1023,1
127,386,435,884,1
311,231,1023,1023,1
127,235,181,198,1
314,544,1023,1023,1
238,95,199,103,1
199,423,631,1023,1
273,291,20,463,1
274,260,445,517,1
162,28,508,558,1
115,21,57,294,1
41,67,342,423,1
163,73,258,423,1
265,22,504,300,1
241,112,1023,1023,1
319,8,349,751,1
234,146,650,1023,1
252,147,1023,1023,1
456,573,661,211,1
18,284,1023,1023,1
27,446,638,1023,1
61,164,151,78,1
438,443,466,707,1
333,85,341,60,1
739,371,1023,1023,1
229,381,1023,1023,1
228,232,62,214,1
39,130,137,365,1
112,23,561,63,1
129,261,508,677,1
177,355,119,136,1
83,208,92,757,1
96,390,755,53,1
145,306,1023,1023,1
138,112,437,459,1
98,87,236,613,1
287,599,1023,1023,1
287,449,585,267,1
202,151,350,404,1
127,263,210,11,1
44,181,137,134,1
365,498,818,763,1
198,158,730,721,1
141,235,444,1023,1
30,49,1023,1023,1
122,54,914,207,1
40,232,1023,1023,1
19,204,433,15,1
86,319,1023,1023,1
122,79,1023,711,1
6,167,749,1023,1
14,201,1023,1023,1
22,54,1023,1023,1
123,81,134,76,1
49,35,645,513,1
174,279,255,418,1
2,238,661,491,1
18,17,105,6,1
148,92,942,878,1
10,11,414,693,1
130,294,1023,513,1
64,106,441,624,1
30,142,891,766,1
154,328,1023,1023,1
3,249,500,1023,1
12,10,888,1023,1
18,148,346,228,1
52,184,811,413,1
10,8,149,324,1
36,15,380,185,1
11,63,429,281,1
7,16,867,559,1
7,13,295,125,1
127,87,412,269,1
37,167,367,828,1
111,202,194,469,1
66,56,639,487,1
222,198,82,538,1
172,186,185,244,1
59,205,490,463,1
197,364,77,139,1
103,82,342,215,1
127,221,175,374,1
94,62,194,178,1
330,302,23,51,1
0,41,449,532,1
162,280,117,179,1
290,254,253,439,1
327,262,680,653,1
110,125,568,351,1
62,28,595,792,1
64,173,577,440,1
315,387,500,651,1
2,372,492,529,1
188,229,212,467,1
40,109,899,704,1
79,127,18,389,1
123,68,757,445,1
141,107,163,276,1
171,100,456,341,1
101,116,147,0,1
259,241,64,4,1
14,109,240,232,1
39,29,153,90,1
104,168,601,169,1
203,293,493,219,1
4,20,85,197,1
319,262,694,499,1
44,339,697,740,1
98,54,20,213,1
71,98,410,145,1
21,107,192,136,1
104,59,143,269,1
6,99,77,199,1
30,90,680,244,1
17,27,499,70,1
190,317,25,10,1
30,39,357,204,1
90,166,311,113,1
28,122,17,185,1
305,379,277,207,1
17,47,236,332,1
98,349,374,86,1
39,137,269,393,1
192,222,229,311,1
10,227,103,804,1
26,126,9,771,1
170,263,82,204,1
87,147,98,298,1
6,73,12,22,1
87,62,195,71,1
93,34,289,0,1
40,33,127,98,1
42,6,214,209,1
2,103,237,0,1
41,203,237,233,1
95,365,105,457,1
371,421,112,280,1
198,232,544,453,1
4,83,373,0,1
59,13,293,151,1
194,297,265,71,1
137,100,167,306,1
121,88,52,38,1
68,62,94,162,1
119,33,217,360,1
46,49,261,147,1
83,20,81,407,1
23,43,294,149,1
36,16,301,145,1
55,222,98,3,1
209,39,762,310,1
1,190,226,15,1
1,198,552,1023,1
101,37,361,253,1
108,62,2,305,1
37,71,105,98,1
29,82,171,61,1
53,78,196,9,1
94,211,276,227,1
238,28,80,73,1
212,95,197,145,1
176,254,383,171,1
116,21,131,155,1
145,34,470,281,1
81,173,83,320,1
45,135,408,874,1
91,260,442,178,1
35,160,155,261,1
183,385,332,136,1
190,210,466,284,1
155,97,749,481,1
34,107,527,468,1
110,130,736,577,1
148,99,142,2,1
28,19,473,425,1
81,135,435,431,1
182,253,229,159,1
50,314,222,166,1
105,222,244,135,1
162,21,129,81,1
93,163,675,660,1
99,175,83,224,1
33,143,1023,685,1
10,20,644,815,1
389,453,346,189,1
39,36,445,242,1
91,193,434,451,1
188,202,359,255,1
43,265,471,284,1
107,148,186,137,1
3,358,33,7,1
69,361,186,300,1
46,82,332,241,1
56,50,198,374,1
55,271,577,324,1
128,248,97,121,1
59,129,171,275,1
256,269,140,124,1
52,31,273,147,1
83,125,19,0,1
13,112,172,127,1
44,14,380,83,1
112,139,64,380,1
32,13,125,497,1
320,502,165,139,1
33,253,18,150,1
99,80,203,0,1
66,62,99,215,1
55,159,26,20,1
201,181,140,106,1
21,48,430,231,1
68,168,16,11,1
77,59,102,69,1
126,105,601,482,1
29,152,200,738,1
3,41,479,165,1
124,287,397,488,1
70,26,174,229,1
19,139,388,139,1
140,173,335,364,1
36,314,185,56,1
194,52,29,188,1
140,266,36,52,1
208,130,247,98,1
33,6,268,48,1
110,183,208,148,1
85,27,474,401,1
215,127,287,204,1
136,82,341,338,1
19,16,341,245,1
8,20,82,19,1
66,107,13,0,1
209,136,88,94,1
196,175,9,36,1
120,173,43,34,1
89,286,106,98,1
9,166,218,202,1
181,323,225,241,1
37,145,60,50,1
55,27,382,215,1
45,57,68,14,1
39,19,42,31,1
228,172,196,323,1
57,133,152,112,1
21,30,154,261,1
49,65,287,69,1
130,159,165,151,1
97,21,21,289,1
77,251,63,320,1
6,41,65,29,1
72,52,58,103,1
214,167,5,227,1
5,142,44,228,1
22,234,61,0,1
55,24,18,26,1
7,6,121,268,1
109,76,121,42,1
22,16,206,33,1
1,85,258,25,1
50,7,167,236,1
64,49,147,0,1
4,23,166,76,1
8,173,56,293,1
182,95,79,49,1
98,233,570,182,1
166,147,295,196,1
4,33,153,33,1
27,8,534,373,1
197,146,70,186,1
4,127,14,183,1
95,147,121,236,1
72,97,320,165,1
69,14,22,267,1
38,61,436,80,1
23,19,201,180,1
8,202,63,13,1
45,106,218,368,1
77,260,395,434,1
15,41,42,176,1
12,29,587,385,1
2,5,3,18,1
42,20,40,115,1
49,424,762,885,1
163,38,29,189,1
80,99,791,493,1
144,162,245,444,1
30,14,47,55,1
76,141,363,492,1
38,84,188,43,1
124,28,476,689,1
0,70,1016,509,1
108,36,543,843,1
58,92,527,52,1
0,120,33,682,1
14,33,164,263,1
71,73,525,489,1
100,252,20,110,1
126,242,481,62,1
95,302,114,547,1
252,288,104,733,1
193,163,30,314,1
182,116,49,63,1
106,281,376,113,1
174,7,226,51,1
146,109,628,358,1
167,302,165,163,1
102,201,697,740,1
25,121,76,232,1
79,158,838,537,1
3,105,28,128,1
545,291,526,442,1
197,61,188,101,1
151,141,778,579,1
137,40,26,0,1
6,27,225,42,1
1,6,1016,1023,1
191,249,860,493,1
67,76,16,397,1
373,31,661,389,1
102,107,266,362,1
329,181,1023,505,1
6,77,529,768,1
2,149,919,604,1
124,373,44,938,1
20,86,479,993,1
1,347,376,235,1
89,61,131,675,1
291,39,122,517,1
0,17,504,316,1
126,176,232,245,1
177,154,129,48,1
298,150,887,1023,1
68,92,1021,1011,1
15,104,660,690,1
134,135,609,483,1
292,226,605,516,1
194,160,1023,1023,1
169,385,515,290,1
2,52,1000,254,1
660,921,809,553,1
168,121,164,503,1
99,55,1023,1023,1
398,163,912,666,1
126,55,1023,756,1
297,47,252,861,1
291,324,1023,761,1
431,249,1023,395,1
75,63,985,173,1
6,13,1023,1023,1
121,74,606,78,1
192,119,242,577,1
167,73,693,1023,1
376,472,15,1023,1
228,292,106,26,1
442,163,15,23,1
227,196,607,612,1
74,494,383,1023,1
84,202,599,572,1
31,153,842,105,1
52,31,99,519,1
276,273,867,481,1
73,40,952,221,1
96,84,281,241,1
73,130,1023,1023,1
173,676,627,752,1
73,87,114,939,1
35,232,1023,1023,1
167,138,676,370,1
241,153,522,707,1
586,168,893,147,1
120,30,185,276,1
65,195,537,59,1
519,434,557,865,1
152,106,813,670,1
123,59,23,204,1
70,148,49,247,1
27,20,451,1023,1
79,431,1023,904,1
0,365,565,1023,1
5,841,1013,643,1
129,39,106,1023,1
118,17,94,131,1
274,433,584,39,1
64,224,830,436,1
265,11,186,258,1
126,35,63,489,1
9,50,1019,506,1
179,129,1023,1023,1
154,167,138,467,1
58,22,1023,1023,1
88,144,1023,1023,1
113,268,1023,1023,1
118,29,1023,1023,1
356,459,732,71,1
220,126,240,425,1
8,223,11,497,1
71,46,1023,1023,1
133,119,212,118,1
279,291,995,291,1
238,387,123,433,1
19,31,1023,622,1
383,249,50,5,1
229,148,1023,1023,1
86,39,391,786,1
163,114,912,1023,1
233,197,547,528,1
0,122,247,772,1
319,555,1023,1023,1
39,22,200,403,1
61,35,1023,1023,1
40,280,194,122,1
420,227,1023,1023,1
161,300,1023,992,1
207,177,788,1023,1
17,159,1023,1023,1
227,109,762,509,1
119,116,1023,1023,1
14,251,23,241,1
154,145,1023,1023,1
12,187,347,58,1
358,263,1023,803,1
32,155,464,9,1
48,117,215,450,1
34,142,231,150,1
27,109,650,396,1
181,326,358,420,1
6,147,397,50,1
121,78,231,504,1
204,342,95,54,1
34,249,264,509,1
197,370,42,481,1
42,75,56,66,1
268,318,830,483,1
83,5,813,533,1
73,22,642,870,1
183,144,163,173,1
128,106,271,305,1
137,79,275,22,1
189,172,345,185,1
208,176,421,468,1
288,281,358,258,1
166,90,578,589,1
210,152,358,133,1
223,196,357,173,1
66,71,276,574,1
31,17,166,372,1
15,154,49,332,1
71,125,152,202,1
96,44,444,54,1
142,81,222,216,1
230,120,499,284,1
81,103,435,357,1
14,19,334,202,1
22,13,212,292,1
27,38,269,97,1
13,32,238,26,1
133,51,503,257,1
52,173,11,50,1
5,152,592,398,1
63,89,248,225,1
40,75,242,60,1
38,230,38,208,1
13,198,190,561,1
56,58,106,14,1
0,120,133,61,1
3,63,32,144,1
5,48,303,208,1
131,104,249,156,1
4,234,201,27,1
48,40,425,458,1
46,143,872,471,1
200,457,18,497,1
12,66,242,525,1
5,27,235,77,1
131,273,366,665,1
77,35,134,47,1
57,49,20,82,1
83,74,33,107,1
47,27,208,51,1
67,293,74,197,1
92,114,141,299,1
74,29,225,85,1
12,108,332,3,1
49,138,13,263,1
0,117,295,208,1
29,6,144,148,1
202,408,145,62,1
185,306,208,506,1
547,897,1,69,1
1,34,699,582,1
271,241,19,327,1
82,152,1023,1023,1
76,39,852,541,1
37,139,205,330,1
127,158,154,227,1
82,104,173,29,1
124,117,193,73,1
137,499,555,5,1
127,201,301,548,1
69,36,666,464,1
138,188,119,8,1
37,85,568,269,1
152,143,26,523,1
63,7,338,613,1
142,284,13,150,1
104,392,37,1023,1
70,47,65,494,1
10,45,152,117,1
62,52,93,68,1
88,44,300,202,1
26,43,451,201,1
170,19,454,324,1
3,174,442,153,1
131,37,523,329,1
312,477,193,439,1
111,220,114,106,1
74,312,35,315,1
7,430,415,46,1
125,132,53,370,1
63,28,783,992,1
55,296,796,416,1
21,85,616,995,1
46,35,347,395,1
86,150,395,647,1
318,83,632,553,1
13,36,381,487,1
110,81,605,367,1
11,82,5,0,1
83,241,443,124,1
24,170,204,296,1
27,57,291,382,1
44,218,366,348,1
39,513,749,612,1
108,51,34,45,1
159,223,268,162,1
41,281,413,709,1
15,206,179,416,1
22,191,407,503,1
168,39,601,558,1
45,67,235,257,1
169,331,361,133,1
82,20,231,467,1
211,44,167,297,1
3,215,305,72,1
23,108,782,549,1
170,254,444,75,1
29,197,16,79,1
453,295,210,266,1
19,99,388,461,1
4,124,136,142,1
2,39,131,164,1
137,221,380,384,1
101,79,91,142,1
105,248,241,517,1
158,240,28,46,1
12,166,523,251,1
51,168,391,650,1
196,347,373,147,1
247,113,377,264,1
250,391,87,232,1
55,250,117,436,1
131,59,134,130,1
103,37,469,289,1
119,190,145,59,1
192,256,101,0,1
120,103,254,226,1
405,400,110,208,1
106,192,126,144,1
111,445,238,423,1
28,32,50,69,1
49,54,145,44,1
18,89,189,57,1
19,12,884,695,1
34,95,634,219,1
85,91,1023,731,1
77,92,269,25,1
143,215,338,356,1
59,80,213,46,1
11,188,106,118,1
108,10,260,30,1
141,103,18,82,1
88,82,518,159,1
199,401,480,183,1
89,114,514,118,1
94,207,515,718,1
370,279,96,61,1
307,228,277,71,1
20,17,238,54,1
31,74,365,156,1
89,24,86,95,1
7,69,235,47,1
105,165,556,165,1
168,262,320,485,1
37,182,687,273,1
61,49,695,603,1
181,75,134,121,1
248,213,269,270,1
3,118,175,79,1
38,59,345,215,1
121,226,24,268,1
54,40,77,0,1
4,64,219,25,1
184,239,61,213,1
194,276,239,73,1
140,242,15,61,1
111,135,10,90,1
10,9,323,182,1
6,73,4,306,1
37,11,218,464,1
7,60,30,160,1
1,35,37,185,1
9,62,25,141,1
89,207,102,18,1
5,101,4,159,1
74,153,237,201,1
111,116,182,145,1
1,79,151,181,1
63,59,217,240,1
145,91,197,169,1
127,9,358,185,1
54,19,10,47,1
69,293,17,9,1
128,104,179,166,1
216,246,236,94,1
71,201,113,47,1
50,21,35,47,1
1,9,28,98,1
76,159,96,2,1
33,56,123,94,1
21,22,558,214,1
58,199,127,43,1
48,21,358,249,1
147,121,322,427,1
98,18,9,186,1
73,40,76,142,1
116,12,49,25,1
195,300,348,424,1
17,70,513,168,1
34,155,231,0,1
69,99,173,137,1
18,7,409,176,1
29,73,117,207,1
32,186,138,391,1
100,544,295,153,1
2,312,690,294,1
271,253,275,207,1
8,61,726,343,1
155,337,258,337,1
88,32,828,398,1
177,249,16,70,1
148,293,770,331,1
266,523,329,354,1
11,326,763,320,1
78,57,351,255,1
12,333,736,103,1
86,13,1023,1023,1
106,124,321,101,1
3,82,1023,713,1
38,70,277,427,1
5,10,561,251,1
30,32,105,135,1
18,75,283,152,1
102,98,361,412,1
47,7,339,273,1
254,198,634,517,1
83,135,179,331,1
37,67,314,420,1
26,76,129,96,1
48,226,662,903,1
320,514,454,893,1
135,144,677,496,1
204,414,354,175,1
339,139,124,149,1
122,134,1023,1023,1
408,33,689,842,1
312,14,67,546,1
47,59,194,54,1
53,58,249,794,1
76,9,434,0,1
98,22,880,1023,1
64,247,1023,587,1
57,15,243,488,1
246,108,1023,518,1
86,56,464,280,1
201,177,972,557,1
456,81,332,81,1
99,619,12,457,1
22,268,895,122,1
13,151,890,750,1
19,215,56,766,1
260,311,428,17,1
163,128,480,429,1
89,51,639,802,1
41,47,738,834,1
18,85,668,108,1
22,210,1023,515,1
384,274,877,788,1
73,40,480,15,1
286,290,620,729,1
451,155,48,410,1
340,162,110,24,1
211,7,68,325,1
75,242,1023,622,1
132,138,444,149,1
343,335,1023,1023,1
93,143,853,392,1
119,98,55,136,1
216,280,1023,1023,1
129,98,283,387,1
41,84,1023,1023,1
531,153,189,1023,1
181,149,1015,1023,1
18,99,1023,685,1
28,181,374,878,1
68,465,1023,1023,1
83,288,985,912,1
50,172,880,390,1
18,53,403,938,1
3,341,578,301,1
499,78,72,70,1
570,114,159,403,1
10,15,382,234,1
37,20,730,468,1
41,155,838,473,1
835,285,229,1023,1
229,81,522,658,1
340,177,445,243,1
269,310,31,1023,1
249,339,463,188,1
8,299,471,623,1
392,313,291,264,1
103,107,162,670,1
453,82,117,322,1
8,40,871,958,1
10,84,620,1023,1
220,175,558,736,1
38,11,48,167,1
117,138,271,74,1
312,207,555,554,1
115,175,1023,1023,1
154,590,1023,1023,1
101,53,966,1023,1
619,183,226,563,1
112,238,512,1023,1
280,445,1023,1023,1
105,186,507,464,1
182,149,1018,1023,1
371,81,953,824,1
122,289,246,109,1
52,266,1023,1023,1
285,81,905,1023,1
186,204,1023,1023,1
277,325,937,213,1
484,15,561,999,1
45,71,1023,1023,1
69,247,881,165,1
26,114,1023,115,1
0,27,509,1023,1
98,57,461,122,1
5,51,887,1023,1
98,132,1023,1023,1
153,251,1023,1023,1
148,146,1023,1023,1
125,472,972,734,1
137,298,1023,1023,1
147,51,34,44,1
187,129,55,91,1
96,16,984,907,1
18,254,93,1023,1
556,155,860,492,1
60,60,1023,1023,1
1,227,273,25,1
44,202,774,916,1
328,357,62,532,1
6,315,562,323,1
20,56,659,1023,1
25,19,547,468,1
60,108,604,184,1
149,189,1023,1023,1
17,96,847,700,1
42,124,647,323,1
18,71,620,237,1
196,200,522,439,1
495,350,12,137,1
77,113,477,419,1
36,146,173,423,1
49,64,2,847,1
83,67,449,470,1
177,254,81,378,1
129,136,285,365,1
22,156,477,4,1
82,50,212,139,1
158,55,516,412,1
64,15,175,37,1
56,15,663,883,1
51,179,260,315,1
191,250,1023,996,1
70,96,1023,961,1
143,87,149,402,1
42,51,1023,1023,1
60,68,620,311,1
374,200,1023,1023,1
94,145,852,309,1
30,46,228,437,1
143,8,192,219,1
168,36,326,91,1
129,34,563,260,1
148,126,650,156,1
52,176,113,83,1
42,117,847,1002,1
176,447,191,131,1
153,420,212,16,1
64,54,403,102,1
14,405,790,238,1
219,138,314,330,1
202,77,11,149,1
108,78,356,311,1
54,23,1023,1023,1
246,215,133,106,1
10,38,847,838,1
186,222,301,55,1
46,100,699,447,1
76,111,179,119,1
62,9,499,559,1
20,31,208,79,1
6,66,5,55,1
132,233,254,533,1
89,77,212,310,1
153,320,480,426,1
81,160,47,445,1
50,146,233,102,1
72,64,322,235,1
131,41,90,28,1
274,307,273,395,1
93,116,145,306,1
3,95,652,619,1
12,79,440,219,1
142,646,358,337,1
381,650,78,32,1
78,48,213,61,1
188,101,178,0,1
119,33,55,0,1
140,331,269,400,1
1,139,1,76,1
57,38,60,22,1
129,189,29,0,1
46,105,604,586,1
4,206,386,176,1
7,102,127,151,1
34,136,111,255,1
0,6,73,253,1
119,354,231,793,1
13,147,222,361,1
13,19,495,129,1
8,93,129,141,1
79,173,358,558,1
183,86,294,387,1
195,332,177,131,1
54,84,131,39,1
210,332,307,125,1
20,77,64,484,1
124,260,434,674,1
182,111,432,140,1
126,45,354,221,1
177,71,558,39,1
126,218,139,434,1
11,130,361,307,1
28,333,701,556,1
32,72,571,444,1
142,269,9,69,1
44,92,555,5,1
238,329,137,500,1
4,268,179,99,1
219,12,389,359,1
113,48,206,122,1
111,93,106,25,1
57,28,138,105,1
182,375,445,709,1
95,205,93,7,1
172,194,541,254,1
221,149,227,36,1
169,79,332,477,1
181,327,466,72,1
11,38,463,23,1
153,118,4,37,1
63,63,313,373,1
176,163,31,9,1
64,152,283,342,1
201,232,85,7,1
200,55,231,3,1
123,185,82,121,1
273,254,508,313,1
73,119,723,648,1
160,29,218,405,1
71,193,753,770,1
37,245,386,367,1
41,23,105,368,1
189,178,32,64,1
84,140,134,344,1
275,99,19,265,1
162,268,207,340,1
94,130,192,90,1
125,257,99,71,1
34,15,36,134,1
62,15,240,67,1
145,36,130,43,1
0,19,571,304,1
41,19,198,228,1
81,15,526,88,1
27,101,226,361,1
97,98,81,2,1
27,339,195,84,1
54,252,381,396,1
230,73,474,351,1
107,492,504,25,1
39,72,348,311,1
34,223,772,619,1
169,492,1023,1023,1
8,209,828,734,1
157,157,269,263,1
7,100,110,0,1
68,283,462,496,1
98,167,74,124,1
102,219,121,195,1
72,29,77,0,1
16,9,280,692,1
10,135,166,0,1
71,262,176,13,1
91,47,284,920,1
41,109,130,323,1
254,184,123,18,1
48,129,288,287,1
91,81,1,53,1
53,102,38,82,1
53,125,61,51,1
73,194,150,396,1
98,61,223,121,1
3,172,195,31,1
166,255,105,78,1
36,55,213,42,1
32,69,58,287,1
85,127,98,36,1
66,82,83,121,1
225,407,52,210,1
93,158,56,187,1
8,229,253,277,1
31,111,267,27,1
63,99,139,18,1
60,30,502,404,1
310,441,73,125,1
35,55,12,318,1
100,29,6,37,1
95,82,36,89,1
140,198,571,476,1
30,65,112,72,1
127,69,778,490,1
113,82,483,478,1
27,62,255,93,1
28,107,325,256,1
175,278,114,185,1
68,214,111,1,1
4,34,70,92,1
15,66,27,14,1
127,186,173,202,1
29,21,296,278,1
3,107,122,103,1
35,151,170,394,1
2,67,179,38,1
290,283,194,367,1
180,207,300,163,1
6,71,427,435,1
0,65,17,145,1
83,37,307,273,1
41,55,121,78,1
80,121,290,204,1
21,32,74,184,1
66,99,54,26,1
214,293,171,250,1
17,29,93,42,1
4,26,96,39,1
66,131,286,407,1
12,74,241,115,1
99,180,267,146,1
131,526,490,361,1
303,509,158,103,1
171,167,2,125,1
97,86,139,242,1
8,104,116,92,1
77,16,51,208,1
62,64,401,342,1
23,20,98,46,1
70,189,525,380,1
102,114,294,415,1
50,90,27,93,1
10,16,175,394,1
176,204,116,71,1
72,155,166,39,1
78,66,27,52,1
9,5,187,174,1
39,35,135,43,1
25,138,112,158,1
4,26,42,111,1
36,75,70,53,1
13,9,186,4,1
48,28,182,19,1
116,97,136,251,1
145,278,64,40,1
38,56,95,52,1
4,15,112,3,1
21,73,140,249,1
80,143,30,154,1
28,139,63,56,1
0,96,369,423,1
10,84,271,0,1
52,38,335,45,1
42,36,386,616,1
166,133,602,194,1
10,83,368,508,1
213,141,168,13,1
38,69,510,267,1
138,165,205,535,1
43,115,120,375,1
104,117,431,291,1
255,387,903,572,1
117,169,413,305,1
125,155,132,117,1
63,38,491,227,1
377,317,319,229,1
356,205,134,0,1
131,29,340,468,1
351,317,986,1014,1
276,189,294,8,1
75,341,569,545,1
115,191,526,561,1
220,44,400,427,1
5,44,10,8,1
249,239,281,114,1
3,88,106,336,1
734,621,446,196,1
67,15,479,404,1
149,52,149,89,1
4,87,669,1023,1
10,82,786,725,1
286,223,772,436,1
302,263,297,285,1
153,85,374,453,1
104,35,279,320,1
73,43,13,259,1
138,176,187,72,1
53,250,517,475,1
11,129,16,99,1
167,183,1023,900,1
325,68,200,355,1
81,421,749,649,1
185,316,623,1023,1
233,92,600,600,1
161,205,680,697,1
44,227,1023,950,1
100,200,762,155,1
44,97,558,344,1
89,149,267,352,1
178,126,1023,919,1
4,317,1023,890,1
5,364,1023,1023,1
179,257,1023,861,1
272,478,477,383,1
43,129,376,698,1
325,136,236,246,1
154,32,81,47,1
139,39,918,245,1
144,60,26,711,1
249,506,1023,167,1
137,169,201,405,1
307,91,683,46,1
215,225,220,131,1
365,398,319,521,1
191,136,1023,631,1
183,315,772,157,1
277,54,1023,1023,1
160,12,761,1023,1
145,510,731,509,1
124,189,54,608,1
26,205,460,807,1
325,335,618,390,1
27,317,442,903,1
31,60,1023,1023,1
51,333,6,401,1
81,98,817,670,1
65,25,828,26,1
0,150,30,53,1
251,151,839,574,1
101,100,717,513,1
334,17,46,177,1
122,235,1023,303,1
235,104,1023,605,1
347,570,656,117,1
95,688,12,5,1
219,39,1023,1023,1
412,21,1023,1023,1
73,93,1023,1023,1
257,51,1023,1023,1
271,100,1023,573,1
189,229,1023,1023,1
365,141,242,555,1
76,57,1023,1023,1
119,145,159,203,1
44,10,934,1023,1
228,170,117,1023,1
60,121,1023,453,1
53,339,721,1023,1
87,183,561,1023,1
222,38,135,662,1
133,595,1023,1023,1
643,721,448,679,1
250,52,1023,1023,1
192,174,460,530,1
100,445,294,413,1
420,101,568,74,1
488,115,125,234,1
323,415,1023,923,1
4,92,1023,1022,1
243,153,305,563,1
52,174,1023,1023,1
173,230,1023,1023,1
118,229,1023,1023,1
8,115,782,483,1
229,105,1023,1023,1
304,485,953,1023,1
369,375,94,744,1
113,447,1023,1023,1
410,160,1023,1023,1
305,446,1023,738,1
13,197,1023,1023,1
607,534,1023,791,1
73,81,1023,1023,1
20,75,1023,1023,1
100,209,1023,1023,1
53,46,547,949,1
3,77,400,364,1
47,149,656,415,1
521,198,1023,549,1
182,480,523,873,1
590,312,531,554,1
299,602,1023,1023,1
622,517,951,1023,1
62,229,935,1009,1
285,402,696,1023,1
106,193,157,32,1
263,62,1023,1023,1
397,65,128,544,1
592,90,1023,1023,1
414,310,69,402,1
65,196,1023,1023,1
245,126,159,365,1
205,28,20,446,1
62,176,39,81,1
190,139,502,482,1
62,19,401,301,1
7,91,850,227,1
354,62,891,119,1
111,69,880,897,1
6,21,941,90,1
17,180,1023,982,1
195,220,801,10,1
127,31,165,308,1
131,164,645,1023,1
40,213,361,90,1
66,9,553,1023,1
142,324,153,244,1
131,317,241,234,1
254,240,711,170,1
59,69,616,270,1
311,413,582,1023,1
84,49,596,987,1
48,95,517,234,1
64,29,420,64,1
47,351,259,30,1
3,123,597,0,1
0,99,134,401,1
103,92,654,37,1
234,95,132,0,1
21,63,65,145,1
13,136,100,98,1
45,81,897,453,1
79,66,361,418,1
6,65,596,280,1
13,69,368,408,1
58,16,538,432,1
53,43,355,861,1
101,20,47,245,1
268,148,480,401,1
6,21,427,203,1
145,168,416,226,1
380,322,372,31,1
35,22,264,243,1
85,50,492,625,1
70,15,363,282,1
150,112,557,39,1
112,59,923,113,1
0,68,182,195,1
59,46,878,437,1
179,57,417,72,1
69,22,302,364,1
63,92,285,135,1
15,93,126,128,1
50,11,138,303,1
54,20,173,195,1
183,40,141,253,1
15,15,355,201,1
35,140,141,91,1
26,69,113,87,1
258,93,92,463,1
179,77,461,647,1
149,231,116,70,1
29,86,270,147,1
12,88,167,14,1
74,114,360,647,1
29,136,556,243,1
56,280,323,449,1
5,220,323,40,1
140,288,243,333,1
135,136,51,312,1
95,29,66,130,1
75,15,239,221,1
63,132,19,394,1
92,338,722,647,1
44,87,201,174,1
52,46,602,492,1
252,208,162,408,1
50,5,437,311,1
124,278,123,7,1
18,200,243,374,1
73,243,222,158,1
151,124,222,74,1
46,189,584,333,1
132,286,315,326,1
286,249,291,2,1
102,105,145,163,1
198,132,90,201,1
378,343,245,438,1
193,203,174,343,1
285,222,18,107,1
0,127,117,241,1
174,45,673,597,1
100,140,555,484,1
56,69,337,261,1
36,126,57,106,1
15,448,439,349,1
17,241,507,10,1
137,462,337,361,1
28,39,1,0,1
67,39,71,114,1
142,41,482,136,1
202,220,380,186,1
383,312,30,499,1
83,132,18,57,1
287,249,497,826,1
84,149,572,546,1
271,299,350,148,1
76,68,489,606,1
53,71,503,141,1
12,83,63,14,1
53,58,440,417,1
71,61,444,148,1
98,208,120,99,1
6,117,798,470,1
278,330,356,140,1
183,129,638,268,1
177,11,286,23,1
111,20,441,631,1
31,255,51,512,1
58,183,658,119,1
141,36,409,399,1
146,185,208,140,1
221,158,185,20,1
519,20,403,13,1
287,247,77,0,1
163,53,154,222,1
225,139,219,169,1
305,250,48,3,1
210,235,109,132,1
176,126,145,121,1
18,209,291,130,1
103,124,544,486,1
116,32,157,109,1
120,92,609,534,1
1,69,27,26,1
33,133,172,433,1
201,88,441,175,1
57,186,147,75,1
72,270,226,288,1
123,438,420,1023,1
1,92,85,79,1
29,317,335,301,1
117,81,443,259,1
112,171,162,74,1
209,90,731,438,1
98,57,301,397,1
6,87,517,27,1
105,35,457,574,1
87,40,394,10,1
166,151,327,322,1
304,211,70,182,1
41,89,93,157,1
62,91,178,114,1
307,193,22,93,1
134,6,204,162,1
45,47,460,96,1
151,240,35,132,1
195,163,247,113,1
25,15,324,316,1
40,47,48,85,1
27,12,484,505,1
19,59,250,31,1
78,79,338,378,1
106,44,30,22,1
90,15,307,220,1
14,91,204,183,1
131,333,175,219,1
139,211,179,422,1
3,103,41,48,1
21,144,153,455,1
73,319,630,135,1
35,159,209,93,1
274,359,866,635,1
10,171,232,454,1
106,7,564,395,1
161,256,255,137,1
3,55,162,130,1
2,10,323,25,1
24,25,115,56,1
0,84,380,149,1
5,48,22,111,1
68,59,185,232,1
3,155,193,147,1
282,257,86,225,1
17,18,18,65,1
59,100,9,214,1
46,48,44,0,1
31,28,124,86,1
5,193,270,333,1
37,57,274,61,1
102,158,109,70,1
195,177,171,54,2
103,71,217,151,2
149,206,26,120,2
339,154,163,264,2
87,42,104,659,2
161,228,475,640,2
184,429,373,740,2
51,126,74,138,2
155,45,579,342,2
11,62,285,0,2
16,258,129,407,2
182,322,199,151,2
21,231,206,289,2
252,531,523,484,2
37,245,36,73,2
149,102,146,20,2
82,50,264,302,2
17,115,476,356,2
271,181,246,292,2
201,126,397,147,2
2,25,177,515,2
23,153,455,789,2
89,176,149,240,2
17,191,448,384,2
63,215,259,432,2
2,84,454,179,2
27,30,159,4,2
217,220,159,159,2
134,124,283,245,2
6,77,4,190,2
15,84,197,150,2
199,178,74,9,2
226,325,291,190,2
110,178,230,231,2
211,131,268,603,2
269,255,879,879,2
276,339,275,185,2
47,197,185,889,2
71,96,10,22,2
184,353,315,143,2
131,101,72,0,2
19,308,372,66,2
337,103,840,861,2
437,341,219,355,2
151,59,404,280,2
26,62,464,170,2
25,67,518,212,2
322,649,47,80,2
19,119,102,111,2
105,258,423,537,2
174,227,513,28,2
15,70,18,189,2
68,117,568,807,2
130,124,71,68,2
81,448,293,193,2
58,22,354,115,2
73,328,232,561,2
237,17,159,11,2
319,571,1023,928,2
57,154,423,898,2
79,271,925,817,2
25,84,287,421,2
236,170,4,941,2
366,320,378,475,2
522,123,72,463,2
199,28,197,749,2
161,287,619,481,2
66,295,247,160,2
47,158,285,484,2
90,41,877,947,2
200,279,736,1023,2
157,165,480,1023,2
78,61,343,254,2
319,560,341,192,2
286,170,148,19,2
112,389,921,763,2
50,186,1023,812,2
90,37,540,9,2
1,5,1023,1023,2
242,82,411,700,2
6,22,1023,203,2
71,34,242,199,2
261,337,1023,505,2
45,256,126,170,2
290,161,484,664,2
318,359,146,231,2
255,120,199,0,2
141,152,436,386,2
107,190,912,666,2
80,349,126,205,2
1,19,1023,1023,2
109,44,65,268,2
79,178,736,449,2
402,61,904,621,2
173,41,790,669,2
148,295,39,891,2
307,632,215,306,2
31,312,1023,733,2
215,594,999,606,2
215,245,756,1023,2
723,356,1023,1023,2
164,38,1023,634,2
57,59,1023,455,2
73,42,595,211,2
0,97,1023,743,2
275,86,57,973,2
329,45,198,357,2
292,98,814,651,2
439,128,425,1023,2
595,250,1023,1023,2
76,111,1023,1023,2
243,276,191,1018,2
347,125,556,103,2
107,105,730,18,2
174,13,1023,1023,2
21,118,632,336,2
76,314,49,647,2
163,23,49,417,2
281,95,226,369,2
6,429,720,373,2
90,16,1016,536,2
28,457,1023,355,2
33,61,1023,1023,2
266,799,1023,1023,2
86,591,352,430,2
279,337,1023,1023,2
474,39,478,473,2
84,437,1023,1023,2
429,260,302,672,2
92,302,74,180,2
71,151,1023,742,2
5,93,165,598,2
328,39,379,1023,2
259,610,1023,1023,2
289,135,119,229,2
155,334,1023,1023,2
621,306,1008,1023,2
33,223,1023,1023,2
330,162,1023,1023,2
31,245,1023,1023,2
268,242,5,952,2
1,275,351,751,2
62,251,1023,1023,2
146,215,1023,1023,2
10,9,1023,419,2
264,83,430,899,2
139,581,477,180,2
154,87,684,205,2
43,36,776,867,2
27,346,1023,1023,2
201,277,33,1000,2
31,184,880,1023,2
331,471,25,416,2
101,206,568,147,2
8,479,78,201,2
82,94,1023,1023,2
73,80,728,940,2
26,80,1023,1023,2
106,17,453,14,2
104,141,1023,1023,2
54,47,423,167,2
66,25,1004,491,2
367,125,1023,1023,2
234,323,1006,770,2
2,178,124,16,2
352,183,1023,1023,2
199,37,1023,1023,2
111,432,748,966,2
334,482,1023,923,2
162,270,886,372,2
158,167,154,409,2
33,55,1023,1023,2
198,100,355,255,2
95,219,188,237,2
162,62,177,342,2
251,115,204,716,2
63,111,250,613,2
22,35,233,77,2
212,300,778,364,2
98,170,60,84,2
222,31,927,928,2
124,264,515,779,2
67,63,790,975,2
159,343,233,112,2
226,116,919,787,2
253,355,801,856,2
1,49,779,454,2
178,282,503,103,2
172,531,491,1023,2
35,28,242,129,2
294,295,10,280,2
1,19,819,454,2
53,142,315,32,2
96,102,134,23,2
40,27,392,303,2
249,81,423,528,2
101,271,338,202,2
188,258,1023,1023,2
64,151,350,79,2
123,162,423,115,2
210,290,674,742,2
75,65,856,297,2
187,450,142,230,2
67,97,785,511,2
102,332,415,0,2
99,14,145,21,2
146,255,54,157,2
225,215,249,2,2
55,65,37,147,2
118,134,301,141,2
106,114,414,405,2
18,176,62,173,2
151,434,62,203,2
173,229,628,606,2
295,186,245,242,2
67,17,724,812,2
127,146,457,650,2
90,48,741,291,2
135,301,371,124,2
49,179,356,411,2
134,194,52,691,2
74,98,88,447,2
98,14,160,294,2
50,159,27,127,2
180,116,396,280,2
235,396,13,179,2
258,820,243,555,2
231,281,671,914,2
27,161,226,114,2
170,218,291,70,2
128,32,202,333,2
5,319,92,85,2
19,275,248,256,2
136,89,37,251,2
32,69,128,298,2
249,230,65,171,2
2,11,450,701,2
0,71,107,0,2
92,64,386,662,2
141,152,282,78,2
80,333,525,539,2
77,144,62,351,2
44,57,378,199,2
37,166,434,496,2
15,93,869,676,2
40,86,222,126,2
164,279,325,620,2
13,49,199,134,2
18,18,27,141,2
198,245,231,446,2
270,248,368,260,2
94,132,28,182,2
52,113,542,228,2
80,142,421,373,2
65,328,920,636,2
40,10,105,150,2
83,235,842,1003,2
31,63,873,318,2
4,141,431,662,2
146,121,528,340,2
195,120,467,390,2
156,52,183,53,2
179,106,269,344,2
131,59,201,348,2
146,222,36,11,2
143,74,199,99,2
111,42,344,444,2
199,139,477,423,2
164,228,438,482,2
23,92,355,272,2
134,63,630,715,2
168,135,126,310,2
67,332,236,445,2
230,149,217,545,2
23,145,238,535,2
36,248,205,521,2
84,239,66,764,2
52,224,130,215,2
277,165,94,117,2
231,189,205,234,2
106,25,207,109,2
81,138,185,80,2
46,208,259,393,2
191,59,531,633,2
85,211,387,61,2
120,138,173,181,2
167,198,153,43,2
193,531,50,236,2
273,846,59,33,2
57,40,268,89,2
15,214,570,316,2
373,171,357,131,2
103,80,135,0,2
92,15,659,395,2
160,227,314,460,2
76,81,440,274,2
226,238,528,669,2
116,108,29,98,2
295,405,524,839,2
53,102,205,96,2
195,11,71,120,2
26,199,70,345,2
272,668,114,213,2
4,99,190,300,2
46,190,412,544,2
386,214,338,23,2
307,60,55,97,2
228,131,259,174,2
21,269,39,413,2
67,67,586,740,2
225,15,367,69,2
111,70,675,568,2
158,124,28,187,2
136,172,374,124,2
121,237,288,47,2
143,30,69,108,2
108,248,17,269,2
20,101,38,177,2
18,133,563,406,2
41,27,153,334,2
132,116,368,302,2
0,156,24,283,2
112,51,539,241,2
66,7,184,13,2
89,8,737,510,2
22,46,183,190,2
51,9,322,205,2
2,25,33,136,2
38,83,46,129,2
5,40,180,42,2
120,158,181,155,2
22,13,307,453,2
66,182,5,137,2
78,330,323,115,2
31,202,602,758,2
45,273,107,25,2
135,222,369,194,2
30,106,160,304,2
0,7,54,23,2
206,143,75,83,2
29,101,356,144,2
63,191,19,0,2
42,36,121,36,2
46,265,329,328,2
11,177,183,190,2
170,157,250,258,2
73,262,818,814,2
76,57,750,148,2
282,468,252,555,2
53,80,321,188,2
35,67,504,352,2
151,179,436,442,2
116,19,287,330,2
135,190,210,246,2
101,155,208,103,2
0,211,791,388,2
15,62,8,238,2
93,88,389,50,2
168,111,109,238,2
11,50,573,372,2
33,33,161,31,2
21,64,79,0,2
7,21,253,183,2
35,10,99,160,2
111,311,135,159,2
77,116,310,304,2
12,102,142,274,2
137,239,11,75,2
66,82,40,2,2
8,124,104,139,2
172,215,146,183,2
47,63,8,67,2
0,53,92,62,2
45,59,302,220,2
63,53,471,240,2
14,9,83,163,2
70,103,31,4,2
100,6,131,16,2
78,9,88,72,2
6,15,8,141,2
214,267,383,268,2
40,68,163,132,2
37,32,314,336,2
171,178,135,109,2
204,78,178,80,2
76,203,187,60,2
18,332,256,93,2
119,265,395,250,2
214,523,27,286,2
69,148,47,5,2
127,165,372,304,2
89,75,53,17,2
159,126,79,0,2
200,69,12,238,2
208,243,41,104,2
242,320,364,144,2
38,125,267,132,2
92,219,155,97,2
59,98,221,278,2
149,148,202,72,2
156,392,990,826,2
20,12,218,27,2
5,131,711,419,2
86,65,578,619,2
15,81,204,326,2
129,17,57,144,2
74,56,464,33,2
86,192,41,219,2
55,60,695,299,2
148,212,367,46,2
52,17,886,680,2
207,240,302,95,2
5,123,730,721,2
8,251,340,258,2
47,86,1023,1023,2
8,137,730,0,2
224,50,415,424,2
188,194,419,735,2
62,6,78,81,2
134,18,553,199,2
253,206,319,934,2
167,51,1012,914,2
227,315,535,450,2
583,721,834,511,2
230,274,682,766,2
180,85,720,478,2
2,237,689,686,2
103,91,442,294,2
17,159,722,610,2
246,103,474,637,2
37,165,9,226,2
292,213,654,561,2
360,50,173,386,2
4,87,535,573,2
37,131,60,12,2
107,40,958,728,2
117,45,739,56,2
157,30,580,547,2
8,207,440,225,2
9,128,280,201,2
119,63,600,17,2
77,189,71,217,2
154,14,166,5,2
16,95,19,774,2
188,67,166,93,2
102,154,91,57,2
424,186,308,50,2
109,225,579,1023,2
112,30,803,1023,2
54,101,111,815,2
69,214,233,443,2
208,177,24,433,2
139,63,69,93,2
91,246,612,405,2
34,33,1023,766,2
49,272,45,223,2
201,218,768,95,2
150,15,894,902,2
287,278,224,999,2
260,105,270,136,2
348,332,516,992,2
541,395,682,1023,2
248,195,1023,608,2
48,78,1023,557,2
427,205,1023,27,2
265,183,558,149,2
165,75,421,905,2
242,523,565,151,2
275,127,254,517,2
65,127,736,1023,2
358,165,1023,1023,2
301,13,305,307,2
141,26,1023,628,2
147,177,759,1023,2
122,106,134,248,2
253,392,355,402,2
135,11,743,389,2
19,57,369,285,2
275,130,337,348,2
2,218,126,6,2
83,125,864,34,2
29,20,1023,798,2
210,37,319,136,2
156,246,920,514,2
150,347,581,240,2
261,397,474,32,2
73,181,888,620,2
442,688,167,63,2
243,206,477,493,2
264,106,1023,635,2
305,122,1023,1023,2
239,300,134,36,2
137,127,1023,34,2
20,544,1023,1023,2
235,92,1023,1023,2
226,95,1023,1023,2
16,173,1023,51,2
6,152,650,596,2
266,110,570,628,2
36,68,524,599,2
140,108,638,172,2
28,196,1023,1023,2
78,11,922,743,2
272,172,1023,1023,2
70,327,1023,642,2
38,88,462,468,2
57,53,366,161,2
71,246,858,1023,2
211,261,553,399,2
551,546,93,463,2
172,284,185,632,2
41,68,1023,850,2
165,99,1023,918,2
260,173,516,1023,2
13,174,968,1023,2
109,44,1023,851,2
54,94,952,1023,2
481,54,1023,956,2
464,106,719,38,2
370,25,1023,1023,2
557,84,1023,899,2
190,169,555,608,2
139,163,82,294,2
137,211,1009,1023,2
99,14,1023,1023,2
160,26,1023,460,2
185,139,1023,860,2
265,141,1023,1023,2
184,158,1023,1023,2
153,126,542,747,2
11,31,1023,1023,2
337,172,605,157,2
540,520,971,611,2
405,271,783,261,2
47,579,1023,1023,2
73,85,1023,419,2
450,783,918,850,2
18,368,1019,828,2
107,86,634,1023,2
258,443,746,338,2
189,239,127,177,2
368,513,207,143,2
240,159,1023,625,2
161,25,111,331,2
147,105,638,0,2
24,82,254,388,2
40,16,5,132,2
208,160,185,1023,2
156,527,506,183,2
81,191,1023,1023,2
168,87,715,382,2
36,143,208,901,2
8,109,27,374,2
246,49,579,609,2
77,228,24,229,2
343,163,986,1012,2
54,107,378,157,2
98,174,781,1023,2
258,176,246,68,2
221,184,325,144,2
14,18,1023,1023,2
148,116,22,48,2
9,48,479,59,2
18,117,402,832,2
14,141,805,762,2
288,308,79,113,2
181,356,551,515,2
168,410,163,7,2
91,70,250,153,2
116,295,913,1023,2
1,375,693,603,2
167,11,786,662,2
17,67,754,407,2
257,285,642,820,2
79,126,243,185,2
455,592,91,1023,2
238,167,969,397,2
109,186,1023,256,2
16,51,56,52,2
59,105,327,123,2
110,190,305,247,2
30,57,398,225,2
73,110,29,186,2
98,219,106,263,2
45,20,383,480,2
44,184,42,353,2
95,35,6,174,2
5,136,356,178,2
73,11,255,10,2
198,294,317,0,2
23,73,297,270,2
252,179,59,39,2
27,76,332,273,2
63,10,45,178,2
81,101,142,235,2
351,391,405,610,2
53,159,73,184,2
265,619,545,1023,2
42,224,396,6,2
31,194,406,559,2
210,118,353,380,2
0,15,127,242,2
44,77,155,133,2
20,65,359,830,2
197,117,146,438,2
135,144,232,610,2
150,302,436,451,2
65,349,733,315,2
0,34,294,523,2
280,290,401,868,2
228,120,132,158,2
306,319,373,436,2
142,338,577,596,2
48,52,139,115,2
123,20,654,41,2
35,61,64,103,2
283,214,35,237,2
48,27,237,207,2
5,35,375,81,2
43,59,223,41,2
222,140,47,80,2
33,54,627,678,2
486,559,462,642,2
618,641,134,115,2
122,360,281,236,2
157,222,53,64,2
398,601,245,427,2
157,408,155,120,2
183,151,393,171,2
58,267,204,0,2
24,171,462,193,2
118,20,233,95,2
107,47,596,384,2
87,134,280,281,2
3,33,202,275,2
309,144,116,34,2
146,164,354,424,2
11,10,94,451,2
4,285,336,168,2
206,94,526,670,2
206,176,326,633,2
235,103,650,1023,2
38,65,705,758,2
32,12,770,875,2
195,77,379,557,2
141,44,359,474,2
110,6,131,278,2
122,9,599,204,2
29,127,354,637,2
116,7,604,489,2
2,74,20,55,2
57,76,424,535,2
2,52,130,327,2
332,55,25,379,2
184,79,65,113,2
20,104,355,580,2
328,500,325,581,2
42,186,223,315,2
121,504,219,11,2
352,672,111,46,2
120,54,484,362,2
2,231,546,0,2
43,301,402,889,2
261,214,603,375,2
40,121,36,333,2
68,156,720,466,2
73,179,304,137,2
4,157,403,292,2
23,362,213,331,2
20,71,87,71,2
127,346,20,291,2
382,131,462,332,2
229,57,151,83,2
141,141,107,216,2
165,134,244,60,2
209,371,333,45,2
0,204,216,21,2
59,257,90,3,2
157,180,127,327,2
45,50,61,136,2
71,195,219,0,2
55,204,263,4,2
23,144,112,12,2
216,159,552,264,2
287,151,142,158,2
67,66,348,261,2
64,30,402,360,2
122,172,467,359,2
21,176,143,220,2
45,154,419,278,2
88,74,538,250,2
38,242,336,283,2
38,85,447,130,2
0,18,571,452,2
6,178,66,43,2
308,510,284,202,2
212,224,299,493,2
256,152,58,167,2
128,9,490,690,2
13,66,53,69,2
148,425,533,464,2
108,69,121,147,2
321,430,271,350,2
100,147,160,48,2
60,107,47,163,2
51,65,28,34,2
57,259,37,26,2
68,119,123,149,2
0,26,39,17,2
35,26,158,114,2
94,76,169,93,2
9,81,197,344,2
135,148,23,11,2
183,309,18,7,2
112,51,372,326,2
172,88,64,179,2
30,16,114,66,2
16,11,50,119,2
32,16,114,21,2
99,232,373,197,2
90,58,177,114,2
72,28,292,247,2
1,10,532,362,2
52,194,308,306,2
1,21,515,322,2
23,146,497,505,2
47,23,317,249,2
19,23,293,245,2
5,73,159,0,2
92,244,35,66,2
13,105,28,54,2
32,38,82,74,2
138,26,87,281,2
102,121,133,148,2
4,79,630,314,2
192,64,21,9,2
137,179,345,145,2
28,56,90,70,2
42,67,214,856,2
123,13,294,651,2
43,112,323,1023,2
105,14,4,282,2
7,83,172,339,2
262,269,156,259,2
125,610,65,33,2
144,303,84,169,2
36,29,25,100,2
73,18,18,53,2
16,87,5,65,2
57,158,265,190,2
4,46,716,414,2
81,65,109,118,2
110,205,800,404,2
244,209,732,895,2
37,120,266,0,2
101,186,444,242,2
82,123,150,123,2
50,157,257,189,2
109,67,3,81,2
0,65,127,116,2
2,92,49,129,2
7,129,149,176,2
81,23,53,902,2
72,13,98,158,2
109,202,41,53,2
91,184,3,201,2
163,163,325,190,2
158,114,623,461,2
47,19,64,160,2
15,133,520,599,2
55,73,17,86,2
257,67,70,26,2
146,330,45,336,2
13,255,92,189,2
46,12,111,89,2
232,345,254,32,2
138,52,332,135,2
18,96,635,700,2
35,126,824,376,2
209,25,575,305,2
113,104,430,558,2
58,90,39,182,2
6,11,359,169,2
57,217,451,625,2
33,108,435,539,2
28,16,741,329,2
182,67,592,602,2
38,11,257,333,2
5,183,228,596,2
143,102,225,61,2
141,179,570,843,2
34,90,51,95,2
121,202,576,567,2
275,77,177,291,2
133,19,499,218,2
8,44,547,1023,2
18,199,440,709,2
66,55,356,518,2
58,6,136,749,2
74,199,721,1023,2
188,310,730,564,2
168,213,270,538,2
223,71,449,915,2
195,264,23,30,2
97,134,384,466,2
41,77,695,423,2
7,87,640,643,2
3,95,134,918,2
126,6,1023,1023,2
1,191,1023,1023,2
86,221,1023,1023,2
230,199,595,696,2
101,24,737,299,2
150,153,648,731,2
100,71,507,373,2
87,72,397,144,2
39,375,472,1023,2
242,163,1023,514,2
515,549,1023,1023,2
98,76,1023,378,2
16,152,921,1023,2
402,242,1023,205,2
73,309,476,1023,2
163,49,449,732,2
133,220,857,1023,2
327,435,1023,119,2
231,192,100,187,2
315,199,1023,247,2
125,34,984,588,2
79,274,663,4,2
56,28,252,266,2
118,543,1023,469,2
157,575,887,231,2
155,433,510,490,2
10,186,490,934,2
110,180,573,347,2
105,100,138,549,2
172,476,1023,1023,2
315,53,842,1023,2
456,142,1023,1023,2
12,75,354,532,2
157,234,388,1023,2
141,197,1023,1023,2
613,291,589,14,2
493,156,883,1023,2
143,51,1012,1023,2
333,46,634,170,2
157,39,128,916,2
250,22,177,386,2
115,181,71,163,2
132,627,155,164,2
34,59,367,32,2
6,494,794,550,2
27,85,460,603,2
31,14,1023,796,2
492,263,114,145,2
58,163,1023,262,2
138,243,478,1023,2
34,148,71,37,2
78,81,784,1023,2
677,287,31,858,2
147,139,1023,1023,2
483,149,961,1023,2
406,26,91,1023,2
489,118,488,479,2
57,106,259,61,2
203,433,584,699,2
242,42,1023,792,2
24,48,335,401,2
151,529,1023,625,2
14,17,607,1023,2
47,63,118,1023,2
666,110,7,705,2
451,282,848,1023,2
185,578,363,486,2
47,156,678,667,2
131,92,433,594,2
424,13,13,326,2
284,202,1023,1023,2
128,91,709,1023,2
54,166,914,389,2
114,20,768,366,2
227,44,590,0,2
227,185,538,457,2
110,86,180,926,2
285,56,642,638,2
416,867,366,891,2
20,252,220,1023,2
118,158,372,1023,2
187,25,290,503,2
378,432,1023,1023,2
126,291,552,731,2
173,85,1023,1023,2
350,316,920,1023,2
4,64,309,481,2
136,75,538,252,2
232,52,236,245,2
168,105,35,145,2
227,320,173,720,2
113,460,695,28,2
113,301,315,182,2
139,19,119,687,2
245,242,340,1023,2
64,499,415,1023,2
114,363,696,793,2
332,26,310,515,2
112,140,723,95,2
292,319,695,715,2
77,89,1023,1010,2
70,132,265,362,2
250,143,1023,1023,2
0,19,887,630,2
120,82,60,249,2
8,31,122,594,2
25,36,1023,652,2
27,102,131,436,2
190,20,1023,1023,2
211,254,1023,812,2
77,266,120,305,2
179,278,14,10,2
80,129,778,1023,2
83,60,824,1023,2
163,245,32,131,2
59,82,185,410,2
151,29,609,1023,2
252,197,1023,623,2
147,191,987,911,2
18,10,1023,974,2
13,12,387,4,2
79,130,1023,929,2
300,156,61,807,2
76,55,812,986,2
192,38,323,254,2
118,92,511,543,2
6,33,155,86,2
305,131,3,37,2
61,151,228,318,2
185,145,44,55,2
42,59,185,228,2
83,9,692,822,2
89,25,259,261,2
81,261,1023,968,2
94,5,493,268,2
59,13,33,36,2
11,248,271,144,2
112,45,247,5,2
86,31,52,3,2
138,66,549,314,2
140,62,94,9,2
136,219,322,274,2
25,17,39,113,2
129,220,453,495,2
70,204,133,312,2
68,23,282,995,2
19,183,26,211,2
55,65,95,0,2
56,171,100,181,2
100,43,48,63,2
153,100,14,22,2
39,47,688,325,2
63,211,18,213,2
19,240,599,465,2
51,251,92,28,2
71,224,344,339,2
39,128,243,279,2
160,48,395,174,2
183,248,164,290,2
13,18,378,729,2
209,232,459,315,2
13,139,333,455,2
183,310,175,61,2
46,22,199,358,2
117,202,243,377,2
85,107,340,134,2
1,141,262,381,2
127,64,29,0,2
8,31,277,16,2
116,54,463,604,2
21,106,369,472,2
125,435,42,109,2
62,179,123,366,2
67,314,80,952,2
33,57,449,658,2
283,22,397,214,2
113,26,217,384,2
87,52,393,326,2
99,157,176,0,2
36,22,110,8,2
79,63,226,187,2
18,139,251,75,2
168,144,741,709,2
63,117,363,247,2
120,77,610,448,2
52,11,239,420,2
27,21,211,85,2
11,67,609,420,2
134,216,789,179,2
168,224,752,391,2
429,8,545,851,2
206,58,1023,1023,2
428,349,103,139,2
63,199,253,162,2
53,351,218,205,2
197,155,246,116,2
337,559,385,716,2
259,272,86,123,2
177,177,390,232,2
97,78,11,81,2
10,148,273,376,2
911,510,306,510,2
694,53,557,891,2
205,138,169,229,2
82,121,65,9,2
282,219,351,679,2
34,40,683,941,2
12,62,220,892,2
24,444,183,413,2
112,195,130,293,2
113,176,72,117,2
237,291,506,544,2
32,120,242,76,2
326,39,154,43,2
122,31,153,113,2
42,23,216,114,2
21,90,560,473,2
251,328,234,0,2
208,16,120,42,2
48,7,173,40,2
474,219,77,224,2
314,31,323,76,2
15,393,6,134,2
79,268,161,349,2
192,87,87,421,2
114,190,398,424,2
96,105,73,297,2
61,46,15,75,2
64,14,212,401,2
101,74,1023,943,2
56,184,401,476,2
96,197,1023,1023,2
237,655,905,1015,2
238,138,8,746,2
191,578,919,273,2
148,142,136,473,2
29,59,773,535,2
190,15,28,235,2
134,118,19,91,2
7,31,388,478,2
178,237,177,221,2
170,125,182,56,2
369,472,459,775,2
51,105,323,178,2
230,644,34,282,2
69,195,239,150,2
198,20,112,25,2
18,109,389,194,2
305,105,235,270,2
141,483,225,397,2
152,569,225,83,2
224,355,78,51,2
89,166,20,354,2
247,175,332,239,2
62,28,46,144,2
0,98,305,18,2
17,102,127,358,2
16,36,137,72,2
80,165,88,0,2
46,17,514,254,2
102,188,192,411,2
153,246,197,150,2
175,10,308,130,2
159,45,180,226,2
133,96,341,340,2
100,255,193,117,2
8,117,304,844,2
80,67,336,252,2
22,24,8,234,2
95,44,460,136,2
83,242,24,45,2
182,132,194,94,2
5,43,164,51,2
20,28,207,31,2
15,94,497,304,2
3,30,178,76,2
39,92,533,397,2
55,15,107,136,2
241,121,17,149,2
12,377,465,19,2
152,37,76,308,2
379,662,37,26,2
43,74,155,396,2
208,259,111,32,2
127,148,234,279,2
0,11,206,144,2
81,17,793,531,2
40,19,19,154,2
153,167,671,526,2
140,89,54,123,2
16,27,288,86,2
88,171,189,343,2
60,311,83,45,2
179,325,48,0,2
143,33,276,107,2
23,102,244,237,2
107,199,37,192,2
38,9,537,546,2
173,83,510,233,2
96,158,116,276,2
4,67,212,189,2
115,157,348,364,2
0,51,465,170,2
79,79,218,203,2
64,67,18,158,2
90,52,192,251,2
93,79,315,37,2
22,93,31,59,2
4,91,169,64,2
14,136,403,173,2
261,248,171,35,2
114,111,339,418,2
171,493,106,197,2
91,87,459,277,2
32,227,456,797,2
155,205,38,20,2
132,253,507,423,2
229,173,170,264,2
2,10,19,60,2
73,152,672,181,2
3,43,391,203,2
97,86,728,299,2
20,98,531,210,2
77,61,548,425,2
39,20,26,27,2
35,30,72,15,2
2,20,112,65,2
46,58,108,166,2
42,31,101,59,2
104,322,291,455,2
34,7,149,155,2
12,156,32,227,2
191,386,170,38,2
18,10,300,304,2
70,89,184,95,2
85,174,54,260,2
222,208,119,53,2
14,59,111,87,2
44,68,362,123,2
119,109,122,92,2
121,221,67,106,2
161,533,512,741,2
118,82,283,606,2
245,381,16,17,2
183,119,558,154,2
17,286,639,36,2
6,109,1023,885,2
144,220,378,311,2
115,12,1023,88,2
130,109,170,377,2
263,122,617,25,2
109,58,129,168,2
138,66,387,183,2
133,163,199,189,2
12,37,71,0,2
126,45,418,268,2
565,288,250,387,2
45,397,8,203,2
85,588,402,94,2
17,10,638,28,2
124,89,294,29,2
141,27,590,759,2
52,10,739,267,2
46,49,93,257,2
69,84,174,405,2
379,119,593,353,2
226,144,1013,433,2
271,439,1023,449,2
611,590,1023,1023,2
184,368,316,277,2
200,272,1023,1023,2
244,227,88,553,2
89,134,88,493,2
24,281,964,168,2
101,177,24,84,2
39,135,715,181,2
142,90,1023,1023,2
79,55,851,907,2
276,214,467,456,2
159,71,361,73,2
59,36,857,568,2
62,462,433,584,2
717,154,395,1023,2
38,225,1023,589,2
285,261,217,369,2
21,128,1023,1023,2
201,10,743,308,2
264,167,1023,1023,2
184,156,906,1023,2
355,546,1023,1023,2
83,393,813,836,2
88,151,941,426,2
162,387,1023,121,2
30,19,741,482,2
684,414,42,460,2
460,427,371,694,2
167,630,231,490,2
61,748,1023,1023,2
5,39,64,1023,2
14,204,568,505,2
428,450,887,11,2
86,112,354,338,2
14,341,978,324,2
35,43,1023,1023,2
86,76,286,1023,2
203,85,1023,1023,2
111,176,490,508,2
302,451,1023,1023,2
727,785,239,56,2
75,66,595,370,2
56,37,485,482,2
98,193,495,204,2
179,190,720,109,2
233,81,945,926,2
87,61,623,638,2
264,195,120,180,2
19,150,261,462,2
178,214,1023,1023,2
773,166,1023,1023,2
268,23,1023,1023,2
168,49,491,972,2
177,76,1023,1023,2
273,128,1023,176,2
152,15,659,45,2
19,552,299,1023,2
242,192,748,835,2
567,645,647,976,2
7,519,1023,267,2
467,196,738,178,2
250,323,1023,750,2
23,100,452,118,2
178,19,1023,671,2
21,124,512,773,2
15,13,81,1023,2
34,237,440,445,2
868,448,156,597,2
469,274,999,557,2
458,607,1023,1023,2
287,68,10,919,2
624,427,1023,1023,2
137,77,700,316,2
160,513,1023,1023,2
288,348,1023,1023,2
515,792,1023,1023,2
163,172,1023,1023,2
49,492,1023,1023,2
108,249,613,1023,2
121,318,1023,1023,2
121,231,432,295,2
84,28,342,1023,2
228,267,1023,637,2
540,204,572,298,2
134,186,1023,1023,2
133,393,581,41,2
177,172,1023,1023,2
210,188,1023,552,2
138,132,1023,1023,2
487,620,702,332,2
304,445,1023,359,2
54,247,232,180,2
285,63,240,279,2
65,134,23,843,2
55,57,420,292,2
82,84,215,25,2
232,176,218,1023,2
276,194,275,426,2
74,48,782,986,2
320,132,333,590,2
220,182,1023,1023,2
349,299,716,513,2
129,117,1023,1023,2
363,16,294,262,2
271,441,1023,1023,2
70,369,201,328,2
99,34,861,1023,2
31,60,403,606,2
136,88,79,361,2
104,95,157,411,2
327,314,378,0,2
264,78,809,866,2
1,73,601,819,2
164,140,1010,1023,2
199,189,1023,769,2
94,61,1023,388,2
70,336,1023,959,2
106,22,1023,678,2
13,38,425,552,2
59,252,1023,242,2
43,132,125,735,2
358,400,209,540,2
240,317,91,159,2
143,67,1000,1023,2
17,97,46,352,2
16,129,444,534,2
69,11,280,79,2
20,9,137,356,2
56,143,824,601,2
85,265,1023,697,2
57,172,363,340,2
24,59,356,42,2
246,295,383,885,2
33,14,466,435,2
167,167,88,378,2
27,36,70,240,2
5,92,777,670,2
98,228,166,44,2
107,165,436,436,2
7,26,513,282,2
59,196,12,180,2
202,323,689,460,2
102,42,381,19,2
142,38,228,255,2
29,83,273,197,2
43,24,295,211,2
198,145,110,460,2
55,46,759,1023,2
249,297,213,0,2
48,102,234,9,2
43,231,153,61,2
138,462,209,141,2
149,150,495,480,2
99,365,225,109,2
21,117,136,191,2
102,141,276,441,2
92,138,423,132,2
292,126,386,422,2
226,264,47,64,2
12,73,644,844,2
125,186,282,278,2
20,98,1,453,2
36,37,324,198,2
162,54,22,25,2
298,13,342,347,2
13,320,73,135,2
148,140,435,255,2
41,240,757,613,2
59,258,101,196,2
96,432,378,49,2
47,231,255,29,2
106,267,1,103,2
52,189,19,10,2
117,119,400,327,2
123,211,272,334,2
70,12,559,500,2
6,196,233,673,2
10,41,986,835,2
343,299,198,71,2
95,31,551,618,2
414,504,717,650,2
358,27,54,9,2
90,193,85,129,2
32,177,247,428,2
208,698,136,843,2
95,35,358,604,2
275,49,245,171,2
106,100,490,94,2
89,28,183,121,2
156,299,358,0,2
477,145,310,574,2
3,71,308,27,2
114,102,90,449,2
11,116,415,397,2
108,91,87,333,2
54,228,516,719,2
247,16,254,602,2
158,454,539,161,2
214,481,227,227,2
171,62,527,535,2
6,109,777,464,2
147,130,165,231,2
82,473,788,507,2
117,182,342,524,2
278,69,595,698,2
145,42,773,712,2
43,23,373,5,2
45,209,276,10,2
81,98,615,105,2
228,181,188,697,2
209,604,791,507,2
144,378,16,154,2
116,240,230,298,2
217,574,343,208,2
30,17,40,132,2
91,173,642,512,2
123,170,3,19,2
175,28,576,486,2
80,39,118,160,2
2,75,398,499,2
156,83,217,43,2
288,307,442,488,2
10,123,382,291,2
352,11,75,250,2
123,243,354,89,2
77,56,265,189,2
290,466,593,632,2
223,314,350,277,2
18,203,140,189,2
156,83,72,218,2
56,170,22,751,2
196,141,111,332,2
164,18,580,298,2
77,31,412,177,2
370,59,644,426,2
79,205,76,9,2
19,13,311,106,2
71,130,231,204,2
1,141,167,78,2
101,248,466,629,2
116,31,193,188,2
146,119,210,110,2
75,167,512,619,2
62,237,423,332,2
16,171,509,50,2
13,120,942,1020,2
163,308,477,489,2
92,138,141,4,2
158,174,96,55,2
9,27,178,118,2
20,43,21,31,2
14,319,57,76,2
63,260,223,47,2
95,55,111,12,2
21,27,178,153,2
23,103,13,192,2
81,32,65,260,2
35,101,14,201,2
78,127,884,277,2
96,14,173,361,2
238,488,793,400,2
125,295,358,454,2
0,43,290,176,2
66,57,823,657,2
124,223,245,136,2
43,181,324,4,2
0,127,252,392,2
6,85,249,8,2
105,100,161,236,2
165,91,259,74,2
73,14,180,313,2
121,236,46,40,2
180,371,534,0,2
99,135,322,195,2
56,40,432,347,2
214,227,51,170,2
3,177,261,551,2
66,17,300,502,2
183,295,65,244,2
10,158,198,245,2
40,283,321,292,2
6,64,12,136,2
20,191,285,173,2
143,116,276,175,2
73,312,19,125,2
74,28,3,106,2
5,90,8,334,2
169,117,71,64,2
7,39,180,231,2
121,179,230,51,2
10,110,299,92,2
126,95,648,944,2
127,47,49,272,2
114,125,531,549,2
142,117,490,474,2
96,77,342,347,2
69,205,252,142,2
21,159,19,0,2
122,126,136,215,2
89,67,379,148,2
136,115,192,0,2
23,69,341,148,2
150,138,33,47,2
70,77,140,52,2
7,11,71,112,2
2,23,44,195,2
141,383,44,240,2
421,651,169,90,2
42,140,50,193,2
69,69,309,330,2
64,143,61,100,2
53,54,12,124,2
57,22,497,279,2
152,167,320,426,2
50,54,60,91,2
35,9,2,230,2
23,8,267,11,2
22,23,354,157,2
135,151,619,0,2
58,229,177,414,2
129,257,457,233,2
19,271,733,719,2
160,1023,162,333,2
122,30,380,258,2
36,263,3,270,2
29,30,207,168,2
67,77,239,163,2
117,118,202,60,2
9,13,268,182,2
5,23,227,117,2
12,47,568,576,2
107,81,75,225,2
75,130,493,364,2
172,264,259,495,2
188,74,63,15,2
266,322,507,844,2
143,392,598,10,2
150,160,50,85,2
271,35,923,473,2
242,69,572,483,2
80,52,101,6,2
17,51,741,704,2
124,149,358,943,2
42,82,569,33,2
74,26,132,260,2
145,28,826,489,2
311,339,527,266,2
45,295,258,51,2
308,508,861,501,2
31,462,111,10,2
20,75,200,102,2
48,14,231,287,2
184,175,588,834,2
38,373,488,554,2
113,128,110,5,2
242,21,847,422,2
203,145,1023,680,2
112,63,799,233,2
95,169,574,94,2
102,88,575,586,2
343,65,802,1023,2
131,36,1001,962,2
7,46,46,476,2
217,102,109,873,2
26,12,52,80,2
68,28,949,954,2
496,18,932,804,2
624,483,147,19,2
88,425,484,178,2
324,158,1023,686,2
366,162,168,17,2
23,72,72,219,2
115,138,685,380,2
162,124,526,992,2
182,99,803,655,2
70,123,157,265,2
214,78,1023,568,2
314,437,888,699,2
214,108,391,1023,2
178,54,413,166,2
291,812,112,26,2
91,146,212,675,2
283,115,41,0,2
70,18,1023,1023,2
78,363,158,236,2
112,137,1023,1023,2
243,323,95,416,2
578,166,1023,714,2
102,323,558,114,2
287,9,788,573,2
173,131,1023,158,2
16,390,175,344,2
8,171,159,1023,2
30,339,490,1023,2
730,192,950,1023,2
461,134,529,1023,2
295,399,1023,1023,2
80,359,1023,1023,2
35,243,1023,1023,2
442,686,449,572,2
420,281,791,1023,2
481,391,56,228,2
416,718,121,1023,2
596,291,17,603,2
83,67,833,416,2
14,35,145,349,2
230,442,687,957,2
111,484,42,616,2
93,228,1023,1023,2
113,337,588,787,2
701,392,1023,1023,2
759,310,341,232,2
26,406,291,575,2
77,18,1023,1023,2
160,249,875,235,2
72,71,639,37,2
29,135,498,1023,2
284,115,1023,1023,2
51,319,717,133,2
269,83,40,373,2
244,962,224,967,2
157,7,913,540,2
81,55,1023,1023,2
220,655,1023,1023,2
114,157,392,824,2
226,104,1023,913,2
153,94,672,1023,2
11,302,1023,1023,2
536,324,1023,1023,2
590,179,965,1023,2
554,81,219,824,2
204,532,218,93,2
130,450,17,1023,2
189,27,102,187,2
55,166,108,252,2
55,95,992,321,2
135,113,92,1023,2
313,101,758,1023,2
69,191,1023,108,2
196,272,980,244,2
229,192,1023,60,2
355,143,738,340,2
86,18,823,1023,2
200,358,119,207,2
193,94,1023,1023,2
313,110,165,356,2
399,132,1023,862,2
210,10,51,1023,2
443,592,711,721,2
323,336,1023,1023,2
533,100,958,874,2
362,21,1023,1023,2
189,63,562,863,2
31,143,707,1023,2
171,339,479,704,2
31,116,1023,1023,2
47,123,892,752,2
76,173,989,804,2
12,152,430,791,2
82,194,1023,356,2
80,64,365,1023,2
364,297,475,8,2
233,665,567,296,2
278,595,765,965,2
152,121,878,501,2
77,22,92,21,2
70,242,362,404,2
94,38,684,732,2
301,15,1023,1023,2
219,73,167,306,2
534,27,855,780,2
210,314,1023,1023,2
436,107,99,4,2
60,120,630,729,2
28,189,582,702,2
236,104,860,1023,2
285,424,38,545,2
54,23,1023,1023,2
302,151,1023,221,2
639,328,1023,1023,2
354,199,977,862,2
242,168,1023,1023,2
453,179,823,902,2
133,199,218,588,2
2,252,1023,1023,2
251,243,1023,182,2
83,173,16,317,2
173,194,884,494,2
113,258,210,161,2
84,100,831,355,2
166,121,459,309,2
234,334,305,192,2
172,175,456,414,2
127,79,91,140,2
226,232,125,103,2
24,60,577,433,2
146,233,242,48,2
100,68,477,355,2
175,125,245,47,2
140,99,687,563,2
223,91,344,123,2
44,27,738,758,2
137,358,175,28,2
2,93,394,684,2
155,248,172,252,2
126,113,287,77,2
37,57,232,1023,2
8,32,100,49,2
102,101,648,273,2
8,12,26,199,2
48,53,329,138,2
15,114,455,153,2
244,340,111,86,2
47,45,27,132,2
87,13,215,167,2
181,171,253,211,2
54,161,67,467,2
6,24,66,396,2
37,14,55,148,2
37,9,124,79,2
76,56,354,177,2
80,362,197,150,2
40,88,458,130,2
6,307,297,396,2
95,30,290,346,2
38,235,136,149,2
80,162,430,187,2
131,122,517,285,2
24,116,201,221,2
139,86,816,453,2
34,8,31,187,2
17,114,646,459,2
130,10,424,34,2
74,19,279,564,2
78,233,748,272,2
110,41,97,1023,2
95,124,223,408,2
90,364,245,177,2
19,225,515,176,2
182,347,191,279,2
123,77,595,312,2
39,22,423,371,2
3,118,411,145,2
166,111,163,215,2
73,33,13,0,2
197,75,277,504,2
246,179,803,509,2
132,360,73,298,2
375,479,251,276,2
143,433,54,240,2
346,87,302,624,2
130,500,1,556,2
101,91,69,81,2
103,25,119,0,2
132,220,106,267,2
341,323,657,489,2
97,142,454,111,2
32,47,686,643,2
6,46,921,1023,2
30,73,206,5,2
14,14,342,0,2
15,22,80,487,2
471,68,573,563,2
255,289,164,126,2
337,293,327,702,2
364,399,338,381,2
82,432,441,112,2
358,470,338,137,2
73,243,316,192,2
153,331,934,829,2
29,31,497,404,2
77,14,591,507,2
202,35,295,11,2
140,193,82,249,2
36,106,912,820,2
365,388,101,131,2
182,268,913,898,2
154,56,372,418,2
6,26,539,880,2
8,114,242,1023,2
149,49,457,411,2
57,230,635,17,2
259,390,75,251,2
74,201,685,770,2
167,37,431,330,2
70,128,378,579,2
84,15,154,72,2
100,107,6,27,2
70,221,225,154,2
92,389,249,615,2
345,482,134,367,2
110,132,364,288,2
75,59,28,250,2
5,95,118,0,2
10,62,180,99,2
54,27,9,75,2
0,13,11,191,2
336,94,90,22,2
133,392,197,320,2
37,267,43,180,2
119,175,51,404,2
0,53,97,273,2
54,189,15,143,2
11,100,556,302,2
0,198,442,353,2
186,39,444,642,2
138,206,796,954,2
10,133,755,589,2
262,262,369,201,2
23,190,142,466,2
14,132,431,221,2
138,161,659,534,2
126,78,28,170,2
226,372,9,264,2
252,278,250,407,2
79,223,195,295,2
222,96,112,283,2
157,209,519,306,2
7,102,480,371,2
15,56,236,340,2
14,12,380,617,2
122,276,6,0,2
26,130,123,83,2
91,157,317,147,2
86,177,294,227,2
88,152,277,0,2
100,100,464,281,2
94,155,174,220,2
0,94,497,98,2
224,112,707,56,2
47,38,284,34,2
94,196,1010,1023,2
31,241,558,465,2
266,330,366,211,2
61,7,411,351,2
40,55,285,298,2
46,103,137,185,2
6,137,2,11,2
64,123,58,0,2
79,97,167,70,2
42,46,505,387,2
12,93,48,139,2
40,101,428,397,2
46,71,298,196,2
3,47,138,22,2
7,43,29,322,2
163,237,37,153,2
17,89,210,88,2
12,24,255,110,2
64,148,53,2,2
16,25,178,35,2
304,393,165,145,2
112,146,130,103,2
46,44,27,47,2
31,34,25,24,2
9,308,61,139,2
77,99,436,156,2
161,445,344,37,2
62,94,32,104,2
103,26,594,411,2
123,325,304,332,2
35,257,130,216,2
34,69,40,68,2
176,211,69,25,2
43,115,192,60,2
131,239,209,123,2
106,150,14,0,2
210,349,131,87,2
168,578,123,135,2
48,55,459,327,2
96,438,124,249,2
294,384,310,20,2
397,247,41,205,2
16,11,34,102,2
120,223,28,55,2
63,63,155,36,2
2,64,66,158,2
187,257,132,101,2
16,42,511,143,2
169,187,41,178,2
92,198,87,177,2
79,116,127,0,2
10,134,16,92,2
112,103,16,21,2
19,138,3,78,2
53,226,1,156,2
80,17,470,349,2
165,216,112,365,2
29,244,85,2,2
52,120,396,442,2
256,365,635,165,2
145,123,149,138,2
25,161,304,30,2
174,103,494,257,2
24,100,46,219,2
23,37,469,214,2
134,177,48,180,2
88,133,229,114,2
280,390,81,37,2
2,18,196,65,2
39,73,315,491,2
61,24,29,81,2
142,131,211,314,2
246,63,12,278,2
132,75,131,283,2
43,65,334,61,2
16,82,95,90,2
61,68,131,30,2
50,167,434,229,2
128,97,421,370,2
2,33,204,602,2
9,82,608,569,2
263,234,472,748,2
6,90,429,257,2
78,43,373,295,2
11,159,6,68,2
59,244,208,139,2
29,70,52,63,2
101,7,446,402,2
82,67,31,0,2
99,368,1023,1023,2
145,9,740,207,2
255,336,929,485,2
59,270,711,111,2
102,36,116,170,2
190,306,1023,327,2
235,370,29,503,2
78,51,794,909,2
266,217,555,949,2
359,49,4,321,2
229,417,62,322,2
108,34,666,474,2
401,366,58,32,2
123,197,423,522,2
237,173,414,1023,2
416,166,294,1023,2
608,311,257,481,2
480,303,176,501,2
160,179,166,176,2
64,48,1023,821,2
124,136,281,51,2
125,108,1023,12,2
364,123,621,1023,2
489,254,1023,736,2
17,164,253,375,2
10,338,735,233,2
80,11,728,722,2
31,45,637,1023,2
12,107,1023,1023,2
234,133,352,1023,2
167,92,310,25,2
149,270,1023,1023,2
464,9,566,162,2
41,339,593,0,2
503,354,984,722,2
232,298,810,1023,2
260,6,1023,1023,2
58,65,1023,32,2
174,113,1023,1023,2
775,880,536,278,2
48,254,1023,1023,2
163,278,504,104,2
69,74,1023,1023,2
68,119,458,554,2
180,54,1023,1023,2
33,331,203,182,2
497,17,453,782,2
18,483,307,679,2
517,750,327,433,2
20,301,1023,904,2
23,75,848,1023,2
223,645,450,1023,2
261,124,332,1023,2
121,113,129,702,2
261,296,1023,1023,2
270,30,314,1023,2
162,23,1023,204,2
32,251,250,834,2
284,32,309,114,2
111,322,270,159,2
221,274,1023,820,2
23,121,752,324,2
362,24,341,1023,2
850,466,1023,1023,2
382,9,1023,1023,2
81,107,956,1023,2
10,231,610,151,2
166,110,783,164,2
136,151,73,598,2
78,304,468,9,2
241,218,1023,25,2
220,585,52,988,2
470,717,330,647,2
873,36,775,1023,2
29,650,968,1023,2
1023,240,50,167,2
528,22,482,412,2
52,63,218,741,2
121,434,1023,1023,2
585,324,423,66,2
24,67,1023,1023,2
690,315,245,710,2
347,1021,1023,873,2
701,9,398,87,2
436,1023,929,1023,2
230,72,573,129,2
8,12,42,121,2
318,301,1010,1023,2
207,204,119,1023,2
179,213,960,449,2
24,93,984,551,2
124,664,566,618,2
16,243,1020,1023,2
160,39,1023,1023,2
201,167,994,1023,2
291,154,1023,864,2
204,205,1023,432,2
779,575,357,788,2
363,102,161,437,2
289,557,825,495,2
19,279,649,1023,2
295,94,952,406,2
417,276,327,690,2
1,529,594,646,2
123,166,52,533,2
594,288,1023,1023,2
390,405,103,618,2
530,767,758,327,2
341,56,208,348,2
70,312,274,398,2
619,84,271,441,2
369,122,1023,1023,2
141,263,1023,1023,2
134,31,979,716,2
56,33,1023,1023,2
261,280,158,249,2
180,46,1023,1023,2
227,62,1023,1023,2
494,276,1023,851,2
132,157,1023,402,2
17,343,1012,1023,2
225,155,1023,1023,2
292,313,902,169,2
253,308,727,219,2
698,326,325,352,2
461,585,42,27,2
224,214,343,517,2
145,46,81,161,2
148,238,996,1023,2
7,179,780,638,2
70,10,667,683,2
218,185,108,111,2
199,16,377,403,2
30,81,786,31,2
60,173,138,833,2
45,231,633,30,2
369,167,296,1023,2
121,269,94,64,2
46,128,21,396,2
241,94,459,65,2
31,127,17,347,2
27,335,1023,4,2
104,259,59,1023,2
14,50,604,65,2
211,255,1023,1023,2
134,41,54,155,2
143,16,273,110,2
291,486,471,319,2
93,297,387,404,2
38,30,59,518,2
36,50,613,157,2
48,128,207,106,2
52,92,152,284,2
182,105,185,19,2
233,366,150,140,2
201,163,1023,484,2
90,36,316,135,2
541,596,1023,339,2
280,167,83,402,2
302,376,866,289,2
5,82,230,450,2
60,314,1023,782,2
110,112,668,257,2
225,52,40,243,2
104,143,466,689,2
57,98,445,278,2
55,7,576,106,2
90,115,392,229,2
226,431,459,489,2
278,537,721,418,2
241,362,2,165,2
143,240,439,472,2
190,176,99,230,2
9,296,239,7,2
39,52,23,389,2
237,182,196,536,2
41,93,269,301,2
221,251,438,124,2
43,72,269,72,2
47,78,457,252,2
22,62,506,708,2
251,184,632,540,2
72,98,28,164,2
381,174,276,239,2
1,132,44,109,2
146,37,712,509,2
243,357,367,69,2
46,264,566,258,2
58,144,423,376,2
20,157,339,146,2
21,232,236,77,2
56,251,382,153,2
302,123,67,113,2
12,94,403,433,2
23,49,282,156,2
158,188,236,624,2
1,7,770,229,2
278,347,412,307,2
93,212,26,81,2
31,59,527,899,2
258,210,719,1023,2
199,192,547,437,2
133,289,154,282,2
132,456,128,660,2
113,195,961,670,2
30,15,51,580,2
91,64,1023,1023,2
172,186,368,165,2
66,77,1023,849,2
198,134,198,539,2
35,290,1023,889,2
333,148,368,398,2
172,375,147,429,2
106,65,160,48,2
259,702,315,421,2
60,404,377,376,2
150,7,241,104,2
32,17,208,44,2
316,515,613,266,2
144,69,652,1023,2
221,526,860,79,2
103,83,730,1023,2
411,366,520,180,2
154,80,464,453,2
59,303,73,53,2
233,8,526,500,2
91,381,545,433,2
81,33,52,31,2
80,87,295,477,2
0,547,303,101,2
351,706,286,982,2
148,65,21,299,2
60,113,320,485,2
14,51,126,372,2
103,231,131,262,2
112,82,821,399,2
259,184,114,16,2
88,170,594,265,2
94,38,286,370,2
418,409,101,255,2
215,270,254,279,2
115,162,400,534,2
1,73,439,138,2
251,701,547,1023,2
4,40,293,332,2
119,315,516,418,2
155,35,63,21,2
88,287,333,510,2
3,129,289,435,2
320,317,486,129,2
69,174,285,723,2
203,367,229,0,2
2,149,265,285,2
45,31,668,617,2
348,217,81,70,2
220,23,612,664,2
270,223,598,326,2
180,262,31,392,2
161,226,332,140,2
85,303,37,66,2
78,196,198,635,2
341,672,617,320,2
390,54,374,243,2
227,204,996,860,2
123,177,83,296,2
187,364,560,695,2
70,9,270,70,2
123,189,68,47,2
56,94,59,0,2
82,115,43,62,2
96,27,425,425,2
3,84,327,323,2
227,133,142,728,2
251,156,669,99,2
308,341,947,789,2
217,267,647,0,2
42,229,262,439,2
61,192,81,289,2
406,554,27,22,2
79,109,51,273,2
60,80,83,0,2
74,94,119,107,2
109,116,150,142,2
231,259,303,220,2
169,116,167,290,2
16,46,78,35,2
161,318,371,321,2
61,137,46,173,2
77,156,652,543,2
321,378,403,713,2
116,77,459,122,2
65,15,3,119,2
236,274,321,311,2
401,141,316,427,2
21,39,75,102,2
36,116,113,156,2
73,94,211,259,2
41,202,130,195,2
35,24,268,85,2
128,87,329,62,2
21,63,104,163,2
235,339,491,241,2
49,63,38,40,2
81,93,65,169,2
6,53,265,182,2
9,64,217,134,2
8,152,227,149,2
41,280,260,235,2
52,178,99,130,2
71,190,53,278,2
28,19,36,164,2
124,148,378,265,2
154,29,56,0,2
137,83,324,156,2
77,104,460,228,2
257,73,184,36,2
53,72,235,218,2
65,19,36,137,2
183,156,209,117,2
168,127,9,30,2
35,52,169,75,2
159,205,29,66,2
16,84,161,180,2
60,77,422,0,2
30,267,844,1023,2
141,115,477,91,2
106,69,896,640,2
334,636,775,1023,2
25,110,201,5,2
4,14,597,675,2
313,389,194,381,2
133,108,79,173,2
22,32,303,392,2
47,41,57,19,2
47,23,6,0,2
11,27,575,579,2
5,33,79,213,2
176,254,195,48,2
153,196,350,377,2
148,244,105,220,2
12,66,322,92,2
554,661,348,458,2
271,456,52,50,2
21,19,212,213,2
13,107,294,67,2
161,141,236,21,2
7,45,47,0,2
41,18,137,93,2
4,94,145,67,2
78,226,117,43,2
98,115,252,364,2
28,171,288,300,2
7,184,87,260,2
3,5,442,395,2
22,55,601,311,2
178,45,10,64,2
365,558,690,638,2
29,373,89,68,2
174,682,267,5,2
106,138,385,280,2
40,284,486,305,2
169,160,289,19,2
64,241,774,851,2
53,133,157,151,2
31,100,173,321,2
38,25,326,540,2
60,24,182,21,2
145,240,279,15,2
42,52,9,14,2
135,145,436,276,2
235,182,429,254,2
7,115,401,301,2
88,214,466,306,2
136,86,168,127,2
60,114,228,69,2
30,86,426,389,2
209,564,70,364,2
2,95,570,402,2
144,197,38,135,2
0,167,3,313,2
53,76,773,840,2
31,131,290,157,2
9,53,381,65,2
49,67,580,583,2
6,73,1023,799,2
159,127,453,504,2
393,270,55,262,2
219,74,757,112,2
86,78,95,74,2
150,91,241,184,2
149,311,532,485,2
143,103,307,154,2
60,308,390,703,2
2,68,375,189,2
528,29,640,923,2
6,8,107,104,2
277,401,1023,1018,2
330,258,237,376,2
392,117,632,686,2
103,319,513,98,2
468,456,79,977,2
331,272,360,190,2
12,73,18,266,2
60,274,949,871,2
0,75,243,412,2
10,159,35,420,2
201,179,950,1023,2
131,8,43,356,2
380,136,668,1023,2
266,15,118,46,2
411,55,609,773,2
112,233,122,1023,2
604,321,191,1023,2
732,441,867,125,2
1023,830,1023,568,2
260,295,991,84,2
8,519,133,802,2
282,82,1023,1023,2
233,47,640,103,2
787,907,961,364,2
229,960,546,665,2
1023,337,38,291,2
160,244,830,103,2
178,271,747,434,2
28,13,473,491,2
528,321,210,1023,2
155,430,1023,1023,2
203,350,202,690,2
100,301,1023,1023,2
339,616,583,331,2
612,31,871,1023,2
36,183,1023,1023,2
630,268,1023,1023,2
1023,1023,42,439,2
381,292,726,1023,2
18,270,550,50,2
337,126,814,755,2
125,108,890,802,2
185,195,641,613,2
27,306,524,218,2
183,320,346,21,2
230,150,898,1023,2
541,690,917,1023,2
46,174,90,900,2
66,154,293,626,2
22,98,357,31,2
293,134,54,789,2
879,9,868,179,2
211,249,190,1023,2
9,488,150,122,2
244,122,919,1023,2
421,13,924,1023,2
500,7,579,1023,2
1023,398,134,367,2
19,542,1023,1023,2
130,282,317,1023,2
251,153,1010,1023,2
754,484,611,837,2
335,638,987,1023,2
376,132,957,1023,2
769,242,110,731,2
81,356,376,880,2
23,608,822,1023,2
416,103,231,355,2
169,429,1023,974,2
180,138,584,1023,2
4,133,520,697,2
320,405,526,378,2
119,60,446,94,2
758,788,414,1023,2
272,471,859,209,2
234,121,106,165,2
47,641,1023,865,2
94,200,891,611,2
140,563,932,1023,2
369,370,1023,766,2
25,459,474,132,2
532,293,364,214,2
133,393,329,750,2
94,163,247,202,2
26,209,1023,1023,2
245,68,1023,1023,2
208,268,605,861,2
257,388,279,443,2
44,636,1023,1023,2
113,152,93,724,2
92,179,1023,669,2
222,206,216,719,2
82,449,466,250,2
722,902,246,650,2
46,179,290,31,2
401,300,77,800,2
34,76,98,687,2
71,33,637,1023,2
124,176,566,137,2
261,351,306,827,2
69,118,46,1023,2
198,137,325,584,2
33,189,111,1023,2
137,33,168,23,2
206,255,298,1023,2
130,552,492,273,2
149,263,391,256,2
37,198,707,488,2
350,56,150,170,2
370,257,215,1023,2
46,69,717,928,2
62,71,138,15,2
247,235,1023,969,2
471,309,469,319,2
351,246,313,234,2
61,223,8,201,2
159,53,541,702,2
130,121,174,93,2
233,244,854,858,2
171,232,56,51,2
118,117,724,713,2
94,256,363,283,2
176,151,117,9,2
42,191,766,827,2
225,638,621,493,2
53,86,11,64,2
84,44,982,669,2
195,347,325,449,2
56,55,442,162,2
147,115,344,373,2
344,102,381,20,2
325,74,528,588,2
171,60,522,114,2
29,22,1023,1023,2
75,18,305,305,2
230,316,570,711,2
72,175,88,636,2
19,163,14,107,2
266,689,315,976,2
56,23,344,597,2
100,223,87,37,2
111,239,113,18,2
116,170,321,177,2
83,91,609,642,2
184,91,1023,474,2
106,53,502,365,2
17,103,889,498,2
350,311,423,482,2
17,121,580,864,2
67,56,111,190,2
189,152,111,182,2
45,273,70,589,2
267,317,44,13,2
61,168,299,37,2
327,367,262,489,2
27,29,759,357,2
92,95,166,535,2
135,140,122,50,2
81,143,312,320,2
144,13,54,222,2
46,95,249,170,2
113,17,385,23,2
166,201,208,722,2
158,20,204,378,2
278,43,17,112,2
66,23,252,67,2
12,211,299,153,2
51,150,130,274,2
75,50,190,135,2
260,219,50,136,2
295,224,32,44,2
310,311,143,13,2
25,56,82,35,2
103,270,20,93,2
50,59,266,200,2
251,184,566,371,2
96,39,191,95,2
131,10,320,90,2
99,176,344,717,2
126,92,10,25,2
122,454,15,129,2
97,319,234,81,2
308,315,9,806,2
42,42,286,22,2
230,13,1023,1023,2
280,247,343,426,2
98,254,653,1023,2
308,112,323,560,2
103,107,206,117,2
113,122,126,233,2
105,52,319,134,2
104,87,301,321,2
248,207,416,64,2
130,181,292,42,2
191,488,111,28,2
173,289,25,362,2
200,252,560,1023,2
241,168,442,242,2
18,80,91,223,2
185,206,140,159,2
367,101,148,8,2
206,145,88,412,2
35,128,26,16,2
267,158,113,32,2
189,135,826,1023,2
6,23,18,8,2
147,24,945,724,2
0,67,98,542,2
46,167,396,32,2
165,413,419,392,2
2,19,480,427,2
47,81,262,592,2
442,75,461,292,2
263,343,277,709,2
5,21,599,225,2
332,509,113,11,2
42,108,215,599,2
379,56,225,428,2
123,22,292,223,2
114,90,24,1,2
53,17,92,95,2
178,334,597,321,2
59,58,345,233,2
291,473,732,545,2
7,166,494,234,2
324,326,403,656,2
5,230,147,547,2
115,299,185,721,2
115,41,732,689,2
8,128,113,24,2
332,281,430,489,2
153,143,9,177,2
73,14,137,263,2
4,145,429,542,2
113,193,114,56,2
219,261,96,81,2
76,418,56,2,2
32,60,344,38,2
217,258,969,724,2
337,11,238,135,2
219,103,1023,1023,2
186,23,782,788,2
11,87,499,534,2
447,679,563,342,2
170,82,1023,732,2
351,252,57,221,2
125,72,1023,422,2
283,372,669,521,2
230,69,579,420,2
389,478,283,19,2
236,458,262,26,2
43,153,396,361,2
17,154,228,247,2
247,16,254,287,2
78,154,39,177,2
10,77,103,83,2
61,10,312,401,2
48,253,228,66,2
7,29,8,0,2
91,214,323,310,2
162,28,308,116,2
201,79,13,69,2
88,54,300,94,2
189,154,12,46,2
62,102,15,108,2
0,153,184,11,2
32,202,216,253,2
9,168,55,140,2
8,193,471,438,2
93,242,172,202,2
50,105,122,8,2
109,244,123,147,2
74,375,632,214,2
36,17,20,375,2
66,181,409,301,2
208,154,227,77,2
237,232,146,153,2
116,52,255,121,2
183,300,367,33,2
87,148,120,9,2
33,102,582,409,2
10,7,267,95,2
163,267,168,0,2
155,371,369,301,2
219,173,230,386,2
138,369,10,283,2
38,48,103,3,2
41,214,939,493,2
234,417,13,236,2
73,161,589,246,2
99,165,542,804,2
25,115,100,281,2
34,96,447,227,2
132,182,74,71,2
110,110,125,285,2
23,15,156,178,2
75,75,199,160,2
14,32,134,235,2
55,103,112,182,2
120,81,184,125,2
64,40,21,26,2
102,275,117,131,2
76,120,383,470,2
7,88,118,367,2
200,373,113,187,2
0,85,459,250,2
41,56,116,285,2
40,26,215,203,2
26,106,222,41,2
59,8,126,20,2
33,51,19,192,2
78,208,483,425,2
58,168,51,14,2
116,110,153,77,2
103,137,436,143,2
15,138,162,120,2
122,80,292,28,2
107,140,12,64,2
320,373,340,18,2
230,331,22,15,2
250,186,275,405,2
255,191,537,49,2
170,32,176,60,2
2,104,85,108,2
231,181,371,436,2
9,20,500,329,2
95,11,6,13,2
179,156,586,351,2
112,135,557,334,2
5,176,464,107,2
206,220,405,581,2
199,233,90,177,2
106,118,316,481,2
58,150,553,830,2
94,55,23,326,2
139,29,782,1002,2
28,68,214,170,2
232,220,13,93,2
34,168,628,16,2
40,209,300,378,2
42,246,302,137,2
284,406,272,802,2
305,209,582,1023,2
111,94,546,479,2
135,33,653,496,2
140,164,432,231,2
249,156,143,179,2
15,317,520,162,2
11,190,672,157,2
170,326,1023,401,2
200,267,502,1023,2
352,57,462,537,2
83,17,701,654,2
55,426,34,771,2
2,57,508,47,2
296,119,47,698,2
262,104,226,477,2
227,35,396,464,2
365,321,838,1023,2
314,404,1023,1023,2
365,144,8,224,2
81,67,188,180,2
314,677,1012,518,2
238,375,657,1023,2
367,444,594,612,2
246,279,742,1023,2
133,152,114,491,2
112,308,475,254,2
129,281,28,118,2
28,73,587,1023,2
19,59,294,121,2
407,349,457,135,2
184,313,1023,697,2
575,141,806,767,2
175,32,1023,1023,2
705,360,438,1023,2
464,303,576,230,2
483,476,213,765,2
365,193,369,1023,2
9,172,371,140,2
432,88,1023,1023,2
557,410,484,770,2
190,700,492,812,2
393,491,757,528,2
436,373,1023,608,2
304,359,589,458,2
427,368,51,1023,2
460,536,124,92,2
34,262,272,973,2
89,256,875,1023,2
196,10,1015,39,2
0,287,861,1023,2
250,381,956,319,2
71,92,116,1023,2
409,477,697,105,2
89,80,527,567,2
339,599,874,1023,2
320,786,148,402,2
616,249,1023,1015,2
968,680,458,271,2
132,219,1023,1023,2
661,133,1023,766,2
143,32,1023,978,2
210,341,1023,436,2
151,238,1023,776,2
133,96,758,1023,2
83,61,830,124,2
4,506,23,221,2
26,67,1023,1023,2
119,74,512,978,2
509,232,628,1023,2
526,48,832,289,2
486,691,1023,1023,2
177,145,85,518,2
743,324,377,956,2
101,314,1023,1023,2
967,465,275,467,2
583,40,1023,484,2
319,13,389,782,2
493,310,33,190,2
292,360,34,373,2
431,757,251,1023,2
207,7,904,325,2
524,343,28,236,2
47,66,425,436,2
533,23,1008,485,2
317,396,591,836,2
147,446,780,743,2
701,316,231,238,2
216,248,1023,1020,2
330,88,654,1023,2
235,1018,53,862,2
116,136,138,239,2
44,668,1023,1023,2
144,643,211,671,2
222,673,1023,812,2
399,308,76,893,2
330,291,329,235,2
38,169,817,927,2
165,158,414,327,3
770,511,686,458,3
445,11,807,852,3
320,70,526,143,3
73,29,466,1023,3
124,226,111,190,3
134,138,372,505,3
252,93,237,48,3
167,13,837,1023,3
304,82,133,1023,3
197,350,401,1023,3
210,243,916,414,3
115,30,873,1023,3
119,162,221,358,3
22,551,508,55,3
238,145,419,588,3
327,256,126,813,3
13,298,599,1023,3
148,179,190,344,3
404,626,527,808,3
132,96,448,454,3
556,461,898,142,3
376,10,744,899,3
79,63,1023,475,3
172,346,204,280,3
65,68,1015,770,3
46,448,605,989,3
99,106,670,677,3
318,340,902,385,3
407,129,1023,1023,3
33,22,1023,1023,3
257,233,1023,1023,3
473,817,1023,1023,3
215,536,319,301,3
168,328,1023,689,3
257,356,411,461,3
180,41,1023,1023,3
132,64,1023,1023,3
406,281,588,203,3
53,375,974,790,3
30,306,76,593,3
35,10,152,185,3
415,315,731,96,3
263,22,458,146,3
141,124,32,257,3
54,39,100,460,3
242,291,403,283,3
130,165,583,363,3
72,53,91,76,3
31,69,96,147,3
67,87,38,457,3
48,229,750,1023,3
333,211,482,337,3
46,227,882,845,3
1,22,321,264,3
31,70,715,284,3
94,138,767,10,3
261,149,18,16,3
42,74,246,277,3
46,84,98,336,3
74,117,154,121,3
6,144,119,1023,3
231,218,108,287,3
320,400,2,303,3
223,62,209,42,3
156,433,82,275,3
34,87,681,391,3
64,146,578,340,3
320,15,736,553,3
141,13,885,670,3
82,77,570,229,3
63,29,448,668,3
103,109,372,271,3
252,355,35,162,3
252,274,461,1023,3
198,153,246,967,3
44,109,414,600,3
26,135,94,364,3
194,206,217,264,3
46,43,230,606,3
63,180,213,432,3
80,79,19,287,3
90,118,694,670,3
62,38,199,86,3
8,105,23,135,3
442,368,188,11,3
103,170,6,17,3
7,14,238,266,3
193,255,382,758,3
129,142,85,718,3
60,37,54,42,3
191,287,341,230,3
270,99,432,548,3
302,380,770,837,3
172,79,206,380,3
257,102,926,810,3
125,265,350,559,3
162,116,160,173,3
77,76,781,853,3
191,219,230,1000,3
89,171,882,573,3
64,125,334,139,3
118,51,148,310,3
133,76,302,191,3
22,78,68,134,3
87,93,298,349,3
225,166,336,187,3
78,265,56,262,3
90,102,135,207,3
209,376,55,355,3
165,538,433,15,3
30,510,140,217,3
153,159,90,98,3
277,70,7,254,3
50,37,467,38,3
101,165,61,96,3
110,118,226,523,3
65,360,249,927,3
197,45,451,682,3
147,34,301,356,3
14,8,125,278,3
95,80,69,134,3
80,81,179,76,3
16,142,129,198,3
135,140,583,495,3
247,204,563,919,3
92,277,84,94,3
84,48,107,433,3
85,101,62,285,3
293,416,215,483,3
71,16,635,106,3
107,293,102,921,3
15,21,653,631,3
68,50,594,527,3
108,100,557,465,3
463,92,120,68,3
89,139,229,281,3
49,27,283,347,3
260,895,349,714,3
216,14,451,816,3
86,142,153,191,3
57,260,137,465,3
485,499,306,136,3
277,90,97,532,3
71,93,258,373,3
239,52,177,637,3
2,46,612,436,3
0,40,29,81,3
28,87,526,490,3
86,17,127,45,3
29,69,54,236,3
102,107,647,551,3
109,244,110,24,3
167,544,481,33,3
19,352,80,387,3
243,73,320,495,3
79,287,105,623,3
39,263,253,455,3
70,67,143,62,3
47,335,152,755,3
75,199,394,319,3
212,107,194,292,3
72,38,106,199,3
56,206,260,228,3
109,279,347,361,3
26,423,572,471,3
130,19,186,342,3
82,85,49,98,3
95,341,293,378,3
95,17,479,408,3
29,301,346,824,3
162,263,419,657,3
5,14,344,447,3
206,119,223,74,3
74,138,14,51,3
1,23,397,401,3
117,118,222,101,3
108,193,245,62,3
3,47,81,19,3
18,6,13,243,3
90,34,35,171,3
1,27,12,148,3
78,105,210,114,3
224,10,55,126,3
91,286,11,58,3
30,259,337,570,3
42,89,22,9,3
54,62,117,8,3
85,157,60,493,3
217,312,129,75,3
148,247,255,60,3
46,106,283,114,3
44,157,22,18,3
121,82,76,13,3
20,7,50,118,3
2,72,66,118,3
34,20,128,96,3
51,72,254,121,3
253,285,101,93,3
159,131,120,15,3
311,262,373,371,3
210,67,100,126,3
19,71,516,580,3
173,168,518,383,3
52,336,117,143,3
41,44,189,20,3
248,335,170,0,3
54,197,293,330,3
7,300,86,157,3
5,87,96,77,3
196,210,273,15,3
43,16,133,24,3
152,153,231,120,3
5,55,276,428,3
191,252,72,26,3
317,465,127,67,3
76,148,24,173,3
46,146,176,83,3
112,327,346,305,3
69,140,72,69,3
110,102,162,315,3
116,72,258,139,3
155,137,698,288,3
361,244,201,353,3
52,177,225,42,3
97,233,380,335,3
10,67,122,67,3
165,60,62,208,3
56,23,166,45,3
20,37,72,144,3
79,28,189,6,3
93,129,28,16,3
49,39,188,103,3
100,391,161,171,3
260,483,620,331,3
75,242,69,43,3
23,250,325,50,3
231,140,125,8,3
10,48,189,36,3
51,56,39,318,3
67,47,222,0,3
34,75,201,181,3
162,174,49,22,3
125,139,112,0,3
178,11,166,53,3
131,208,24,357,3
151,101,266,267,3
25,28,77,36,3
57,40,2,398,3
204,18,109,110,3
131,25,23,184,3
45,50,71,317,3
231,357,138,151,3
87,24,27,55,3
44,57,243,356,3
3,55,25,25,3
61,130,266,201,3
71,98,115,60,3
28,21,786,510,3
47,111,221,71,3
198,143,138,84,3
39,81,946,676,3
177,120,77,81,3
29,89,619,767,3
170,309,652,438,3
244,274,340,331,3
128,250,611,566,3
39,27,359,363,3
6,153,346,309,3
18,360,777,310,3
74,87,580,559,3
108,113,475,245,3
10,183,608,955,3
157,398,54,75,3
188,118,404,287,3
222,192,161,595,3
181,166,128,255,3
61,130,853,496,3
203,146,541,633,3
316,722,1023,59,3
47,127,951,1023,3
267,897,20,340,3
196,75,920,881,3
324,495,485,192,3
166,85,241,489,3
284,45,638,1023,3
248,199,407,411,3
265,98,28,505,3
293,251,245,95,3
234,538,531,1023,3
182,267,18,650,3
65,179,885,543,3
710,560,437,233,3
162,105,254,637,3
485,397,806,1023,3
271,246,687,267,3
113,13,1023,741,3
526,373,886,418,3
12,250,949,404,3
679,203,464,21,3
331,20,221,164,3
51,23,211,354,3
231,245,1023,212,3
243,275,415,1023,3
296,177,636,169,3
148,116,1023,1002,3
241,9,490,562,3
302,143,623,178,3
94,199,45,11,3
75,358,474,301,3
537,147,303,732,3
66,209,1023,1023,3
609,63,646,1023,3
212,44,1023,647,3
628,325,917,169,3
340,55,884,136,3
570,161,297,433,3
88,120,1023,235,3
137,159,856,452,3
30,416,1023,1023,3
6,114,426,396,3
156,174,1023,1023,3
187,80,1023,1023,3
130,356,497,1023,3
215,219,1023,608,3
677,614,1023,766,3
248,209,559,1023,3
85,702,1023,1023,3
273,15,1023,770,3
92,247,943,107,3
181,310,409,921,3
249,147,30,117,3
95,409,242,60,3
124,59,255,1023,3
161,243,514,947,3
37,111,1023,1023,3
299,50,399,675,3
183,247,1023,1023,3
1021,345,589,1023,3
448,523,1023,1023,3
257,285,88,952,3
808,366,1023,1023,3
12,21,149,239,3
81,181,541,238,3
478,1023,15,1023,3
135,530,958,1023,3
284,241,1023,1023,3
183,140,547,193,3
412,448,1023,455,3
305,759,285,650,3
73,309,115,91,3
416,222,134,858,3
138,236,1004,143,3
417,16,314,156,3
99,345,1023,644,3
25,27,504,712,3
27,165,1023,526,3
458,175,892,118,3
456,338,37,322,3
683,885,551,1023,3
271,73,540,250,3
318,116,1023,1023,3
173,237,512,1023,3
173,12,795,549,3
166,740,173,582,3
155,339,525,321,3
12,584,12,1023,3
305,276,755,1023,3
22,278,163,625,3
173,348,67,312,3
88,244,13,1023,3
324,798,27,1023,3
95,586,1023,1023,3
131,724,150,191,3
291,156,1023,683,3
355,753,515,1023,3
103,96,1000,1023,3
86,394,631,439,3
205,623,698,304,3
396,735,271,1023,3
290,828,303,1023,3
7,301,410,513,3
86,7,510,59,3
144,180,147,756,3
133,211,756,142,3
52,141,109,604,3
536,20,695,537,3
259,373,600,699,3
324,52,666,1023,3
56,7,97,330,3
105,90,20,174,3
188,211,1023,1023,3
211,576,1023,1023,3
50,332,1011,1023,3
332,474,766,1023,3
341,365,1023,681,3
122,208,554,561,3
36,22,794,1023,3
921,552,447,291,3
292,110,46,238,3
118,10,1023,351,3
5,64,290,1023,3
43,45,1023,886,3
26,424,1001,1023,3
93,376,1023,1023,3
29,233,420,1023,3
313,274,1023,1023,3
377,355,475,1023,3
36,39,1023,1023,3
20,54,86,958,3
8,127,337,981,3
411,335,819,589,3
254,298,1023,771,3
274,217,1023,1023,3
15,173,520,450,3
74,145,793,1017,3
5,236,251,283,3
228,129,129,73,3
136,147,397,159,3
22,255,58,622,3
279,356,1023,1023,3
198,467,712,7,3
35,238,1023,1023,3
51,103,802,854,3
46,216,1023,1023,3
32,164,148,23,3
46,139,833,734,3
111,248,413,937,3
4,125,158,56,3
119,33,618,853,3
160,144,308,589,3
21,40,627,407,3
119,58,446,534,3
74,104,507,175,3
111,197,32,91,3
31,189,92,33,3
421,281,425,171,3
239,481,286,226,3
94,119,496,434,3
270,351,352,0,3
137,62,662,778,3
35,210,310,573,3
63,125,215,89,3
13,37,8,708,3
0,141,256,389,3
165,118,85,18,3
275,212,138,89,3
99,129,109,61,3
205,213,124,93,3
148,210,258,196,3
158,299,262,346,3
175,405,29,214,3
107,374,124,515,3
82,39,35,201,3
121,36,62,17,3
1,287,712,815,3
119,25,241,69,3
2,65,719,285,3
177,89,1,0,3
98,144,22,96,3
181,115,247,55,3
187,127,464,358,3
38,22,30,66,3
38,39,128,585,3
255,161,174,0,3
188,101,159,522,3
137,28,528,196,3
16,31,49,85,3
176,71,645,249,3
66,331,440,230,3
1,49,531,339,3
214,152,742,282,3
88,158,168,233,3
147,29,352,207,3
128,81,112,52,3
135,224,392,488,3
150,6,303,302,3
277,267,306,99,3
126,113,91,196,3
30,78,435,261,3
28,199,198,13,3
101,22,485,676,3
104,243,244,315,3
115,338,158,526,3
144,96,156,403,3
201,595,271,244,3
90,20,85,355,3
199,190,265,17,3
33,9,245,222,3
84,52,640,576,3
387,143,188,99,3
383,197,131,133,3
427,187,121,259,3
144,137,351,224,3
267,7,1023,665,3
6,41,401,58,3
131,87,777,595,3
180,277,472,28,3
302,214,14,47,3
25,49,330,16,3
175,191,527,502,3
240,177,168,9,3
164,29,351,213,3
382,335,261,211,3
70,58,44,178,3
295,380,169,107,3
103,437,216,30,3
27,387,67,169,3
249,428,144,142,3
288,258,213,287,3
47,121,403,374,3
59,150,81,185,3
88,325,355,244,3
114,151,77,176,3
59,19,84,332,3
52,29,339,378,3
6,46,70,426,3
50,181,1023,656,3
264,220,308,723,3
433,201,904,458,3
193,305,570,661,3
99,115,371,545,3
194,156,95,314,3
40,27,527,597,3
191,323,714,236,3
17,411,384,166,3
116,186,741,425,3
300,646,161,469,3
40,133,29,282,3
342,264,408,388,3
112,29,614,89,3
59,25,377,202,3
252,605,409,263,3
141,177,554,487,3
1,58,874,649,3
158,40,724,479,3
7,27,657,363,3
152,191,85,198,3
333,145,881,835,3
77,574,89,377,3
60,19,1023,1023,3
77,98,367,553,3
152,116,568,470,3
184,134,722,940,3
265,139,166,433,3
49,312,91,653,3
304,53,522,526,3
182,332,604,337,3
89,107,167,292,3
144,144,33,196,3
333,406,437,254,3
102,30,156,570,3
96,162,506,524,3
447,123,176,201,3
81,80,34,103,3
0,68,360,527,3
46,67,506,35,3
116,28,223,179,3
73,97,279,756,3
122,113,150,9,3
123,101,812,506,3
151,214,461,774,3
113,6,115,101,3
45,179,296,362,3
109,268,170,77,3
420,457,180,108,3
49,112,223,221,3
148,106,1,137,3
5,223,354,414,3
268,269,131,0,3
60,245,114,288,3
136,315,174,112,3
23,172,65,138,3
17,79,355,304,3
262,387,316,338,3
213,362,420,909,3
120,172,310,33,3
132,58,79,50,3
19,38,293,146,3
32,19,135,56,3
126,218,28,146,3
10,152,9,55,3
50,74,86,81,3
163,146,206,209,3
81,40,98,235,3
82,131,194,83,3
193,95,126,313,3
375,199,43,134,3
49,11,177,120,3
61,249,289,436,3
96,100,150,88,3
4,66,353,133,3
265,306,664,779,3
18,150,204,23,3
89,88,253,187,3
258,376,44,0,3
72,104,159,247,3
94,156,80,20,3
45,52,165,146,3
98,143,2,74,3
47,64,25,2,3
53,5,122,152,3
100,62,39,101,3
2,50,50,59,3
56,7,201,77,3
221,465,188,72,3
168,53,106,52,3
20,67,29,61,3
83,140,3,92,3
43,254,51,38,3
9,132,205,204,3
77,16,366,302,3
71,277,525,534,3
120,252,364,255,3
119,172,647,604,3
21,99,303,137,3
207,258,371,262,3
35,40,97,0,3
324,136,208,250,3
49,146,159,34,3
24,79,2,62,3
33,245,87,97,3
229,25,453,364,3
1,209,133,314,3
79,114,223,482,3
5,321,272,20,3
1,90,399,108,3
245,373,239,757,3
150,247,273,69,3
150,7,539,763,3
10,34,101,348,3
243,241,155,51,3
118,194,485,136,3
276,311,226,742,3
65,204,74,275,3
179,19,475,499,3
13,132,226,650,3
135,67,1023,1023,3
64,173,55,491,3
530,243,337,436,3
292,102,886,1023,3
30,211,951,960,3
441,7,156,400,3
304,141,449,155,3
127,87,213,450,3
204,105,396,499,3
115,444,112,0,3
110,293,140,452,3
136,243,16,151,3
280,235,688,1023,3
36,414,457,498,3
183,714,489,11,3
3,199,676,616,3
4,345,238,617,3
677,866,396,553,3
183,209,857,103,3
374,156,423,35,3
4,279,444,215,3
11,167,837,494,3
51,264,1023,730,3
360,137,142,962,3
232,265,5,93,3
295,194,717,763,3
7,30,573,750,3
482,113,814,853,3
122,771,902,1023,3
18,63,1023,1023,3
157,343,108,718,3
181,87,226,62,3
416,575,81,348,3
202,18,678,898,3
127,184,179,1023,3
147,117,371,105,3
443,178,203,596,3
66,7,9,518,3
35,125,30,55,3
601,80,20,40,3
163,165,914,1023,3
245,112,692,157,3
110,8,1023,1023,3
754,67,345,643,3
289,89,379,397,3
172,371,145,1023,3
157,69,338,859,3
139,631,577,613,3
206,553,216,906,3
97,181,212,715,3
77,97,806,1023,3
406,98,771,1023,3
281,227,1023,150,3
495,340,135,473,3
47,305,582,308,3
796,50,542,241,3
809,82,390,185,3
413,752,153,385,3
174,818,585,736,3
636,77,696,1023,3
667,231,1023,156,3
274,13,1023,297,3
454,250,1023,605,3
1,113,1023,810,3
206,499,651,96,3
79,81,9,444,3
579,234,8,1023,3
287,403,150,26,3
92,34,812,192,3
378,172,819,741,3
218,419,301,349,3
236,10,190,418,3
4,52,643,358,3
35,469,115,42,3
185,147,401,378,3
440,525,749,989,3
324,127,1023,1023,3
865,18,202,784,3
567,396,1023,762,3
332,397,420,46,3
138,95,958,578,3
254,383,635,360,3
319,159,352,95,3
48,132,334,389,3
20,59,397,31,3
417,153,133,674,3
141,866,275,12,3
808,635,791,460,3
569,439,1023,720,3
722,38,662,1023,3
138,22,1023,1023,3
882,360,849,193,3
221,189,1023,589,3
723,333,475,738,3
287,10,1023,115,3
456,91,127,433,3
473,645,652,357,3
759,254,285,204,3
34,305,35,79,3
27,127,614,456,3
659,828,98,818,3
252,540,372,79,3
643,356,68,347,3
334,59,6,548,3
657,405,658,501,3
408,27,513,444,3
696,127,629,636,3
213,477,561,350,3
7,45,1023,1023,3
45,38,651,1023,3
295,274,789,703,3
72,184,140,1023,3
836,780,1023,1023,3
1023,501,791,12,3
35,442,1023,1023,3
0,984,581,980,3
333,45,927,575,3
57,132,326,489,3
138,424,263,63,3
414,369,262,726,3
454,532,371,303,3
562,247,1023,933,3
706,745,464,888,3
73,165,569,653,3
7,171,264,1023,3
222,239,24,9,3
312,238,349,1023,3
162,196,474,746,3
500,421,329,64,3
460,10,343,622,3
185,502,163,365,3
632,15,907,632,3
191,175,124,368,3
114,320,717,522,3
265,181,20,331,3
205,398,1023,1023,3
517,303,127,130,3
148,87,226,470,3
99,136,1023,1023,3
170,75,491,992,3
225,378,628,224,3
393,825,550,0,3
306,568,449,334,3
13,470,1023,788,3
232,693,155,463,3
305,165,1023,852,3
313,258,988,735,3
0,58,893,1023,3
132,209,686,1023,3
28,14,618,1023,3
109,229,833,1023,3
117,312,1023,669,3
261,92,40,334,3
43,123,1023,682,3
90,114,337,773,3
200,195,762,455,3
45,82,266,902,3
107,201,43,288,3
138,108,824,1023,3
204,31,21,30,3
290,210,389,23,3
130,360,461,1023,3
322,458,301,16,3
97,100,616,1023,3
132,83,34,341,3
164,111,1023,1023,3
81,229,22,44,3
245,360,95,350,3
162,160,580,458,3
198,147,234,223,3
0,153,29,24,3
17,55,261,147,3
66,115,107,193,3
200,264,14,437,3
36,162,487,914,3
6,406,162,318,3
178,158,531,565,3
214,123,671,1023,3
126,266,937,1023,3
203,292,528,911,3
205,149,906,567,3
292,266,151,320,3
63,22,1023,306,3
115,17,143,77,3
187,142,351,261,3
49,24,267,269,3
166,148,222,118,3
47,152,585,307,3
68,167,352,515,3
197,150,465,445,3
13,108,27,71,3
299,91,135,304,3
176,141,87,143,3
152,295,674,498,3
43,5,177,185,3
2,116,451,813,3
233,233,116,123,3
40,92,230,183,3
4,29,174,77,3
16,116,117,112,3
211,73,504,561,3
77,48,138,367,3
116,263,234,17,3
57,209,345,320,3
65,461,75,51,3
181,96,73,494,3
223,110,463,397,3
171,372,71,37,3
156,89,311,119,3
188,305,179,360,3
323,360,141,292,3
105,178,167,162,3
10,12,469,64,3
95,373,5,234,3
164,111,574,291,3
255,348,351,590,3
27,33,447,279,3
42,47,676,528,3
79,364,35,789,3
194,16,392,778,3
180,438,39,169,3
159,206,552,27,3
305,219,375,637,3
21,55,151,66,3
86,286,25,207,3
448,497,272,1023,3
21,9,405,48,3
177,161,54,417,3
187,117,423,19,3
24,63,113,24,3
409,246,88,74,3
22,47,610,652,3
581,98,178,321,3
219,135,291,188,3
354,194,28,37,3
174,501,219,264,3
194,258,407,353,3
37,249,141,153,3
72,239,171,38,3
240,376,2,298,3
26,151,448,191,3
387,339,452,588,3
124,76,840,332,3
455,245,797,719,3
130,170,9,55,3
315,166,769,884,3
185,150,195,152,3
7,124,807,982,3
154,147,90,41,3
78,74,668,773,3
283,274,62,32,3
306,138,146,300,3
114,321,55,317,3
80,398,122,557,3
16,9,8,157,3
51,64,22,268,3
88,81,110,50,3
113,78,180,200,3
30,114,435,579,3
57,83,284,329,3
5,141,467,413,3
53,37,261,315,3
22,131,216,131,3
240,59,816,864,3
152,776,143,873,3
85,24,490,211,3
730,790,42,199,3
193,181,89,722,3
513,618,381,89,3
124,129,354,120,3
63,65,871,484,3
19,22,82,329,3
18,374,703,296,3
88,15,375,492,3
150,148,287,210,3
129,114,845,850,3
130,235,14,466,3
102,46,558,701,3
34,78,11,181,3
190,203,298,100,3
248,14,17,115,3
49,302,221,0,3
142,213,21,247,3
139,321,17,282,3
86,30,150,193,3
122,219,251,389,3
270,75,42,112,3
2,105,397,114,3
65,29,334,515,3
135,183,53,80,3
94,59,591,986,3
113,9,117,44,3
229,267,359,414,3
199,172,70,311,3
128,253,310,412,3
134,177,150,247,3
156,92,10,558,3
18,132,48,84,3
7,114,86,248,3
54,357,83,162,3
7,109,217,259,3
211,329,154,144,3
47,45,205,139,3
39,106,162,181,3
134,77,186,107,3
157,143,314,125,3
31,42,299,177,3
31,54,77,41,3
232,261,200,148,3
255,168,64,171,3
262,247,124,85,3
158,135,120,154,3
2,10,276,266,3
59,313,70,13,3
86,203,45,10,3
190,372,389,449,3
15,116,13,5,3
157,139,223,311,3
101,334,379,450,3
10,14,69,73,3
69,63,121,109,3
77,9,28,0,3
166,233,147,187,3
154,102,274,256,3
147,9,1,0,3
112,57,16,20,3
32,113,113,78,3
19,105,64,269,3
315,436,567,401,3
234,21,143,220,3
20,173,245,276,3
107,29,440,837,3
3,22,6,34,3
68,143,532,769,3
155,189,135,34,3
228,75,358,451,3
299,357,330,286,3
17,73,3,71,3
176,55,283,257,3
6,86,195,216,3
33,15,113,8,3
57,33,143,72,3
13,74,210,32,3
115,48,272,556,3
22,128,170,503,3
121,17,205,389,3
35,98,285,450,3
34,281,156,121,3
14,238,147,314,3
31,59,139,594,3
141,293,37,34,3
222,169,308,511,3
289,428,26,78,3
4,106,348,292,3
52,76,121,133,3
2,45,107,565,3
101,48,1023,128,3
81,15,150,38,3
149,34,820,456,3
25,114,310,466,3
235,112,249,155,3
198,44,401,279,3
45,11,177,13,3
60,181,430,966,3
204,134,221,247,3
14,65,182,408,3
111,140,364,689,3
16,45,111,80,3
286,203,484,529,3
83,70,550,869,3
115,76,116,615,3
120,247,394,551,3
51,126,735,389,3
185,16,2,403,3
234,214,699,12,3
244,261,696,70,3
206,47,483,17,3
85,365,977,83,3
85,356,537,169,3
518,553,85,39,3
143,291,361,76,3
29,17,86,156,3
140,307,532,316,3
213,179,1023,886,3
274,43,145,1023,3
52,211,488,723,3
45,198,807,1023,3
143,27,200,1023,3
428,432,408,350,3
2,336,602,486,3
43,264,754,1023,3
471,413,1023,1023,3
372,290,766,1023,3
11,121,561,845,3
358,612,118,424,3
110,471,84,8,3
280,403,129,23,3
611,151,631,219,3
430,346,55,905,3
114,165,153,182,3
238,67,202,529,3
253,68,345,737,3
150,37,227,135,3
110,100,948,1023,3
742,490,136,503,3
38,421,1023,1023,3
1023,370,537,129,3
466,66,861,1023,3
42,432,170,810,3
729,190,1023,1023,3
610,425,1023,1023,3
649,437,646,288,3
300,247,1023,1023,3
554,282,82,226,3
451,392,276,548,3
124,218,154,453,3
171,135,75,196,3
154,11,1023,1023,3
376,479,8,728,3
364,430,656,1023,3
11,107,317,1023,3
201,330,1023,287,3
171,87,373,1023,3
690,759,1023,1023,3
152,376,490,1023,3
688,310,806,203,3
636,673,249,279,3
687,881,675,915,3
861,815,235,877,3
22,730,445,310,3
266,341,1023,982,3
27,230,192,388,3
193,71,403,860,3
520,883,470,418,3
259,31,567,1023,3
198,107,223,17,3
594,711,1023,1023,3
212,87,686,395,3
227,95,463,1023,3
409,398,16,1023,3
372,447,1023,1023,3
416,434,211,189,3
345,14,395,735,3
534,605,118,613,3
151,355,629,484,3
410,134,514,313,3
110,170,953,104,3
291,63,637,112,3
831,170,689,1023,3
290,317,145,764,3
649,463,348,1023,3
560,845,1023,1023,3
93,188,819,1023,3
196,739,1023,434,3
205,275,105,61,3
113,489,1023,1023,3
262,138,307,547,3
55,222,1023,1023,3
78,97,812,1021,3
830,1023,776,178,3
414,375,266,670,3
1023,1023,323,463,3
570,342,339,781,3
295,332,448,247,3
588,337,1023,1023,3
687,164,324,818,3
164,34,1023,451,3
326,38,546,388,3
77,161,757,404,3
306,278,27,369,3
354,113,176,1023,3
817,1023,647,1023,3
32,53,697,790,3
813,1023,109,250,3
323,376,280,217,3
683,185,134,1023,3
333,9,824,687,3
522,1019,1023,145,3
190,143,178,273,3
326,218,1023,683,3
166,671,302,1023,3
203,577,258,426,3
10,387,1023,1023,3
74,638,1023,1023,3
1,249,198,620,3
596,105,669,534,3
161,192,109,387,3
97,69,664,673,3
45,328,21,1023,3
29,55,208,39,3
130,202,32,509,3
348,167,342,146,3
206,40,72,10,3
58,59,230,199,3
