Ch1,Ch2,Ch3,Ch4,label
51,22,3,6,1
12,17,68,49,1
61,28,21,1,1
55,298,81,33,1
13,250,21,2,1
1,33,15,93,1
11,60,33,67,1
2,81,0,6,1
1,41,62,42,1
86,108,3,7,1
1,25,0,27,1
46,54,0,4,1
58,60,1,5,1
75,119,4,4,1
57,19,67,68,1
64,7,0,1,1
75,39,36,28,1
1,25,33,38,1
19,43,15,30,1
118,20,0,4,1
69,7,25,24,1
7,28,12,84,1
55,58,21,29,1
2,5,0,30,1
138,79,35,39,1
54,25,14,14,1
97,24,31,29,1
1,131,5,12,1
38,123,21,5,1
91,46,20,6,1
64,17,0,1,1
55,5,44,19,1
44,14,0,4,1
1,31,0,19,1
63,56,40,61,1
24,42,0,15,1
11,16,10,45,1
41,20,12,15,1
11,17,0,9,1
52,32,18,64,1
47,23,8,2,1
98,46,33,70,1
114,137,41,44,1
45,75,40,31,1
114,89,86,56,1
60,103,9,25,1
75,125,36,22,1
105,191,39,66,1
39,25,42,47,1
94,60,37,34,1
62,55,0,9,1
17,7,54,54,1
35,44,0,5,1
47,71,0,26,1
73,137,20,25,1
1,20,0,15,1
40,29,19,16,1
57,37,12,11,1
11,63,16,51,1
117,166,29,8,1
108,172,18,56,1
114,80,90,30,1
96,55,31,32,1
24,68,89,62,1
97,48,54,10,1
27,7,19,21,1
45,23,0,19,1
50,31,4,6,1
17,55,0,11,1
111,89,18,34,1
38,13,1,17,1
15,65,26,9,1
27,69,23,25,1
7,12,0,30,1
48,21,0,43,1
47,200,51,13,1
70,118,10,36,1
62,81,52,63,1
1,53,29,5,1
153,100,61,30,1
14,7,5,1,1
19,13,75,52,1
106,145,4,1,1
66,32,0,20,1
85,27,52,56,1
118,153,0,4,1
35,7,47,1,1
54,5,0,0,1
1,24,31,7,1
66,14,4,11,1
52,15,49,42,1
4,23,48,38,1
59,53,0,6,1
3,33,24,41,1
11,42,49,89,1
20,94,34,23,1
86,43,35,60,1
95,166,17,18,1
52,64,0,13,1
108,59,0,16,1
0,37,6,3,1
50,16,16,46,1
64,11,3,13,1
50,82,31,11,1
26,48,34,7,1
9,109,31,55,1
116,112,0,19,1
134,60,0,25,1
36,107,27,27,1
65,6,15,31,1
29,25,0,3,1
25,38,49,34,1
99,131,6,1,1
0,83,18,5,1
112,101,67,14,1
95,150,0,51,1
51,17,59,55,1
12,37,24,24,1
63,97,0,1,1
50,50,0,15,1
0,19,0,11,1
124,188,56,60,1
78,200,0,23,1
2,29,0,5,1
124,188,61,90,1
87,237,21,24,1
50,17,43,35,1
129,144,24,33,1
25,23,18,38,1
104,9,61,8,1
78,86,21,7,1
31,17,27,36,1
142,115,0,2,1
35,22,0,9,1
88,30,104,53,1
48,21,0,1,1
97,129,44,57,1
6,58,38,69,1
19,51,84,64,1
37,67,26,13,1
16,124,84,44,1
71,45,5,16,1
75,41,160,103,1
98,44,105,115,1
82,10,166,55,1
90,150,12,63,1
127,65,45,137,1
95,110,0,57,1
66,23,0,142,1
166,88,54,120,1
11,15,109,77,1
38,19,55,7,1
61,82,4,49,1
14,43,5,75,1
119,69,106,106,1
105,41,59,42,1
0,12,51,44,1
23,75,119,116,1
20,117,82,53,1
104,10,47,124,1
43,20,0,44,1
34,38,51,1,1
78,14,0,134,1
12,75,77,55,1
49,98,1,5,1
57,7,59,76,1
31,144,46,93,1
93,86,9,3,1
29,116,15,13,1
120,115,172,45,1
3,87,18,59,1
26,30,115,59,1
62,215,94,20,1
15,34,47,132,1
7,20,13,136,1
47,109,105,481,1
74,9,72,201,1
86,69,2,145,1
57,124,0,73,1
74,26,20,13,1
24,24,0,141,1
12,86,14,208,1
20,8,130,135,1
149,18,16,96,1
269,43,102,17,1
110,107,38,47,1
52,5,22,86,1
32,38,67,10,1
98,117,40,25,1
9,140,177,123,1
4,84,115,122,1
102,69,41,90,1
63,27,64,159,1
135,183,133,34,1
0,83,75,300,1
215,145,244,179,1
208,210,2,77,1
208,312,222,61,1
148,81,154,143,1
109,175,225,127,1
56,20,18,49,1
126,116,75,103,1
100,147,20,60,1
63,179,124,30,1
151,157,284,75,1
55,17,93,175,1
81,54,231,232,1
31,85,26,191,1
48,63,119,170,1
149,36,0,15,1
46,76,239,154,1
109,14,203,28,1
92,53,208,14,1
21,58,292,14,1
66,44,0,202,1
133,109,101,109,1
31,55,0,94,1
36,167,38,62,1
92,98,101,228,1
110,83,164,157,1
42,112,265,253,1
110,131,152,104,1
121,310,143,30,1
89,251,10,68,1
153,305,8,163,1
119,92,9,78,1
176,117,172,186,1
103,71,65,198,1
131,61,73,193,1
25,141,68,109,1
105,18,68,170,1
153,222,445,268,1
43,138,0,119,1
88,137,377,296,1
153,27,0,44,1
29,22,223,115,1
177,92,0,28,1
149,23,35,67,1
23,83,143,57,1
225,337,126,21,1
152,344,231,39,1
108,78,5,46,1
90,291,207,24,1
147,10,180,60,1
222,112,236,119,1
109,283,243,103,1
144,50,0,147,1
94,57,552,93,1
8,40,204,197,1
158,170,594,282,1
23,7,214,158,1
84,262,365,60,1
3,120,184,143,1
193,71,318,256,1
111,83,214,163,1
153,121,5,31,1
43,146,217,89,1
144,51,590,293,1
76,214,122,104,1
67,244,485,272,1
247,909,569,36,1
262,72,355,181,1
91,447,458,310,1
50,559,283,548,1
29,115,9,24,1
185,337,89,21,1
135,210,57,161,1
173,62,108,11,1
64,75,52,489,1
83,279,120,47,1
218,183,93,161,1
70,20,53,149,1
65,45,38,67,1
17,13,37,98,1
83,30,85,132,1
41,35,2,67,1
42,24,16,0,1
79,21,102,74,1
37,5,280,147,1
55,56,510,172,1
15,14,200,371,1
27,345,71,91,1
47,262,268,82,1
337,408,562,550,1
382,82,91,386,1
211,572,36,93,1
219,683,96,178,1
191,156,8,219,1
2,156,248,40,1
122,6,14,29,1
70,27,28,115,1
16,87,114,140,1
103,271,193,194,1
62,49,204,270,1
53,59,106,129,1
25,17,133,223,1
155,21,354,150,1
85,217,374,315,1
113,248,55,50,1
80,184,162,4,1
26,233,46,13,1
12,159,391,30,1
235,149,116,188,1
32,1023,49,176,1
253,216,102,142,1
7,136,290,393,1
56,110,433,155,1
155,51,89,36,1
5,175,114,182,1
100,8,153,259,1
205,117,206,218,1
112,94,97,179,1
16,6,138,128,1
87,48,72,170,1
7,13,157,287,1
18,62,53,19,1
84,53,134,98,1
80,255,240,172,1
15,156,382,388,1
172,64,14,84,1
206,145,138,570,1
332,88,26,368,1
213,60,29,292,1
169,23,14,457,1
173,375,48,171,1
122,155,384,378,1
258,50,222,40,1
83,214,282,495,1
301,168,30,285,1
3,94,5,8,1
2,51,18,368,1
342,40,1,121,1
305,236,202,233,1
31,19,0,67,1
80,18,360,161,1
62,104,178,228,1
123,126,154,345,1
74,250,467,508,1
92,149,156,70,1
224,41,131,339,1
124,334,34,103,1
39,203,276,27,1
38,91,35,44,1
9,101,611,129,1
208,162,198,18,1
262,62,117,103,1
12,148,63,422,1
250,75,777,236,1
102,161,575,36,1
167,170,566,66,1
86,80,435,145,1
25,17,0,30,1
40,242,424,141,1
113,13,183,173,1
117,31,395,529,1
342,433,49,484,1
258,189,592,353,1
432,343,13,157,1
147,142,418,548,1
186,308,193,424,1
180,75,333,355,1
361,273,101,92,1
20,177,423,273,1
4,45,78,323,1
12,156,170,176,1
49,22,611,329,1
83,93,840,190,1
29,13,359,201,1
2,7,543,528,1
70,67,54,142,1
28,14,38,56,1
35,27,399,206,1
80,73,49,154,1
204,159,506,95,1
218,146,13,80,1
116,210,294,361,1
380,159,589,330,1
90,320,470,591,1
124,205,245,267,1
148,146,256,747,1
7,14,873,393,1
150,50,310,442,1
159,301,325,71,1
111,9,845,285,1
81,149,205,416,1
86,21,118,76,1
177,212,187,304,1
179,508,156,342,1
82,297,33,24,1
88,663,150,157,1
62,140,42,128,1
48,266,471,76,1
80,9,266,229,1
348,174,468,71,1
196,35,338,166,1
210,72,124,414,1
70,79,369,248,1
266,78,861,28,1
383,389,113,120,1
189,47,483,217,1
338,97,232,121,1
13,114,552,475,1
126,143,390,537,1
20,746,170,370,1
20,260,0,85,1
144,299,307,187,1
103,297,61,176,1
147,313,258,309,1
93,292,136,42,1
43,64,293,176,1
29,137,293,123,1
220,129,9,594,1
211,158,153,27,1
24,75,79,14,1
3,120,39,77,1
112,11,39,312,1
35,19,296,8,1
157,21,152,61,1
198,63,302,186,1
39,210,377,482,1
302,232,463,456,1
16,89,356,483,1
206,223,536,552,1
307,441,186,528,1
375,304,997,485,1
100,511,844,243,1
63,39,403,682,1
121,138,816,330,1
14,76,425,265,1
180,92,19,183,1
8,53,648,66,1
65,48,194,250,1
40,375,857,13,1
6,170,525,6,1
40,8,149,164,1
1,44,3,152,1
194,192,345,368,1
149,172,93,220,1
48,388,426,491,1
8,393,182,548,1
47,155,112,167,1
50,202,319,322,1
150,147,231,74,1
2,156,81,11,1
44,64,110,229,1
40,144,127,155,1
114,54,37,164,1
214,30,232,72,1
8,13,300,49,1
224,44,52,152,1
4,51,57,160,1
135,51,262,40,1
60,140,99,40,1
37,89,542,333,1
18,70,429,345,1
131,157,56,22,1
122,104,442,234,1
74,608,17,171,1
213,69,385,105,1
50,64,11,207,1
27,26,156,5,1
20,39,536,223,1
330,13,544,231,1
168,253,199,83,1
310,88,368,23,1
18,30,25,196,1
40,11,70,425,1
12,66,202,202,1
113,42,12,260,1
220,93,298,13,1
1,53,13,203,1
297,186,123,133,1
6,109,264,249,1
8,105,125,12,1
318,405,242,132,1
5,182,238,295,1
228,231,81,36,1
174,217,202,27,1
31,31,5,215,1
35,45,181,136,1
118,30,380,369,1
43,47,85,234,1
299,180,0,246,1
75,52,73,7,1
40,78,245,166,1
83,13,606,26,1
177,43,98,9,1
69,73,47,373,1
55,275,125,89,1
29,65,32,47,1
163,346,256,135,1
19,51,171,181,1
80,147,339,47,1
87,60,19,1,1
207,54,270,198,1
9,84,85,264,1
283,201,625,250,1
61,88,271,110,1
16,92,122,164,1
348,26,224,87,1
140,42,344,264,1
167,34,470,75,1
195,33,257,187,1
132,24,94,50,1
241,162,11,40,1
12,152,70,247,1
61,163,27,141,1
55,210,314,264,1
206,138,326,35,1
343,200,174,267,1
35,155,174,98,1
148,45,3,50,1
147,121,25,222,1
38,36,11,90,1
267,245,63,209,1
183,116,128,336,1
64,67,270,285,1
8,218,18,118,1
3,35,342,270,1
1,617,7,205,1
145,408,110,190,1
63,243,557,423,1
3,138,130,25,1
111,35,233,8,1
144,133,2,39,1
2,80,63,180,1
186,63,3,60,1
152,61,88,78,1
136,44,8,69,1
137,124,172,140,1
7,24,187,131,1
90,71,235,82,1
139,232,89,165,1
4,126,79,40,1
16,97,266,231,1
100,174,166,99,1
0,285,70,76,1
50,118,256,158,1
110,58,133,215,1
218,127,72,54,1
49,162,87,17,1
56,16,1,7,1
238,151,14,149,1
41,9,243,123,1
103,6,277,37,1
145,73,323,12,1
138,120,391,68,1
46,26,44,86,1
21,178,119,18,1
114,339,120,149,1
34,153,130,210,1
207,45,8,114,1
22,70,121,134,1
68,47,52,69,1
69,165,105,174,1
83,251,149,157,1
244,125,8,448,1
103,126,368,480,1
5,31,272,330,1
117,53,86,154,1
20,14,170,47,1
25,72,33,87,1
89,36,215,17,1
42,110,9,260,1
61,75,157,63,1
68,615,153,90,1
117,234,89,244,1
193,75,162,115,1
63,142,96,164,1
155,60,105,33,1
33,181,0,97,1
26,82,12,76,1
78,18,77,70,1
130,283,126,179,1
70,185,95,20,1
22,14,116,149,1
195,180,81,101,1
65,92,47,131,1
48,33,387,185,1
48,147,82,357,1
11,344,206,213,1
184,324,17,161,1
184,288,15,66,1
11,99,20,35,1
60,216,144,176,1
90,114,19,137,1
35,78,80,38,1
31,97,144,217,1
3,18,126,3,1
97,16,3,58,1
67,58,0,17,1
12,71,70,104,1
115,84,63,5,1
46,192,196,6,1
33,61,41,21,1
11,94,31,120,1
90,114,61,123,1
24,22,85,46,1
30,245,0,130,1
62,43,129,208,1
37,63,0,20,1
40,117,82,41,1
38,32,127,78,1
46,11,121,16,1
115,216,22,187,1
20,91,306,347,1
213,141,3,103,1
247,269,137,175,1
84,23,404,204,1
134,81,117,148,1
14,115,345,236,1
74,17,129,89,1
45,26,143,155,1
78,70,30,4,1
43,83,88,1,1
72,202,106,83,1
24,263,21,75,1
21,126,53,92,1
9,49,67,1,1
31,368,28,94,1
138,126,2,193,1
111,40,48,65,1
136,142,0,51,1
84,125,15,130,1
0,37,43,60,1
58,45,52,23,1
28,6,49,11,1
106,141,141,38,1
44,8,176,40,1
193,135,142,70,1
31,11,182,211,1
111,153,136,40,1
65,85,69,41,1
132,48,204,82,1
140,132,62,1,1
12,111,243,268,1
114,402,0,126,1
47,7,85,31,1
53,144,71,4,1
175,113,9,49,1
108,186,0,1,1
113,78,21,52,1
124,55,0,16,1
26,49,20,4,1
46,11,208,151,1
4,24,57,42,1
44,86,332,231,1
48,24,109,19,1
9,31,157,25,1
9,38,65,84,1
41,77,8,3,1
73,6,100,36,1
133,153,17,6,1
1,197,58,161,1
193,48,110,184,1
118,51,51,126,1
8,72,94,125,1
10,22,36,103,1
4,43,19,136,1
49,63,9,106,1
16,7,51,148,1
20,23,189,263,1
157,147,20,164,1
152,175,243,9,1
63,14,50,175,1
140,248,0,145,1
98,18,83,2,1
156,111,29,2,1
18,7,2,123,1
84,108,88,13,1
5,132,0,87,1
91,21,66,56,1
0,74,13,179,1
18,103,17,215,1
100,53,76,90,1
11,27,109,113,1
39,90,132,131,1
63,101,37,2,1
0,125,301,120,1
121,315,17,32,1
19,202,188,114,1
69,123,17,12,1
170,5,22,12,1
67,349,105,20,1
34,151,83,67,1
3,110,52,21,1
125,111,30,9,1
2,36,15,31,1
17,46,0,29,1
164,166,130,110,1
15,10,24,150,1
72,84,103,9,1
94,104,21,1,1
39,88,50,4,1
86,81,59,120,1
71,17,129,36,1
174,257,0,153,1
36,144,118,28,1
109,145,0,68,1
31,36,56,75,1
175,268,4,2,1
55,223,141,128,1
17,9,61,116,1
65,149,37,35,1
88,114,155,32,1
45,35,123,249,1
53,7,112,27,1
24,54,149,253,1
34,142,161,51,1
118,19,20,106,1
155,239,76,38,1
136,88,69,11,1
38,154,0,14,1
21,49,21,47,1
68,102,33,68,1
7,17,277,210,1
143,7,96,75,1
187,29,68,331,1
65,214,98,74,1
14,6,0,118,1
48,72,45,243,1
80,202,56,53,1
151,379,32,30,1
119,89,3,2,1
136,159,45,87,1
199,209,219,116,1
24,47,93,175,1
50,53,1,280,1
21,101,223,15,1
102,70,41,331,1
1,66,79,140,1
14,59,343,147,1
12,36,62,37,1
244,339,237,93,1
98,19,0,125,1
172,46,139,287,1
7,13,83,51,1
96,33,246,224,1
156,38,461,474,1
90,47,0,47,1
21,100,364,140,1
109,7,6,34,1
3,234,217,99,1
15,44,89,78,1
52,88,108,76,1
2,13,0,451,1
44,129,28,321,1
145,78,110,213,1
85,145,156,99,1
191,41,24,22,1
44,123,29,145,1
72,277,170,198,1
89,54,153,289,1
2,323,293,141,1
82,140,0,188,1
113,142,144,348,1
35,28,48,259,1
72,222,5,126,1
49,68,237,91,1
86,25,135,139,1
4,69,97,66,1
49,139,328,355,1
10,40,44,131,1
81,147,168,287,1
7,39,284,5,1
67,13,234,324,1
180,145,254,189,1
12,33,144,185,1
93,228,26,137,1
95,96,332,18,1
32,115,113,177,1
47,109,33,196,1
73,229,61,60,1
71,8,131,222,1
127,231,411,171,1
93,52,42,373,1
154,182,461,421,1
231,267,63,174,1
27,94,182,12,1
103,91,93,118,1
206,65,67,122,1
8,495,360,97,1
37,67,395,90,1
71,350,126,688,1
24,269,461,500,1
65,233,64,474,1
197,7,379,645,1
136,61,95,346,1
39,59,201,176,1
0,59,59,52,1
33,91,398,170,1
16,88,264,183,1
190,173,242,237,1
256,366,20,107,1
20,11,82,99,1
138,9,133,6,1
6,101,0,4,1
158,234,85,116,1
19,69,124,392,1
10,12,125,135,1
163,241,55,321,1
31,186,303,469,1
151,136,6,3,1
56,69,155,284,1
18,36,85,193,1
0,108,240,340,1
129,84,92,20,1
78,195,163,175,1
84,235,18,26,1
24,180,356,380,1
237,62,13,337,1
4,118,319,129,1
7,164,130,131,1
386,20,123,313,1
29,91,239,583,1
80,25,231,333,1
20,36,332,121,1
20,74,78,561,1
90,48,7,496,1
39,20,247,67,1
150,60,166,34,1
249,183,196,32,1
227,490,331,70,1
138,149,312,8,1
40,34,287,376,1
31,13,173,268,1
236,182,302,7,1
226,75,251,77,1
2,285,83,1,1
199,143,43,265,1
138,105,45,318,1
38,88,109,199,1
215,88,432,619,1
87,69,425,284,1
160,131,10,666,1
47,110,92,334,1
42,8,269,21,1
114,122,145,291,1
78,64,156,1,1
9,55,221,183,1
235,137,691,245,1
245,5,93,245,1
160,61,441,442,1
135,228,27,27,1
16,162,58,189,1
83,183,184,48,1
89,7,332,55,1
288,64,583,448,1
6,81,636,71,1
232,426,134,10,1
110,198,380,224,1
124,12,51,417,1
45,71,26,276,1
33,40,250,6,1
234,44,705,159,1
219,63,127,94,1
88,194,36,316,1
74,16,670,445,1
90,20,137,163,1
177,162,465,650,1
332,168,910,45,1
300,422,488,45,1
39,23,287,345,1
6,323,62,156,1
428,768,303,304,1
486,547,1023,67,1
256,95,343,234,1
10,63,400,413,1
271,99,125,266,1
313,282,522,427,1
162,187,84,204,1
72,54,285,93,1
87,6,0,7,1
56,176,599,379,1
40,81,492,90,1
226,107,275,305,1
139,126,211,146,1
142,416,442,6,1
232,40,181,329,1
200,338,185,258,1
218,36,101,47,1
121,212,892,518,1
48,139,279,143,1
194,53,164,280,1
94,60,305,103,1
176,51,0,364,1
17,23,662,125,1
149,22,5,66,1
267,116,752,718,1
121,6,272,52,1
120,16,338,709,1
256,12,59,131,1
370,418,804,76,1
264,33,164,150,1
249,285,320,220,1
43,57,493,65,1
353,171,21,37,1
20,199,251,283,1
29,12,27,254,1
85,67,126,89,1
222,155,658,61,1
149,55,283,309,1
211,111,868,360,1
149,25,453,318,1
134,59,17,239,1
19,31,48,6,1
52,49,461,314,1
18,12,336,254,1
66,8,19,193,1
99,110,218,81,1
131,194,145,321,1
148,130,309,115,1
137,215,473,308,1
240,60,97,182,1
220,98,288,124,1
54,36,89,109,1
154,67,8,1,1
195,88,96,70,1
108,56,38,18,1
218,31,0,74,1
96,58,130,204,1
242,98,199,138,1
138,85,368,243,1
202,68,200,83,1
82,43,22,45,1
233,87,116,168,1
161,115,82,152,1
8,78,185,301,1
151,192,186,140,1
160,444,8,100,1
74,186,175,13,1
78,41,224,337,1
438,149,12,83,1
20,36,335,369,1
254,147,237,181,1
134,6,540,410,1
136,25,60,41,1
4,45,67,205,1
1,13,205,69,1
12,19,77,252,1
199,212,235,151,1
54,166,26,136,1
122,14,69,14,1
90,144,94,160,1
149,192,6,261,1
5,36,69,107,1
98,35,474,150,1
37,26,227,251,1
73,6,253,152,1
151,189,97,65,1
9,107,45,297,1
62,141,177,434,1
120,97,118,58,1
98,5,192,6,1
166,14,335,23,1
4,56,114,80,1
101,73,383,57,1
211,225,32,292,1
7,30,196,171,1
16,113,18,60,1
2,66,106,201,1
96,66,19,1,1
38,41,32,63,1
96,13,30,131,1
156,38,354,55,1
246,137,466,90,1
6,121,16,188,1
71,91,101,113,1
5,140,255,202,1
272,8,68,20,1
114,40,5,90,1
14,50,336,58,1
96,224,149,100,1
0,170,53,78,1
82,155,1,5,1
35,601,93,2,1
99,54,23,231,1
6,10,159,161,1
11,7,196,84,1
235,79,0,157,1
18,177,115,260,1
119,128,8,64,1
118,221,252,34,1
23,53,92,129,1
36,142,219,371,1
29,7,336,32,1
65,44,65,183,1
187,62,448,112,1
263,244,291,33,1
18,259,95,8,1
108,164,168,156,1
36,9,115,20,1
3,15,22,196,1
153,65,140,160,1
373,8,181,350,1
18,99,370,92,1
50,63,1,268,1
18,76,109,83,1
14,24,52,23,1
36,51,179,47,1
48,191,122,187,1
58,69,141,66,1
7,69,116,120,1
3,115,84,171,1
312,110,319,255,1
93,21,358,335,1
176,52,105,17,1
27,81,241,388,1
41,56,122,354,1
86,399,252,127,1
28,182,104,169,1
26,119,348,274,1
33,48,56,31,1
184,70,150,94,1
123,28,480,21,1
50,65,63,24,1
124,199,234,88,1
97,64,105,62,1
237,190,238,184,1
227,259,68,153,1
91,203,0,100,1
287,187,83,9,1
47,13,97,53,1
197,94,147,167,1
1,33,42,98,1
51,38,69,42,1
73,81,229,126,1
72,94,39,38,1
45,13,94,78,1
63,27,289,230,1
17,39,24,117,1
13,223,341,572,1
114,123,252,5,1
33,17,11,63,1
51,94,231,126,1
19,117,29,142,1
1,62,139,190,1
12,246,192,105,1
63,73,3,43,1
72,106,95,45,1
89,89,218,82,1
334,211,178,65,1
5,37,142,194,1
49,66,112,168,1
80,22,22,135,1
25,30,107,48,1
60,41,194,127,1
71,79,92,44,1
69,151,366,217,1
7,12,363,32,1
92,22,120,308,1
132,76,170,100,1
3,210,290,80,1
146,119,0,86,1
85,217,230,254,1
77,136,6,171,1
71,387,36,131,1
62,26,21,69,1
69,172,264,140,1
4,150,22,29,1
18,17,175,22,1
90,49,288,152,1
28,22,138,180,1
72,10,208,145,1
52,9,89,77,1
25,110,0,144,1
181,178,175,59,1
10,98,166,114,1
128,172,0,39,1
33,33,96,293,1
16,99,92,131,1
133,80,198,245,1
24,57,22,181,1
61,48,63,145,1
115,20,0,76,1
6,127,271,33,1
81,14,111,1,1
24,12,166,69,1
69,164,52,22,1
82,111,42,31,1
38,57,27,27,1
158,154,88,15,1
134,93,0,71,1
68,95,65,180,1
87,31,10,4,1
37,47,48,32,1
92,40,92,64,1
63,81,18,19,1
19,11,102,193,1
47,38,99,44,1
17,16,41,104,1
197,80,167,210,1
109,48,38,61,1
13,54,23,1,1
45,209,177,86,1
140,258,26,49,1
87,12,147,117,1
17,34,8,35,1
32,61,107,72,1
124,84,122,98,1
40,84,125,205,1
82,25,158,2,1
82,7,257,174,1
9,59,20,20,1
120,90,139,179,1
88,63,139,1,1
176,314,29,88,1
25,272,146,156,1
27,119,23,4,1
76,121,0,122,1
32,94,18,116,1
112,111,74,104,1
102,133,46,220,1
101,58,54,226,1
102,99,0,47,1
70,124,0,164,1
127,118,5,73,1
121,63,139,48,1
24,12,144,209,1
91,139,124,14,1
86,44,184,163,1
6,37,148,87,1
27,37,53,37,1
25,23,161,67,1
23,38,51,125,1
41,34,125,82,1
19,68,46,3,1
67,30,4,42,1
20,19,96,82,1
245,172,28,55,1
82,107,82,57,1
87,119,45,51,1
71,38,0,14,1
135,107,6,90,1
61,18,72,114,1
75,7,0,53,1
48,32,67,16,1
128,158,0,139,1
8,25,16,27,1
155,17,8,32,1
11,42,123,4,1
105,126,227,268,1
79,98,208,45,1
79,61,375,360,1
8,47,106,27,1
12,8,62,48,1
3,62,68,22,1
38,26,92,143,1
18,57,33,14,1
71,55,29,85,1
7,74,0,60,1
62,54,105,70,1
21,47,68,72,1
79,133,151,40,1
29,11,52,18,1
51,158,26,1,1
95,71,75,3,1
37,46,66,50,1
76,40,87,11,1
42,37,79,41,1
41,45,3,25,1
12,111,153,100,1
52,99,30,71,1
24,53,80,9,1
72,5,0,3,1
57,6,0,52,1
7,22,26,30,1
72,127,5,2,1
126,163,39,153,1
25,119,53,65,1
13,11,103,129,1
65,25,25,62,1
81,62,111,19,1
45,35,29,65,1
93,125,8,36,1
26,59,91,93,1
95,87,0,22,1
8,5,34,11,1
46,28,8,2,1
44,34,0,56,1
41,220,0,89,1
35,9,51,38,1
16,195,92,70,1
99,203,25,45,1
43,120,95,86,1
17,10,12,59,1
68,6,68,99,1
2,6,96,159,1
59,6,89,175,1
205,190,64,174,1
50,28,51,50,1
127,6,102,51,1
33,29,87,67,1
73,54,146,148,1
87,21,76,140,1
16,86,57,41,1
28,14,0,77,1
27,48,117,60,1
41,35,0,16,1
96,110,99,82,1
85,173,0,179,1
56,167,37,45,1
15,89,0,188,1
56,50,10,70,1
81,100,57,4,1
62,143,91,188,1
62,364,79,279,1
56,50,198,221,1
80,5,86,61,1
229,338,202,139,1
39,63,317,19,1
108,52,420,57,1
111,243,248,162,1
124,62,329,179,1
275,163,9,165,1
92,152,70,94,1
37,80,72,57,1
20,10,19,170,1
133,122,126,284,1
125,38,160,187,1
28,189,354,274,1
153,199,124,207,1
42,83,207,0,1
189,90,0,58,1
215,141,75,186,1
5,84,130,23,1
206,32,97,69,1
25,47,125,125,1
127,136,292,171,1
104,89,0,26,1
20,44,481,231,1
21,48,13,180,1
71,145,2,52,1
44,78,47,237,1
2,74,176,31,1
59,37,62,90,1
126,10,213,94,1
37,12,0,131,1
14,70,650,134,1
209,27,182,87,1
1,17,581,475,1
94,29,417,213,1
216,417,86,87,1
87,131,194,302,1
151,202,113,39,1
3,164,360,160,1
60,133,70,225,1
142,49,338,442,1
61,127,179,300,1
52,61,181,50,1
78,68,0,13,1
51,20,206,30,1
3,43,53,176,1
57,52,139,167,1
78,212,158,20,1
10,91,440,107,1
170,10,26,122,1
130,330,188,118,1
197,253,122,76,1
309,29,3,67,1
61,268,111,226,1
156,67,112,217,1
43,136,270,464,1
126,66,88,41,1
126,24,12,374,1
67,103,6,5,1
138,15,427,17,1
24,427,550,565,1
30,319,498,379,1
129,87,277,164,1
266,43,79,194,1
238,123,206,95,1
57,187,197,101,1
17,6,198,367,1
2,18,573,194,1
127,54,283,7,1
37,229,348,67,1
178,19,222,230,1
31,344,30,185,1
134,93,590,361,1
7,278,164,32,1
200,79,10,176,1
71,329,3,16,1
0,237,113,311,1
0,58,32,114,1
85,137,18,458,1
489,333,624,367,1
171,163,18,321,1
53,195,387,11,1
20,27,42,30,1
205,100,59,151,1
94,74,356,535,1
12,30,791,41,1
0,400,118,334,1
330,520,586,165,1
125,36,359,95,1
261,128,372,1023,1
25,395,257,265,1
123,116,46,55,1
20,161,343,108,1
117,51,128,187,1
8,34,29,232,1
172,125,275,265,1
99,136,450,294,1
17,140,277,39,1
176,25,288,107,1
15,31,331,38,1
328,52,746,257,1
136,40,293,540,1
99,104,355,101,1
194,130,13,93,1
176,95,251,321,1
29,139,425,5,1
60,138,526,526,1
186,254,6,356,1
78,180,238,302,1
120,80,370,452,1
100,109,1023,224,1
35,81,22,137,1
151,42,898,251,1
158,6,64,46,1
11,68,275,9,1
28,26,197,46,1
220,16,231,48,1
122,173,493,321,1
149,116,17,407,1
54,174,632,14,1
228,444,368,190,1
260,18,99,41,1
176,421,302,255,1
157,23,87,315,1
60,273,446,6,1
7,121,398,49,1
75,37,577,64,1
37,55,619,167,1
35,97,176,36,1
221,207,481,388,1
140,164,702,306,1
135,60,454,101,1
212,91,369,115,1
69,200,212,221,1
14,100,86,391,1
27,37,131,112,1
99,39,539,563,1
0,194,466,395,1
4,145,426,427,1
292,361,218,182,1
50,111,663,235,1
15,58,68,2,1
40,33,14,139,1
88,85,835,379,1
68,163,458,20,1
134,57,445,43,1
49,45,119,32,1
104,144,496,283,1
7,147,190,212,1
187,43,671,264,1
46,401,478,173,1
64,15,210,179,1
73,78,43,79,1
6,172,406,241,1
9,59,259,96,1
0,433,390,230,1
244,328,27,260,1
187,166,0,205,1
184,21,114,53,1
441,261,303,249,1
166,59,65,487,1
155,16,665,141,1
247,84,103,321,1
86,149,671,223,1
270,37,604,196,1
58,50,504,498,1
65,26,369,224,1
215,75,579,360,1
269,139,371,98,1
113,7,0,52,1
79,255,174,16,1
151,296,74,126,1
34,33,80,152,1
52,25,435,149,1
307,68,0,434,1
168,129,441,367,1
365,102,8,5,1
83,30,228,36,1
89,18,61,27,1
234,75,83,75,1
43,23,533,514,1
22,31,10,187,1
155,57,120,118,1
126,45,400,145,1
112,215,548,363,1
479,24,411,111,1
55,245,199,66,1
217,327,155,44,1
76,37,243,88,1
204,163,156,99,1
129,164,90,132,1
66,45,164,48,1
17,70,341,102,1
2,105,217,118,1
186,73,422,135,1
171,193,326,26,1
8,72,360,168,1
223,215,655,60,1
1,28,185,68,1
248,123,215,139,1
89,98,23,3,1
160,155,231,214,1
126,209,142,86,1
57,82,183,53,1
142,187,112,107,1
201,135,139,19,1
0,37,25,42,1
155,73,332,25,1
168,74,406,18,1
163,49,123,161,1
70,39,67,52,1
51,33,17,236,1
203,6,164,118,1
138,153,73,204,1
225,183,104,36,1
128,21,139,269,1
50,21,261,47,1
20,65,128,339,1
63,44,389,400,1
169,139,69,238,1
105,92,289,263,1
10,91,137,241,1
335,119,126,183,1
41,51,23,95,1
197,140,6,395,1
79,111,103,61,1
263,29,233,222,1
225,224,302,65,1
11,70,267,64,1
81,55,202,148,1
43,42,138,52,1
125,68,48,8,1
209,56,0,30,1
303,307,119,7,1
98,109,414,155,1
35,197,80,251,1
125,230,204,12,1
174,148,123,167,1
6,290,39,203,1
138,20,226,98,1
35,23,50,17,1
22,47,463,455,1
44,26,188,11,1
101,52,20,1,1
228,239,272,376,1
68,134,130,226,1
30,78,1,51,1
102,109,37,22,1
3,90,541,62,1
117,56,151,51,1
51,76,78,217,1
37,71,33,112,1
137,123,114,194,1
6,18,188,71,1
185,82,165,433,1
280,15,377,73,1
12,150,279,72,1
88,166,8,65,1
155,257,547,174,1
61,44,349,192,1
27,34,7,334,1
121,232,0,152,1
109,21,8,189,1
11,354,228,5,1
39,121,164,173,1
130,40,585,333,1
115,6,322,23,1
115,40,292,208,1
11,97,551,131,1
73,35,300,51,1
93,54,295,12,1
91,32,147,164,1
159,38,11,45,1
107,95,207,74,1
5,114,0,32,1
39,208,267,215,1
2,191,0,185,1
60,167,20,99,1
107,89,0,332,1
17,129,13,249,1
168,287,188,97,1
40,87,19,6,1
15,220,1,134,1
170,89,75,17,1
4,18,56,149,1
124,70,78,87,1
35,7,1,69,1
63,27,145,148,1
53,108,143,171,1
273,453,88,43,1
8,17,218,97,1
148,215,169,20,1
7,24,264,210,1
1,298,75,4,1
43,60,62,234,1
162,140,164,18,1
173,40,180,68,1
27,45,152,5,1
70,42,123,295,1
33,73,89,32,1
18,90,8,128,1
37,72,0,4,1
91,66,0,15,1
160,24,104,124,1
71,30,80,19,1
6,45,67,287,1
74,96,73,167,1
192,293,52,39,1
74,215,17,18,1
39,138,84,203,1
94,248,47,73,1
24,79,2,74,1
152,22,92,10,1
47,77,82,104,1
111,16,0,123,1
140,11,128,163,1
7,45,176,98,1
107,43,55,84,1
173,117,5,82,1
130,99,43,43,1
48,37,16,82,1
121,123,96,149,1
49,78,0,42,1
25,61,87,127,1
40,95,344,31,1
185,9,52,147,1
33,129,383,338,1
295,417,100,83,1
31,7,150,126,1
189,137,28,50,1
62,81,215,274,1
42,33,176,55,1
38,111,16,1,1
24,24,124,9,1
94,31,79,127,1
193,182,115,8,1
41,79,71,63,1
1,52,47,184,1
129,40,181,81,1
16,53,68,85,1
1,7,109,53,1
3,27,84,100,1
73,102,112,49,1
39,64,0,51,1
46,186,90,34,1
90,6,0,72,1
7,14,0,144,1
91,104,100,50,1
131,133,57,84,1
122,75,51,36,1
65,59,102,1,1
90,58,19,32,1
66,34,0,10,1
47,8,133,52,1
160,202,25,70,1
116,109,62,3,1
108,141,35,19,1
148,13,0,76,1
83,29,39,144,1
34,43,22,68,1
32,14,17,45,1
3,62,22,34,1
48,33,26,38,1
75,59,33,9,1
27,7,116,24,1
56,12,0,1,1
30,64,69,61,1
5,112,46,28,1
88,47,14,33,1
18,135,0,66,1
50,86,64,13,1
48,203,25,49,1
179,154,65,1,1
63,63,6,45,1
10,58,63,133,1
11,57,35,1,1
57,211,47,16,1
52,46,46,47,1
80,42,20,86,1
123,39,10,11,1
119,195,3,35,1
31,47,25,5,1
129,157,77,76,1
3,76,0,9,1
116,109,55,63,1
8,11,46,2,1
73,71,15,29,1
3,27,0,4,1
186,213,12,67,1
6,31,0,128,1
34,113,75,110,1
41,49,0,43,1
105,11,92,175,1
0,7,59,1,1
28,147,37,50,1
124,99,43,49,1
59,39,0,23,1
62,21,39,6,1
111,183,83,71,1
137,7,84,2,1
57,25,12,72,1
19,59,0,18,1
36,139,0,71,1
24,150,54,106,1
126,158,47,140,1
85,130,86,38,1
13,166,19,56,1
40,15,54,103,1
17,73,0,26,1
168,162,42,16,1
16,16,12,3,1
152,250,47,5,1
68,114,8,2,1
108,72,32,49,1
113,20,3,27,1
3,21,15,19,1
79,8,38,146,1
191,116,5,25,1
66,122,104,27,1
180,167,7,40,1
19,78,0,188,1
59,27,14,193,1
141,75,0,13,1
82,26,16,3,1
127,147,1,129,1
5,84,49,58,1
34,25,50,54,1
88,61,77,104,1
30,13,98,20,1
105,31,80,75,1
34,7,78,61,1
157,109,0,39,1
132,172,142,105,1
34,45,21,72,1
108,167,197,20,1
56,50,7,57,1
110,43,174,23,1
161,155,22,288,1
4,7,88,133,1
137,53,35,46,1
10,45,122,34,1
32,256,19,22,1
144,94,114,130,1
29,26,125,118,1
49,167,253,1,1
6,10,50,148,1
99,105,200,150,1
97,148,202,39,1
9,14,17,68,1
65,45,57,43,1
7,27,80,131,1
4,42,127,82,1
28,57,322,87,1
148,77,115,256,1
94,248,0,76,1
75,129,0,113,1
126,87,276,81,1
11,73,2,66,1
187,89,123,136,1
37,79,97,153,1
0,29,80,9,1
199,33,21,122,1
323,199,63,105,1
36,133,15,48,1
11,30,65,137,1
24,136,9,217,1
25,153,125,134,1
23,57,59,373,1
20,56,0,281,1
37,195,274,43,1
20,68,152,27,1
104,43,301,168,1
63,87,14,137,1
66,56,25,169,1
156,7,396,289,1
48,123,2,125,1
94,53,322,104,1
12,95,24,56,1
11,148,257,98,1
258,230,132,75,1
74,95,151,74,1
48,36,178,88,1
299,191,16,91,1
38,118,121,8,1
377,19,104,56,1
209,52,261,184,1
136,10,228,104,1
4,40,137,493,1
140,63,300,269,1
29,7,26,263,1
105,106,239,266,1
130,13,53,134,1
7,92,115,152,1
105,145,348,112,1
59,15,114,207,1
144,17,0,390,1
27,99,124,144,1
38,16,172,294,1
1,252,36,229,1
16,84,28,220,1
63,45,154,34,1
198,125,20,11,1
95,199,21,18,1
147,125,135,104,1
3,63,103,84,1
126,154,223,650,1
3,112,9,494,1
67,190,325,79,1
243,217,98,224,1
106,24,131,41,1
96,57,24,63,1
24,105,99,173,1
97,202,1,260,1
34,81,110,225,1
140,316,90,36,1
4,220,36,42,1
230,83,140,401,1
107,31,48,342,1
48,87,515,352,1
26,29,77,56,1
63,103,182,143,1
107,54,27,522,1
126,65,365,667,1
0,228,17,196,1
12,46,104,15,1
133,156,119,26,1
134,262,82,159,1
105,104,94,138,1
71,81,64,135,1
156,111,266,70,1
170,461,49,26,1
94,261,98,499,1
176,103,54,40,1
192,42,157,471,1
101,54,9,172,1
231,104,224,469,1
71,44,202,68,1
178,55,53,283,1
126,104,139,27,1
214,28,393,97,1
306,68,95,495,1
103,36,653,314,1
111,213,153,67,1
12,200,29,179,1
115,277,75,219,1
14,57,325,205,1
0,25,13,15,1
160,159,446,177,1
19,369,414,15,1
6,225,330,77,1
86,141,344,13,1
32,84,56,346,1
203,57,1023,228,1
127,73,37,187,1
97,127,659,268,1
108,60,15,303,1
214,70,386,124,1
101,92,69,173,1
193,191,491,95,1
34,193,211,48,1
51,24,406,134,1
11,26,46,290,1
128,71,102,258,1
73,161,35,250,1
165,189,124,296,1
146,9,820,204,1
54,207,40,37,1
168,84,188,31,1
51,66,430,68,1
367,23,206,542,1
299,276,334,134,1
14,189,7,31,1
267,13,323,397,1
81,107,140,320,1
17,77,444,142,1
149,36,348,248,1
3,236,132,606,1
41,359,295,312,1
237,179,273,92,1
3,14,25,376,1
4,18,19,122,1
29,132,544,419,1
60,111,630,305,1
33,95,444,257,1
186,34,123,304,1
105,121,547,113,1
19,31,355,91,1
119,15,466,197,1
110,173,1,24,1
88,73,609,39,1
183,165,262,132,1
71,17,220,67,1
3,14,375,9,1
388,273,25,126,1
90,361,6,290,1
14,17,51,8,1
132,13,429,25,1
220,15,235,110,1
23,161,11,143,1
90,7,26,112,1
8,51,222,56,1
52,124,567,184,1
11,106,283,278,1
130,45,384,133,1
0,31,511,327,1
8,39,91,204,1
45,179,116,155,1
201,10,546,380,1
95,181,562,257,1
81,301,313,531,1
198,25,624,155,1
38,18,562,305,1
74,77,324,197,1
282,137,412,500,1
3,72,191,19,1
156,24,386,378,1
255,71,72,130,1
280,55,323,374,1
441,252,1023,140,1
225,94,26,212,1
19,87,247,131,1
17,87,585,368,1
59,55,245,291,1
10,19,223,249,1
60,128,473,335,1
28,53,329,518,1
110,124,55,29,1
118,191,513,283,1
4,177,1023,540,1
156,198,104,238,1
158,29,83,28,1
150,52,29,65,1
153,123,71,106,1
131,35,194,80,1
211,103,33,241,1
44,73,511,252,1
108,133,264,147,1
106,66,556,379,1
170,94,835,213,1
288,84,306,30,1
101,14,111,217,1
119,17,245,146,1
6,38,198,156,1
95,218,339,171,1
36,5,357,39,1
24,189,132,107,1
166,15,790,581,1
11,126,605,44,1
130,62,363,308,1
285,44,0,175,1
199,57,248,58,1
56,11,34,182,1
152,61,267,146,1
28,10,179,46,1
208,142,82,182,1
79,43,328,537,1
76,150,122,32,1
242,73,285,302,1
161,113,21,166,1
140,201,8,26,1
177,205,117,3,1
275,99,533,259,1
19,138,40,6,1
9,49,281,69,1
5,36,549,830,1
195,80,557,52,1
184,56,163,255,1
118,188,640,551,1
76,123,405,373,1
10,163,6,331,1
128,175,192,10,1
173,9,294,157,1
2,327,245,150,1
84,95,240,92,1
7,65,194,220,1
214,497,386,194,1
58,155,244,263,1
19,44,388,29,1
43,29,327,167,1
1,54,475,132,1
3,38,17,111,1
40,15,339,237,1
115,190,72,104,1
27,28,81,12,1
83,100,75,92,1
70,208,20,232,1
85,68,87,106,1
79,91,209,244,1
98,187,291,31,1
184,425,37,81,1
78,10,0,27,1
45,49,141,197,1
71,111,5,217,1
137,85,175,108,1
85,11,216,21,1
123,62,201,104,1
140,14,130,233,1
107,225,41,53,1
47,107,166,225,1
40,46,28,157,1
84,185,177,232,1
5,25,94,180,1
92,47,268,276,1
148,111,224,113,1
8,31,42,217,1
198,75,254,183,1
101,109,142,9,1
37,107,4,38,1
33,96,54,193,1
48,131,97,125,1
34,87,77,2,1
75,67,158,23,1
77,74,308,63,1
147,65,157,59,1
131,162,44,47,1
120,159,7,189,1
164,141,32,85,1
37,197,0,60,1
71,79,153,174,1
42,14,102,30,1
47,126,212,106,1
110,11,59,131,1
46,59,232,55,1
107,49,0,324,1
16,31,200,184,1
194,39,132,325,1
35,43,396,247,1
47,66,562,200,1
106,15,19,688,1
154,288,265,402,1
17,53,126,125,1
53,68,112,230,1
148,146,145,132,1
72,84,271,168,1
60,147,0,111,1
18,23,42,12,1
45,19,162,63,1
63,14,37,134,1
40,189,72,221,1
263,248,276,59,1
6,158,104,278,1
23,70,174,300,1
65,45,198,466,1
2,39,37,198,1
160,79,1,156,1
90,84,138,103,1
78,77,52,80,1
42,168,16,184,1
19,58,149,120,1
0,236,83,137,1
53,201,455,187,1
210,31,229,254,1
20,20,295,350,1
27,17,334,23,1
110,9,49,90,1
34,76,0,69,1
142,17,172,57,1
91,62,79,258,1
25,100,319,139,1
150,70,217,55,1
43,17,61,93,1
102,94,46,239,1
152,14,84,20,1
347,33,34,92,1
7,13,47,24,1
3,10,191,122,1
98,96,245,122,1
80,16,0,52,1
23,127,43,47,1
41,56,32,239,1
111,9,196,81,1
50,109,246,161,1
125,29,141,173,1
66,46,0,70,1
19,91,185,149,1
69,35,164,0,1
169,182,20,142,1
161,21,0,64,1
135,20,0,39,1
186,10,70,218,1
55,78,113,149,1
7,13,31,19,1
28,6,35,20,1
52,131,74,69,1
19,7,3,2,1
6,35,52,189,1
37,64,150,72,1
40,147,0,52,1
3,37,144,15,1
84,85,373,65,1
7,32,110,138,1
24,64,312,86,1
93,68,51,84,1
179,57,84,215,1
32,141,59,145,1
137,124,189,1,1
99,340,184,122,1
245,456,304,126,1
40,121,118,78,1
73,123,118,67,1
23,7,89,121,1
28,8,88,133,1
124,52,74,51,1
85,15,0,77,1
105,20,0,65,1
18,48,19,135,1
7,75,57,71,1
84,51,83,92,1
0,100,32,14,1
42,18,1,46,1
118,69,67,316,1
127,17,94,90,1
85,10,157,30,1
10,35,37,137,1
80,80,152,16,1
4,115,188,31,1
2,8,94,44,1
2,24,126,261,1
22,7,30,33,1
84,86,95,7,1
56,65,93,87,1
90,67,169,36,1
6,13,78,29,1
141,141,161,58,1
154,37,45,96,1
44,35,37,208,1
142,108,26,34,1
190,89,214,201,1
66,12,0,156,1
28,116,341,255,1
15,19,88,5,1
73,27,177,53,1
47,112,26,49,1
51,205,41,61,1
20,58,34,56,1
130,136,147,69,1
66,30,1,30,1
59,10,70,160,1
38,41,88,57,1
82,28,8,53,1
17,44,51,104,1
96,84,111,104,1
27,84,64,185,1
6,152,108,263,1
45,37,27,21,1
71,163,0,35,1
48,232,52,25,1
30,18,105,52,1
37,46,63,41,1
157,207,8,22,1
25,7,46,2,1
16,18,0,27,1
21,11,131,98,1
74,52,21,84,1
142,72,88,8,1
1,212,21,66,1
22,29,23,41,1
18,5,51,89,1
66,17,9,3,1
75,25,77,7,1
3,6,0,131,1
11,18,87,37,1
85,14,100,1,1
53,15,30,35,1
35,46,115,85,1
14,48,15,95,1
14,127,30,75,1
112,315,58,4,1
83,178,38,29,1
139,78,92,126,1
21,6,47,43,1
51,63,78,56,1
57,8,1,27,1
14,28,89,73,1
115,41,98,4,1
166,41,35,11,1
73,49,20,41,1
84,17,44,91,1
35,65,14,147,1
117,72,111,5,1
12,101,51,11,1
26,72,54,43,1
7,16,44,32,1
147,155,30,48,1
41,15,37,30,1
96,98,83,2,1
31,36,115,129,1
73,45,122,27,1
0,9,32,23,1
48,76,9,10,1
80,118,48,8,1
77,188,0,38,1
87,107,113,110,1
14,19,141,19,1
58,21,77,269,1
15,7,108,69,1
18,111,37,19,1
64,5,5,12,1
46,71,0,8,1
95,137,40,20,1
84,192,98,33,1
76,28,41,12,1
31,113,4,114,1
50,49,0,5,1
31,25,27,1,1
48,56,0,32,1
109,99,4,4,1
179,147,3,2,1
33,182,38,79,1
136,160,77,25,1
52,103,4,39,1
42,50,16,140,1
1,49,120,67,1
85,9,21,80,1
9,21,278,217,1
60,181,80,83,1
47,61,172,32,1
77,117,57,101,1
51,195,0,14,1
183,55,24,15,1
95,120,16,105,1
61,173,38,8,1
132,88,29,69,1
72,68,181,114,1
7,67,192,16,1
97,18,166,42,1
28,189,162,17,1
37,15,161,13,1
10,12,99,316,1
109,15,84,350,1
65,83,313,205,1
55,91,72,205,1
115,36,0,18,1
9,42,27,42,1
22,20,92,11,1
117,12,81,321,1
8,105,45,3,1
252,81,187,38,1
229,25,33,11,1
112,125,43,82,1
138,30,139,165,1
232,46,223,311,1
187,22,25,64,1
73,32,85,1,1
287,272,268,105,1
16,11,130,216,1
53,56,139,110,1
49,146,108,1,1
13,60,80,129,1
55,121,169,41,1
41,45,123,38,1
61,24,85,99,1
1,43,36,76,1
94,164,0,14,1
253,94,294,182,1
6,114,143,101,1
50,297,186,54,1
68,225,512,300,1
78,101,78,84,1
70,27,48,152,1
7,20,206,12,1
13,143,261,176,1
232,128,38,20,1
63,7,17,238,1
67,115,109,157,1
135,135,100,134,1
11,148,95,76,1
5,167,33,291,1
121,64,183,4,1
225,68,29,231,1
328,18,195,79,1
4,140,211,195,1
68,131,406,115,1
223,37,185,107,1
51,103,577,48,1
71,8,0,377,1
107,7,403,161,1
114,116,167,221,1
189,79,141,2,1
0,113,59,285,1
83,83,271,153,1
41,106,178,235,1
22,220,166,14,1
174,8,304,67,1
102,206,263,392,1
18,114,475,926,1
23,9,235,100,1
84,6,450,400,1
115,45,63,30,1
9,116,327,80,1
116,36,47,61,1
215,163,21,57,1
24,52,42,29,1
179,130,145,107,1
33,72,67,33,1
54,197,91,169,1
0,29,216,493,1
220,60,301,176,1
19,49,14,164,1
178,64,222,130,1
66,156,527,74,1
231,78,438,54,1
74,86,13,82,1
154,20,228,312,1
108,18,243,49,1
230,15,0,201,1
111,8,145,56,1
117,188,244,95,1
9,13,48,48,1
178,133,127,54,1
99,29,174,256,1
60,226,196,84,1
47,423,262,389,1
205,344,79,258,1
63,11,597,243,1
93,43,332,102,1
11,44,653,119,1
41,75,376,394,1
81,354,102,244,1
206,108,4,138,1
149,21,350,308,1
90,6,234,26,1
1,28,0,558,1
79,102,67,406,1
2,49,574,415,1
46,146,484,222,1
114,31,62,390,1
124,46,334,50,1
210,21,265,30,1
119,12,665,285,1
21,110,6,268,1
54,130,699,261,1
81,133,564,847,1
124,71,107,8,1
261,106,284,112,1
7,282,44,183,1
123,106,607,352,1
123,165,448,374,1
380,152,277,108,1
25,132,281,301,1
140,216,110,27,1
71,16,313,278,1
126,124,161,110,1
93,61,291,176,1
32,72,154,46,1
84,135,678,329,1
149,27,288,138,1
291,89,915,387,1
35,6,32,204,1
75,28,0,78,1
137,291,321,919,1
40,451,190,230,1
128,352,821,71,1
119,164,498,226,1
18,234,657,272,1
141,65,337,190,1
213,78,425,771,1
159,9,527,74,1
103,119,590,222,1
145,187,729,530,1
227,200,585,66,1
1,6,438,122,1
30,134,102,72,1
21,106,623,120,1
135,264,48,428,1
3,61,655,717,1
120,137,119,102,1
87,250,166,472,1
303,183,8,97,1
144,224,352,34,1
312,430,97,45,1
16,132,208,396,1
132,58,477,24,1
23,10,299,3,1
18,6,35,64,1
25,13,62,76,1
199,103,373,346,1
47,30,268,21,1
80,77,754,228,1
160,111,227,312,1
149,116,500,165,1
66,74,78,103,1
361,113,644,165,1
122,198,245,166,1
29,31,7,149,1
97,227,459,197,1
157,77,87,33,1
286,45,45,261,1
70,113,23,654,1
19,76,154,244,1
29,14,0,138,1
61,135,28,40,1
86,23,80,8,1
127,232,191,73,1
110,21,186,173,1
331,56,217,16,1
194,68,781,149,1
47,30,748,378,1
103,83,404,58,1
101,20,271,424,1
2,106,203,246,1
69,48,0,53,1
37,158,365,6,1
61,120,249,300,1
207,275,233,89,1
20,102,150,24,1
10,282,407,245,1
252,126,290,181,1
50,15,960,262,1
286,85,0,131,1
15,49,25,93,1
249,154,171,321,1
157,88,235,127,1
77,43,269,95,1
117,144,139,87,1
95,31,465,447,1
40,131,724,735,1
235,82,434,140,1
73,63,158,154,1
208,26,773,356,1
170,5,277,38,1
72,95,145,61,1
31,27,225,110,1
33,9,405,44,1
126,68,87,13,1
169,66,192,29,1
19,95,289,16,1
92,54,206,1,1
248,145,539,86,1
362,12,505,294,1
146,86,414,285,1
46,189,0,275,1
19,57,184,140,1
36,161,601,570,1
351,53,393,274,1
1,54,195,340,1
203,79,561,174,1
165,85,36,203,1
18,107,307,371,1
210,95,21,82,1
244,140,2,66,1
35,76,4,252,1
129,75,320,79,1
46,44,125,157,1
64,79,157,75,1
267,32,396,361,1
16,169,730,274,1
104,110,381,68,1
77,23,302,282,1
87,273,5,199,1
1,176,237,132,1
181,278,20,12,1
15,149,409,113,1
60,175,83,265,1
8,89,715,50,1
74,39,15,107,1
6,30,162,229,1
184,26,38,234,1
142,7,156,100,1
248,86,80,232,1
91,79,125,230,1
19,93,77,53,1
216,60,140,108,1
262,244,74,242,1
23,114,87,148,1
65,47,7,63,1
61,88,316,206,1
65,145,232,406,1
16,23,230,344,1
302,96,116,486,1
142,198,183,257,1
119,89,104,249,1
1,9,115,178,1
21,34,59,50,1
250,145,68,19,1
14,26,349,59,1
42,90,210,65,1
320,184,72,77,1
133,39,618,237,1
198,215,578,526,1
173,185,143,157,1
36,15,68,311,1
161,63,87,41,1
52,54,92,121,1
7,52,137,239,1
152,8,80,248,1
43,20,47,317,1
230,84,72,158,1
21,54,37,12,1
220,9,0,76,1
141,224,187,286,1
182,75,345,158,1
112,98,53,81,1
5,250,75,150,1
196,46,353,299,1
165,110,234,153,1
32,105,461,360,1
35,163,363,56,1
102,65,11,129,1
59,28,18,57,1
24,11,135,44,1
27,63,261,144,1
179,11,139,177,1
36,10,2,157,1
67,117,143,181,1
9,13,212,193,1
96,126,370,137,1
152,136,404,245,1
15,351,7,435,1
216,57,118,71,1
313,206,76,96,1
80,70,422,431,1
119,226,83,192,1
69,248,66,22,1
49,157,99,91,1
106,39,45,51,1
19,23,67,68,1
174,84,116,31,1
19,40,233,324,1
31,26,148,10,1
106,31,96,91,1
32,84,112,210,1
51,35,111,204,1
128,261,261,34,1
114,151,1,250,1
17,91,208,178,1
24,137,0,137,1
46,273,41,6,1
29,119,32,27,1
15,33,220,126,1
67,87,126,85,1
176,170,500,166,1
20,122,109,16,1
156,48,193,207,1
4,123,182,67,1
24,47,99,4,1
45,45,9,14,1
151,60,1,70,1
109,76,270,133,1
133,197,99,475,1
185,43,397,312,1
136,138,126,58,1
156,6,24,24,1
24,10,1,23,1
33,164,0,49,1
55,46,178,6,1
6,12,87,42,1
161,59,325,70,1
1,50,120,266,1
146,60,55,23,1
136,16,11,74,1
165,104,124,44,1
91,148,50,71,1
14,26,0,103,1
127,85,259,107,1
17,47,141,121,1
46,291,54,51,1
11,61,2,8,1
1,34,1,8,1
62,149,19,25,1
67,101,54,43,1
94,40,24,215,1
61,30,176,402,1
52,67,0,81,1
77,32,35,36,1
45,51,8,94,1
48,50,154,80,1
8,93,59,2,1
62,38,5,25,1
57,30,99,256,1
29,165,10,197,1
10,6,23,91,1
135,221,99,87,1
103,100,57,82,1
357,359,238,153,1
161,53,115,158,1
57,221,137,164,1
113,95,0,89,1
34,11,136,38,1
45,43,11,7,1
69,16,32,176,1
3,18,104,1,1
132,101,1,54,1
66,6,4,18,1
134,17,143,1,1
137,45,15,136,1
27,13,143,176,1
96,48,117,74,1
3,73,123,147,1
28,161,22,219,1
75,232,43,2,1
70,41,78,106,1
47,185,63,7,1
97,82,0,27,1
182,193,247,71,1
241,255,156,144,1
116,199,76,1,1
144,76,109,13,1
19,125,71,2,1
108,190,31,25,1
108,58,83,2,1
54,9,10,52,1
93,8,0,10,1
6,36,83,67,1
22,39,42,21,1
62,29,69,96,1
95,8,60,13,1
89,220,25,28,1
116,11,10,42,1
3,50,34,78,1
117,23,0,3,1
52,119,85,100,1
43,35,85,73,1
0,54,92,96,1
162,154,78,45,1
28,11,23,16,1
0,105,0,17,1
58,39,29,1,1
7,10,4,34,1
75,84,60,69,1
45,19,29,52,1
71,127,5,16,1
102,18,13,17,1
34,74,22,11,1
18,12,34,40,1
159,198,4,2,1
79,75,15,14,1
11,47,41,76,1
36,7,47,122,1
82,9,143,52,1
104,78,11,66,1
1,70,24,15,1
68,72,20,9,1
22,27,4,26,1
63,9,56,3,1
125,150,25,29,1
103,71,32,6,1
53,38,69,125,1
39,37,0,75,1
94,90,3,77,1
9,7,106,105,1
25,72,5,160,1
62,58,126,59,1
75,201,19,29,1
118,10,97,186,1
63,188,0,53,1
14,7,32,29,1
137,97,31,6,1
78,57,8,18,1
94,115,0,31,1
108,86,59,34,1
49,61,9,1,1
47,37,44,62,1
28,83,0,19,1
11,42,43,8,1
44,15,24,2,1
2,27,0,1,1
88,9,27,97,1
107,204,89,82,1
28,116,23,29,1
73,31,124,109,1
53,8,27,154,1
30,29,108,25,1
3,119,50,2,1
41,97,77,33,1
51,98,2,36,1
47,57,29,49,1
10,56,21,1,1
20,72,0,2,1
18,23,96,49,1
31,86,0,14,1
3,35,61,49,1
15,18,30,40,1
0,23,0,57,1
165,123,4,39,1
17,42,0,24,1
78,170,25,32,1
19,160,14,90,1
5,62,0,36,1
3,23,2,22,1
40,5,25,13,1
79,95,15,67,1
73,83,24,69,1
12,14,0,9,1
28,96,59,184,1
80,58,0,44,1
21,116,17,94,1
100,65,21,77,1
26,23,1,15,1
130,115,9,60,1
43,34,10,9,1
18,8,49,96,1
18,54,12,40,1
4,15,90,23,1
159,159,125,47,1
61,31,30,83,1
52,151,65,134,1
93,307,58,45,1
16,41,34,105,1
83,177,9,132,1
70,42,138,143,1
9,138,0,331,1
56,164,92,178,1
35,146,54,102,1
102,49,75,45,1
172,164,2,95,1
34,26,15,10,1
8,30,52,41,1
115,6,89,207,1
158,12,3,54,1
32,38,106,199,1
145,48,223,312,1
55,123,67,69,1
144,6,209,128,1
10,64,211,143,1
71,43,0,100,1
5,55,32,108,1
86,159,0,7,1
110,48,3,14,1
114,54,85,6,1
208,11,0,12,1
153,215,0,264,1
121,242,125,183,1
101,214,67,39,1
28,73,153,53,1
23,40,29,151,1
47,40,199,152,1
161,173,32,82,1
139,80,0,99,1
74,93,152,203,1
25,108,135,402,1
101,35,40,186,1
252,200,123,158,1
85,99,98,169,1
269,190,212,92,1
15,66,0,92,1
224,15,136,316,1
72,102,239,341,1
37,33,188,168,1
157,159,133,114,1
269,252,51,12,1
323,316,138,108,1
37,31,153,87,1
90,230,358,348,1
109,38,120,53,1
5,73,252,146,1
71,24,236,174,1
2,169,315,169,1
82,70,37,304,1
34,78,248,358,1
141,14,7,150,1
191,9,17,115,1
256,11,100,5,1
1,14,87,380,1
217,188,102,102,1
72,277,267,302,1
49,62,42,100,1
7,280,335,1,1
3,125,606,66,1
67,10,280,140,1
62,173,581,248,1
59,44,211,175,1
315,177,293,135,1
163,58,140,118,1
137,314,126,236,1
95,199,238,196,1
3,81,110,213,1
14,124,23,162,1
197,116,36,90,1
112,205,0,284,1
11,53,352,272,1
82,249,238,22,1
23,45,34,321,1
39,55,9,83,1
40,94,2,123,1
54,473,43,50,1
184,19,36,225,1
51,176,258,71,1
82,76,73,237,1
36,13,94,141,1
114,162,52,219,1
9,124,54,61,1
82,23,40,32,1
29,250,40,24,1
92,17,14,479,1
129,238,410,468,1
8,50,5,5,1
193,264,210,135,1
105,121,155,122,1
30,77,99,345,1
14,86,257,182,1
222,130,107,62,1
55,143,1,211,1
119,64,247,492,1
182,36,11,34,1
212,287,385,112,1
66,60,114,91,1
137,29,200,283,1
21,6,341,39,1
37,203,191,112,1
22,167,134,246,1
25,38,268,115,1
19,95,429,187,1
176,175,239,536,1
174,128,66,282,1
63,18,431,179,1
365,150,347,192,1
257,42,301,200,1
48,162,108,211,1
117,139,256,480,1
60,45,285,215,1
107,203,233,295,1
290,228,80,144,1
65,62,96,211,1
329,62,125,241,1
45,286,114,477,1
245,399,309,144,1
157,213,0,326,1
138,27,47,3,1
2,235,461,114,1
170,164,69,203,1
109,76,448,49,1
59,82,581,57,1
232,141,874,359,1
271,144,191,347,1
49,39,125,325,1
57,26,579,33,1
229,132,96,210,1
62,25,318,258,1
9,183,10,124,1
215,226,214,156,1
6,50,0,26,1
440,74,393,294,1
454,23,129,65,1
203,189,479,323,1
330,418,227,109,1
282,344,20,139,1
253,18,698,164,1
44,198,305,297,1
313,46,775,151,1
32,278,332,288,1
93,66,859,114,1
63,361,821,35,1
14,105,53,144,1
67,88,0,448,1
5,20,23,43,1
51,75,287,3,1
162,47,28,205,1
232,116,284,596,1
156,138,10,425,1
247,67,544,829,1
55,485,50,358,1
143,179,339,323,1
84,17,514,51,1
231,202,706,308,1
341,52,488,113,1
57,505,317,191,1
78,188,668,285,1
210,72,721,159,1
15,89,0,239,1
229,61,108,50,1
217,65,90,95,1
269,70,467,138,1
95,17,676,198,1
49,77,204,316,1
202,225,655,354,1
91,116,836,245,1
186,235,286,331,1
125,141,136,206,1
31,15,162,261,1
4,89,440,131,1
54,296,420,21,1
281,192,454,58,1
81,163,715,431,1
237,7,74,314,1
38,11,118,131,1
105,95,783,593,1
63,39,257,274,1
132,215,316,59,1
20,37,702,803,1
408,23,387,712,1
95,147,324,235,1
12,420,866,314,1
152,22,150,30,1
135,43,648,881,1
48,42,574,450,1
76,74,27,125,1
95,102,51,175,1
218,169,1023,349,1
131,181,1023,47,1
58,63,35,343,1
111,199,809,303,1
275,258,1023,575,1
45,24,431,33,1
83,68,508,316,1
13,145,372,61,1
73,18,0,44,1
233,63,712,85,1
57,125,636,50,1
333,160,375,255,1
140,129,235,27,1
16,38,173,577,1
121,16,123,206,1
154,303,420,762,1
8,317,765,586,1
223,138,71,8,1
51,45,17,260,1
158,108,356,428,1
18,35,397,50,1
53,129,27,81,1
10,98,860,207,1
35,47,1023,317,1
185,138,395,314,1
60,36,496,808,1
131,12,516,246,1
139,9,1023,250,1
124,192,153,49,1
109,58,80,210,1
14,16,89,204,1
108,500,32,435,1
91,61,157,363,1
129,169,596,54,1
132,202,47,117,1
60,21,343,445,1
159,29,371,341,1
83,41,424,349,1
127,129,217,98,1
47,155,276,147,1
91,10,585,318,1
31,222,44,29,1
8,49,225,8,1
31,100,10,190,1
76,21,2,269,1
190,261,107,1,1
289,7,66,48,1
234,73,100,101,1
135,80,121,244,1
14,129,221,9,1
4,23,364,254,1
93,77,470,77,1
6,14,259,205,1
76,9,386,7,1
10,179,218,35,1
14,55,387,24,1
204,202,0,342,1
260,30,0,186,1
65,324,426,167,1
27,172,171,183,1
22,390,126,6,1
22,160,64,26,1
93,38,258,67,1
63,16,232,254,1
201,75,87,106,1
152,108,16,18,1
113,26,79,35,1
105,72,600,190,1
368,111,215,393,1
154,75,382,45,1
7,27,302,829,1
137,113,8,116,1
75,181,75,16,1
12,9,178,18,1
199,154,14,279,1
58,155,146,474,1
150,162,1,41,1
184,106,550,521,1
91,32,55,168,1
144,158,278,218,1
123,150,51,21,1
30,71,33,32,1
115,82,75,333,1
166,26,0,128,1
235,111,140,236,1
31,36,0,39,1
325,7,206,314,1
257,251,102,16,1
61,51,151,163,1
126,303,91,197,1
7,108,91,162,1
229,557,188,230,1
339,105,367,43,1
36,33,225,223,1
85,149,52,103,1
47,181,179,154,1
89,9,355,212,1
148,52,212,209,1
70,137,494,103,1
36,42,131,120,1
145,25,68,879,1
156,117,60,319,1
27,8,2,110,1
111,85,363,122,1
27,124,313,142,1
122,151,20,170,1
273,22,150,292,1
92,36,27,74,1
5,158,75,68,1
37,9,220,149,1
31,110,502,426,1
201,43,222,57,1
1,78,158,96,1
185,24,339,149,1
106,45,320,47,1
0,33,168,121,1
5,10,165,134,1
238,91,74,31,1
21,14,0,78,1
48,84,0,101,1
1,290,49,139,1
158,14,130,272,1
144,102,237,514,1
11,127,147,1,1
142,88,3,25,1
1,96,215,157,1
200,118,89,70,1
15,158,353,146,1
342,107,197,436,1
137,51,18,130,1
179,90,39,620,1
27,14,42,264,1
47,7,320,45,1
55,64,70,114,1
133,199,180,231,1
90,18,15,236,1
115,69,354,130,1
72,48,456,294,1
38,102,477,576,1
189,211,241,277,1
220,167,252,321,1
91,45,35,116,1
49,18,37,7,1
29,153,36,4,1
29,24,97,201,1
0,36,18,35,1
76,8,214,289,1
65,14,241,209,1
45,30,37,77,1
74,150,218,41,1
11,80,0,203,1
298,80,166,130,1
94,122,48,137,1
81,106,43,173,1
100,80,0,8,1
78,162,73,47,1
100,157,399,385,1
147,175,182,14,1
68,190,241,282,1
146,105,282,366,1
19,23,132,7,1
78,13,77,183,1
16,166,107,573,1
9,29,35,201,1
68,8,7,23,1
66,8,66,39,1
105,11,11,41,1
97,86,102,159,1
5,26,107,20,1
21,202,322,372,1
134,305,189,147,1
320,116,55,24,1
142,164,102,121,1
97,136,29,4,1
79,158,171,297,1
95,62,71,166,1
76,168,371,217,1
26,82,156,49,1
91,169,219,265,1
1,20,166,59,1
49,58,114,46,1
36,42,182,189,1
44,108,211,49,1
88,50,213,377,1
15,175,150,20,1
33,21,19,90,1
33,245,81,16,1
6,212,19,2,1
66,31,63,7,1
32,269,1,72,1
21,44,105,67,1
29,8,60,81,1
10,9,65,97,1
118,81,19,6,1
54,164,295,327,1
13,20,9,16,1
43,49,290,107,1
13,18,25,65,1
94,56,357,231,1
2,52,0,40,1
16,125,46,131,1
58,83,12,82,1
68,7,34,22,1
9,12,60,62,1
11,118,0,19,1
0,10,0,27,1
112,21,40,19,1
19,31,0,45,1
8,155,28,12,1
74,66,56,21,1
40,37,33,38,1
220,140,49,37,1
130,23,71,31,1
135,143,0,68,1
4,50,36,56,1
0,25,0,67,1
6,82,2,163,1
14,52,10,129,1
86,95,0,44,1
37,124,122,100,1
63,75,37,72,1
49,22,47,6,1
78,9,0,28,1
64,181,1,45,1
11,143,25,88,1
9,39,7,35,1
3,58,53,2,1
180,167,0,33,1
86,117,14,90,1
139,106,35,27,1
103,35,7,9,1
8,7,27,152,1
262,169,1,78,1
132,98,49,108,1
82,16,46,73,1
115,156,4,64,1
74,100,70,3,1
119,220,10,1,1
68,103,44,20,1
130,145,5,200,1
61,20,45,106,1
269,116,72,92,1
142,95,15,93,1
19,54,232,222,1
135,164,4,67,1
31,29,223,154,1
17,17,16,6,1
163,119,28,24,1
34,57,15,70,1
23,54,0,117,1
9,22,31,39,1
104,111,72,207,1
1,124,23,102,1
47,28,71,66,1
16,188,0,132,1
80,60,0,74,1
103,52,15,20,1
19,170,0,11,1
52,32,0,6,1
99,9,45,71,1
138,243,0,125,1
79,154,93,24,1
80,52,53,151,1
11,14,50,116,1
120,172,30,37,1
6,31,6,29,1
165,134,35,57,1
103,95,17,49,1
27,59,37,30,1
3,44,46,3,1
6,16,33,22,1
77,11,46,22,1
154,138,0,8,1
111,98,23,20,1
58,54,6,39,1
6,311,91,1,1
175,223,44,122,1
85,44,31,37,1
52,140,0,50,1
56,149,59,88,1
20,14,28,87,1
11,5,27,32,1
23,28,46,64,1
2,30,7,95,1
123,98,0,49,1
70,70,91,48,1
24,37,46,28,1
77,127,0,14,1
75,114,20,48,1
116,110,55,55,1
63,190,15,55,1
138,31,0,1,1
0,27,34,63,1
56,71,54,108,1
108,193,75,18,1
86,17,35,10,1
0,37,25,54,1
88,132,39,2,1
73,56,80,24,1
8,85,57,29,1
13,53,54,7,1
42,17,18,10,1
36,222,0,8,1
32,170,35,45,1
35,53,41,69,1
19,19,0,41,1
126,15,0,26,1
106,50,81,67,1
17,19,14,5,1
113,24,88,22,1
3,35,17,77,1
59,68,4,104,1
0,20,75,40,1
13,19,38,4,1
135,104,0,63,1
42,46,4,16,1
158,169,95,125,1
8,71,33,63,1
46,62,119,38,1
27,49,0,1,1
25,40,124,1,1
53,140,25,50,1
37,129,41,48,1
1,6,64,143,1
33,15,0,48,1
81,5,124,196,1
37,8,0,33,1
62,6,53,87,1
15,127,0,73,1
37,7,4,74,1
55,39,0,2,1
68,74,79,45,1
8,105,60,11,1
151,312,39,13,1
154,122,130,119,1
111,87,118,53,1
4,59,131,41,1
68,55,89,114,1
19,82,52,3,1
51,64,240,104,1
44,141,150,11,1
72,184,121,46,1
39,159,257,117,1
132,109,166,194,1
74,143,351,278,1
18,29,0,47,1
178,105,107,10,1
133,92,8,39,1
54,121,0,22,1
44,142,70,29,1
74,30,55,68,1
68,79,36,143,1
6,102,0,224,1
52,34,6,48,1
127,205,46,72,1
76,86,18,159,1
2,210,274,267,1
11,57,89,123,1
51,26,77,82,1
6,45,177,237,1
31,22,67,120,1
178,158,36,36,1
100,56,0,24,1
7,61,62,5,1
51,20,10,143,1
70,100,129,53,1
118,112,14,84,1
12,145,156,89,1
70,101,86,258,1
118,41,0,266,1
104,163,134,315,1
11,124,83,522,1
84,114,34,157,1
95,123,0,105,1
26,159,106,63,1
137,22,14,131,1
53,159,164,307,1
6,63,73,311,1
73,97,106,107,1
87,11,0,39,1
74,150,261,60,1
7,46,119,136,1
4,245,391,183,1
13,25,433,144,1
99,167,301,433,1
73,207,55,154,1
194,155,149,85,1
90,131,44,29,1
66,248,72,14,1
279,39,247,77,1
234,253,39,346,1
290,208,112,370,1
81,73,80,38,1
60,38,94,36,1
35,82,19,296,1
14,40,390,621,1
70,313,52,197,1
230,95,30,104,1
202,68,275,290,1
76,50,144,35,1
45,106,300,248,1
67,50,0,156,1
66,61,119,21,1
3,21,167,249,1
232,27,57,36,1
3,35,273,436,1
277,180,112,99,1
142,77,241,307,1
238,81,47,131,1
138,108,5,164,1
95,54,53,300,1
5,276,26,183,1
24,86,207,145,1
162,300,78,18,1
112,164,102,92,1
171,75,174,388,1
66,14,432,8,1
107,116,169,247,1
62,55,473,156,1
74,38,481,787,1
91,44,543,116,1
158,148,242,248,1
70,161,49,371,1
257,90,318,304,1
173,63,132,229,1
192,87,176,199,1
170,307,72,427,1
9,52,125,28,1
228,228,551,712,1
72,308,60,33,1
17,9,134,185,1
205,171,272,242,1
2,25,137,429,1
31,348,82,176,1
29,68,216,4,1
21,58,130,48,1
220,95,60,204,1
253,21,149,71,1
384,23,7,31,1
5,137,388,164,1
67,77,386,399,1
253,79,168,114,1
8,14,224,172,1
3,111,62,119,1
141,113,128,239,1
110,143,145,651,1
227,153,336,135,1
208,273,161,623,1
62,44,294,391,1
239,200,431,105,1
143,17,60,239,1
218,214,159,517,1
184,24,334,362,1
90,24,771,447,1
270,119,79,197,1
316,203,4,178,1
27,70,274,260,1
150,67,104,302,1
283,111,51,141,1
47,114,184,8,1
105,195,239,92,1
252,88,114,187,1
197,269,195,4,1
27,123,621,298,1
114,16,0,252,1
154,170,440,276,1
43,72,232,215,1
355,24,654,79,1
156,87,34,475,1
2,44,40,18,1
42,115,5,180,1
42,420,119,97,1
229,106,33,258,1
304,119,141,259,1
288,43,136,105,1
28,123,55,127,1
32,72,11,400,1
109,71,507,188,1
52,14,349,813,1
44,56,663,691,1
229,129,81,12,1
288,27,228,203,1
165,90,255,209,1
104,172,254,27,1
103,23,582,656,1
113,245,130,536,1
45,10,236,190,1
52,80,311,215,1
140,102,814,466,1
10,58,52,284,1
145,22,403,192,1
59,38,133,232,1
33,90,91,1006,1
101,10,161,213,1
377,67,107,28,1
61,60,384,158,1
92,64,529,136,1
355,319,65,104,1
250,116,167,461,1
35,170,449,151,1
10,153,251,123,1
431,288,610,149,1
263,458,145,116,1
35,175,468,62,1
26,140,345,88,1
131,43,411,45,1
223,60,285,578,1
295,39,326,221,1
74,28,177,252,1
321,90,422,26,1
201,87,84,153,1
353,159,823,878,1
93,153,25,177,1
0,124,267,836,1
60,237,742,303,1
183,46,25,157,1
197,130,582,385,1
94,109,42,173,1
307,8,237,90,1
37,24,330,206,1
170,543,1023,696,1
60,304,129,145,1
3,117,48,682,1
196,71,371,129,1
68,159,688,242,1
235,33,113,116,1
48,73,207,280,1
13,113,143,45,1
7,54,488,248,1
55,149,39,47,1
202,112,303,47,1
151,74,386,176,1
134,354,437,53,1
219,154,213,134,1
121,138,161,332,1
22,169,387,80,1
43,134,153,84,1
98,11,309,150,1
131,163,787,283,1
43,92,507,113,1
18,37,50,54,1
31,78,459,38,1
168,6,165,30,1
147,81,361,197,1
144,32,318,142,1
5,111,380,279,1
40,16,216,81,1
7,64,424,155,1
83,146,795,428,1
0,88,98,150,1
21,66,412,135,1
79,117,28,172,1
193,23,32,23,1
109,59,426,489,1
121,164,121,69,1
52,99,640,298,1
44,34,357,353,1
206,100,552,175,1
11,38,85,373,1
14,81,136,282,1
364,69,318,307,1
167,130,136,298,1
1,47,0,286,1
36,273,222,233,1
32,184,451,323,1
90,232,55,232,1
172,269,274,662,1
110,126,24,346,1
51,59,121,555,1
81,7,122,186,1
43,7,108,40,1
30,34,112,292,1
179,60,0,54,1
134,34,427,148,1
123,52,485,544,1
60,144,103,67,1
53,222,186,297,1
93,41,8,167,1
148,183,18,229,1
149,95,154,52,1
72,16,253,58,1
132,51,74,76,1
323,358,281,292,1
185,138,0,59,1
13,5,3,104,1
299,135,47,127,1
195,46,193,380,1
109,23,105,163,1
0,126,18,146,1
140,30,353,386,1
0,49,156,117,1
31,303,120,96,1
57,73,351,150,1
29,301,329,165,1
35,5,410,181,1
217,56,202,179,1
152,127,532,8,1
202,140,252,51,1
190,10,5,110,1
137,12,262,66,1
29,80,109,577,1
156,62,2,342,1
135,60,183,224,1
44,107,57,95,1
191,140,53,64,1
0,261,70,37,1
114,97,0,118,1
41,212,9,9,1
94,13,174,85,1
163,164,49,242,1
59,10,98,89,1
100,95,206,36,1
158,189,13,59,1
86,160,122,32,1
190,87,96,206,1
141,49,310,65,1
34,73,31,93,1
129,73,307,194,1
41,24,148,32,1
0,19,172,51,1
32,38,44,52,1
71,104,27,60,1
85,116,309,267,1
151,258,418,7,1
61,169,99,192,1
265,400,202,142,1
113,27,164,127,1
165,112,479,160,1
48,194,93,33,1
201,88,411,8,1
0,10,400,182,1
84,113,65,24,1
55,164,157,5,1
76,109,84,145,1
72,125,572,610,1
194,114,187,145,1
12,17,214,393,1
19,69,0,273,1
106,41,272,406,1
292,290,558,201,1
66,35,277,257,1
18,157,209,224,1
98,240,0,35,1
4,141,194,158,1
22,5,51,82,1
82,66,301,392,1
45,223,68,70,1
2,130,162,31,1
144,46,4,242,1
51,80,202,7,1
131,201,145,9,1
171,24,253,78,1
23,141,10,24,1
68,31,190,12,1
123,91,206,71,1
64,121,47,230,1
62,105,94,345,1
86,77,138,205,1
86,50,87,223,1
68,196,0,302,1
96,9,150,22,1
173,96,26,135,1
145,16,2,6,1
145,60,50,101,1
46,13,0,47,1
40,49,180,6,1
9,90,0,250,1
183,123,43,78,1
19,55,121,46,1
259,268,52,235,1
95,62,0,103,1
129,149,210,69,1
108,17,131,275,1
69,198,238,193,1
53,105,19,211,1
63,51,0,189,1
42,11,25,64,1
207,89,173,9,1
3,17,56,67,1
48,51,229,150,1
99,97,227,169,1
97,35,105,76,1
19,117,93,276,1
90,120,311,273,1
20,43,0,182,1
65,17,120,84,1
133,41,264,419,1
5,108,27,91,1
316,107,9,37,1
14,12,172,26,1
30,10,143,194,1
5,53,248,4,1
7,22,96,280,1
99,7,166,20,1
55,16,307,26,1
34,31,157,82,1
27,17,181,111,1
38,41,7,365,1
182,240,137,28,1
114,195,132,9,1
11,127,40,94,1
67,193,105,207,1
38,98,1,12,1
215,156,146,76,1
26,184,52,37,1
121,31,28,3,1
11,52,95,38,1
288,143,142,294,1
123,30,304,98,1
181,65,103,114,1
41,13,120,215,1
70,78,137,305,1
71,11,60,86,1
79,5,189,76,1
226,183,77,198,1
294,243,337,58,1
110,21,18,192,1
86,191,66,163,1
51,257,113,57,1
32,63,88,262,1
75,49,22,41,1
35,434,55,51,1
129,198,54,113,1
2,11,73,108,1
172,83,33,184,1
34,62,250,134,1
206,238,97,331,1
65,130,108,238,1
7,85,177,103,1
6,95,0,231,1
58,46,25,186,1
49,44,153,204,1
140,29,24,93,1
13,92,85,263,1
133,22,60,315,1
43,165,12,2,1
254,336,72,90,1
103,123,30,26,1
33,74,11,249,1
0,50,0,5,1
74,50,17,4,1
115,6,154,39,1
69,65,15,56,1
37,31,117,98,1
29,64,51,29,1
28,53,0,154,1
44,180,36,177,1
40,63,87,12,1
87,43,96,2,1
33,62,31,88,1
19,37,169,146,1
170,53,6,103,1
195,232,63,66,1
70,76,30,263,1
50,69,0,123,1
92,63,0,20,1
107,17,33,57,1
72,19,4,2,1
100,225,75,8,1
97,164,44,21,1
49,120,90,60,1
93,12,19,160,1
125,105,12,30,1
3,7,53,12,1
103,129,72,79,1
57,140,8,50,1
129,56,146,153,1
109,165,11,24,1
81,182,13,22,1
144,94,10,3,1
59,6,15,69,1
82,74,38,50,1
43,42,39,17,1
21,19,138,67,1
67,106,48,21,1
61,83,65,80,1
91,28,65,37,1
127,52,13,39,1
4,68,5,72,1
6,191,52,57,1
14,99,11,89,1
5,8,9,74,1
25,119,17,14,1
4,109,13,192,1
36,127,27,35,1
146,76,23,32,1
16,93,64,73,1
34,104,30,4,1
6,24,24,69,1
100,59,62,37,1
4,28,39,43,1
90,40,38,72,1
42,80,28,0,1
92,59,101,37,1
102,6,15,16,1
37,72,3,16,1
93,43,32,52,1
124,152,0,11,1
25,13,38,53,1
127,140,0,1,1
35,65,73,31,1
316,240,36,63,1
135,205,27,6,1
30,34,70,23,1
59,6,16,12,1
48,164,0,1,1
35,53,42,109,1
25,155,12,22,1
63,71,52,81,1
19,76,25,7,1
38,50,24,28,1
149,96,26,65,1
49,56,0,22,1
151,299,40,19,1
33,7,0,76,1
120,87,21,58,1
65,29,20,38,1
83,13,0,66,1
40,5,17,89,1
74,50,7,2,1
30,55,1,9,1
60,7,0,3,1
126,57,14,27,1
1,46,7,97,1
37,9,13,85,1
94,340,0,9,1
91,30,22,3,1
14,36,28,77,1
29,125,1,40,1
19,70,3,6,1
47,204,6,4,1
93,124,84,52,1
5,165,7,55,1
63,144,56,39,1
156,46,4,15,1
55,78,0,4,1
91,49,37,53,1
67,13,0,4,1
1,14,53,34,1
82,23,32,34,1
24,16,48,53,1
107,76,5,53,1
0,5,0,56,1
8,31,45,31,1
141,122,12,23,1
52,5,9,26,1
53,40,66,67,1
63,40,26,18,1
77,180,57,44,1
19,26,20,4,1
5,45,39,59,1
84,46,32,41,1
43,49,15,5,1
34,28,33,99,1
68,72,0,23,1
19,40,29,2,1
140,42,30,25,1
122,76,76,37,1
46,60,127,35,1
13,83,23,24,1
32,104,87,71,1
10,6,45,52,1
4,40,0,65,1
4,48,0,54,1
31,10,36,99,1
10,48,0,40,1
113,35,117,20,1
46,19,0,9,1
31,132,162,48,1
7,96,0,172,1
12,55,133,3,1
83,106,42,102,1
22,6,0,61,1
28,47,72,9,1
118,194,28,49,1
8,23,0,38,1
86,10,104,17,1
176,225,109,246,1
55,62,162,3,1
22,154,100,176,1
6,121,55,35,1
11,60,3,22,1
77,96,0,17,1
181,121,133,62,1
49,25,43,138,1
3,23,303,56,1
86,51,103,54,1
3,21,27,1,1
112,77,99,147,1
24,18,0,5,1
144,110,87,113,1
30,117,71,37,1
65,7,141,6,1
57,43,24,310,1
50,127,173,80,1
36,78,19,117,1
60,191,46,45,1
220,318,13,47,1
109,94,87,8,1
152,93,0,42,1
89,9,142,89,1
132,212,32,11,1
184,193,41,17,1
29,149,50,153,1
40,11,128,108,1
1,11,134,200,1
32,69,0,148,1
13,27,146,149,1
59,131,138,151,1
1,14,240,288,1
7,67,386,142,1
198,162,0,112,1
21,70,309,221,1
27,60,181,104,1
21,34,256,332,1
145,311,119,56,1
6,288,35,181,1
12,12,51,312,1
77,59,124,288,1
151,160,166,17,1
133,146,100,79,1
159,287,155,5,1
1,26,155,225,1
5,157,0,338,1
1,132,59,183,1
116,64,29,52,1
100,114,2,1,1
95,18,163,39,1
21,19,52,64,1
30,95,77,30,1
2,26,152,241,1
73,7,149,226,1
1,21,317,253,1
293,44,119,579,1
56,20,5,139,1
234,5,362,467,1
42,53,286,98,1
204,154,190,445,1
42,39,188,59,1
75,73,46,295,1
30,46,448,362,1
87,9,16,324,1
30,201,520,337,1
126,71,58,252,1
8,201,183,48,1
53,135,308,77,1
69,117,35,83,1
196,259,332,236,1
90,39,0,36,1
62,68,375,33,1
1,54,223,127,1
98,352,191,1,1
43,15,189,64,1
94,84,256,341,1
348,97,0,257,1
27,6,287,213,1
37,42,357,15,1
176,70,209,96,1
34,11,41,83,1
109,131,120,119,1
9,124,6,145,1
295,13,595,666,1
8,204,495,27,1
29,106,494,690,1
40,228,476,315,1
20,166,173,93,1
138,75,0,248,1
124,73,229,162,1
267,57,30,69,1
304,29,141,121,1
15,34,188,235,1
65,55,183,508,1
15,66,159,72,1
11,208,182,258,1
107,278,174,593,1
3,91,425,228,1
64,62,123,96,1
35,155,15,445,1
16,43,211,111,1
143,202,298,161,1
92,26,114,456,1
182,104,102,105,1
107,152,415,513,1
114,13,0,275,1
55,40,125,291,1
252,86,120,272,1
91,105,196,440,1
279,229,25,489,1
256,116,150,303,1
137,151,380,365,1
0,34,628,632,1
373,613,554,134,1
99,41,0,81,1
43,13,632,71,1
8,59,11,221,1
21,197,69,279,1
104,123,29,31,1
74,105,213,182,1
25,31,0,222,1
151,8,224,382,1
29,181,192,382,1
188,183,0,94,1
84,47,136,46,1
23,78,147,169,1
5,16,447,83,1
29,96,124,181,1
345,31,83,1023,1
168,82,101,296,1
90,6,339,255,1
49,119,295,1019,1
111,8,816,327,1
5,66,249,148,1
1,30,337,150,1
150,5,192,215,1
161,41,114,243,1
362,124,89,35,1
131,21,243,354,1
86,259,527,10,1
220,12,63,46,1
5,13,370,180,1
223,233,148,191,1
20,338,19,32,1
512,192,111,198,1
23,41,88,456,1
488,84,273,120,1
169,72,276,350,1
370,133,23,25,1
4,45,65,353,1
285,135,257,135,1
175,117,194,8,1
357,50,825,642,1
286,39,6,277,1
119,135,65,352,1
62,216,439,133,1
12,116,52,50,1
82,78,257,106,1
9,56,230,33,1
15,215,418,311,1
256,38,80,18,1
63,119,182,182,1
37,71,605,80,1
26,53,355,1,1
30,89,56,143,1
123,48,227,245,1
40,103,305,908,1
73,41,91,55,1
137,159,94,127,1
119,94,222,425,1
376,112,539,326,1
209,81,196,164,1
291,74,317,141,1
17,241,243,265,1
418,83,181,226,1
174,246,292,394,1
36,26,210,89,1
4,40,425,35,1
27,39,853,238,1
49,104,992,327,1
183,119,707,148,1
427,215,488,110,1
95,64,396,78,1
53,108,319,366,1
324,237,438,29,1
23,103,794,316,1
72,139,480,385,1
27,88,524,95,1
155,150,278,183,1
63,198,311,65,1
311,105,871,312,1
123,145,221,304,1
38,20,552,143,1
10,29,165,13,1
33,30,275,304,1
73,105,241,53,1
271,106,577,218,1
202,50,0,152,1
55,11,318,111,1
185,69,351,419,1
202,231,553,53,1
15,27,52,272,1
26,98,318,232,1
226,75,29,285,1
63,81,72,121,1
239,112,136,8,1
51,208,166,101,1
3,39,598,333,1
3,40,239,156,1
223,150,13,676,1
199,36,162,119,1
54,39,183,150,1
12,48,52,53,1
196,98,379,157,1
32,81,40,215,1
4,30,436,455,1
57,270,402,50,1
34,16,826,360,1
246,105,385,41,1
247,195,856,333,1
54,36,840,314,1
63,20,136,163,1
5,30,203,212,1
143,67,70,423,1
294,76,736,750,1
219,55,1023,482,1
319,82,177,141,1
148,41,353,261,1
63,75,97,80,1
7,9,262,239,1
4,23,71,216,1
3,75,143,131,1
197,39,96,260,1
142,91,232,19,1
175,7,401,421,1
105,262,205,246,1
241,66,117,47,1
30,5,245,212,1
78,38,352,79,1
81,64,476,47,1
171,72,18,182,1
12,7,67,88,1
257,71,166,313,1
21,26,121,122,1
79,157,161,193,1
57,129,0,116,1
130,159,246,219,1
51,94,407,350,1
37,92,50,15,1
68,147,180,56,1
50,43,134,191,1
184,16,474,435,1
167,6,261,7,1
151,111,361,216,1
43,99,132,336,1
223,155,113,76,1
161,134,174,560,1
137,94,8,29,1
247,97,73,1,1
115,165,182,437,1
136,57,81,114,1
97,6,267,279,1
62,349,633,502,1
274,176,141,24,1
66,169,159,468,1
36,63,28,65,1
2,71,23,304,1
140,46,294,163,1
76,320,186,212,1
0,195,232,440,1
73,82,274,225,1
74,49,78,323,1
65,95,105,401,1
118,59,57,95,1
157,83,12,109,1
128,11,119,130,1
119,123,105,200,1
201,83,45,309,1
50,18,55,86,1
7,147,309,219,1
105,121,178,143,1
138,13,441,256,1
151,14,367,196,1
86,97,41,163,1
70,158,143,43,1
275,71,361,221,1
195,7,208,207,1
96,7,132,190,1
16,20,98,196,1
22,215,152,97,1
201,64,342,43,1
134,84,7,365,1
196,94,20,223,1
25,42,89,13,1
121,13,117,325,1
112,78,0,39,1
79,91,126,54,1
105,21,65,200,1
142,91,66,60,1
0,47,194,204,1
71,128,93,36,1
60,23,229,439,1
2,16,211,15,1
126,86,322,307,1
169,105,200,20,1
51,33,417,214,1
236,85,105,265,1
5,77,102,123,1
38,41,195,335,1
74,344,71,57,1
62,126,167,83,1
1,8,149,12,1
21,11,209,34,1
28,65,58,170,1
55,15,219,339,1
305,279,207,21,1
10,90,205,138,1
107,17,177,630,1
171,59,127,240,1
33,64,105,143,1
14,39,239,225,1
17,79,152,15,1
76,216,128,105,1
85,125,68,4,1
98,89,35,206,1
21,67,13,169,1
10,55,21,91,1
95,13,309,23,1
1,161,82,166,1
133,91,493,123,1
186,65,12,321,1
29,18,298,77,1
161,153,210,22,1
246,222,167,124,1
151,14,142,150,1
0,198,296,119,1
54,96,0,415,1
69,130,26,123,1
16,70,91,100,1
2,57,123,297,1
84,121,87,59,1
104,73,439,327,1
91,70,364,65,1
184,125,286,299,1
63,126,203,243,1
123,46,232,18,1
72,48,169,29,1
7,10,308,115,1
90,47,218,664,1
180,146,156,105,1
19,7,156,131,1
91,29,0,128,1
162,96,68,7,1
334,301,129,83,1
143,17,5,179,1
59,172,195,99,1
105,12,202,108,1
101,195,0,21,1
147,48,324,236,1
24,62,392,18,1
27,120,210,56,1
143,31,361,203,1
12,130,363,24,1
75,122,174,144,1
53,77,15,85,1
248,71,190,131,1
85,157,108,464,1
31,10,15,140,1
59,51,66,245,1
2,29,122,70,1
36,19,108,6,1
5,130,111,285,1
102,103,140,170,1
91,37,17,85,1
54,34,95,158,1
62,180,192,140,1
189,193,0,6,1
8,41,305,137,1
97,71,70,7,1
29,9,139,354,1
16,7,18,114,1
157,149,46,17,1
6,47,71,23,1
87,45,20,33,1
41,11,0,186,1
19,115,32,114,1
104,76,35,80,1
134,340,55,80,1
71,14,140,100,1
83,17,11,38,1
30,67,15,200,1
7,19,1,337,1
93,87,162,249,1
12,23,53,143,1
19,10,73,113,1
43,9,104,109,1
12,101,103,54,1
87,85,13,69,1
45,15,18,21,1
12,35,150,97,1
56,10,20,39,1
99,209,156,231,1
60,155,118,112,1
97,160,0,354,1
241,139,126,15,1
133,28,309,46,1
69,135,109,65,1
170,218,366,147,1
8,104,168,118,1
74,91,82,48,1
96,106,107,42,1
184,181,116,64,1
8,67,131,118,1
132,80,20,74,1
22,96,46,63,1
54,72,0,3,1
72,11,0,9,1
66,256,0,3,1
102,88,40,2,1
72,87,39,10,1
92,150,39,92,1
0,158,12,15,1
9,119,67,25,1
45,182,0,57,1
75,29,15,13,1
15,38,42,63,1
125,61,11,19,1
222,116,31,27,1
0,128,27,103,1
223,203,0,80,1
35,7,15,31,1
179,122,28,50,1
68,86,5,10,1
106,160,11,58,1
191,111,0,16,1
0,74,19,88,1
28,74,18,70,1
70,202,29,38,1
171,32,3,79,1
43,18,0,22,1
0,14,45,75,1
23,19,0,15,1
27,77,7,1,1
45,23,28,58,1
8,38,0,23,1
22,46,27,1,1
78,20,0,37,1
20,44,0,34,1
15,8,23,24,1
67,117,6,20,1
34,59,30,16,1
22,43,23,53,1
27,34,27,74,1
71,189,18,39,1
56,129,4,45,1
137,242,21,103,1
110,260,55,65,1
80,46,0,4,1
129,135,33,27,1
9,30,0,1,1
83,33,18,51,1
4,56,37,29,1
66,84,17,9,1
120,25,24,52,1
134,126,2,29,1
40,12,54,5,1
23,68,26,69,1
11,50,5,91,1
0,47,24,41,1
7,57,0,23,1
62,91,15,52,1
105,29,8,9,1
14,6,15,16,1
125,203,28,1,1
75,91,0,52,1
6,75,39,101,1
82,60,29,28,1
13,47,0,41,1
19,29,12,64,1
44,64,5,29,1
36,26,40,3,1
0,40,0,3,1
1,18,21,22,1
20,10,18,42,1
9,47,6,43,1
59,99,37,11,1
16,286,11,77,1
54,181,0,43,1
39,111,22,7,1
1,93,0,11,1
108,155,25,24,1
69,55,26,35,1
101,29,18,52,1
76,31,56,39,1
100,6,3,22,1
89,67,66,96,1
60,74,0,28,1
73,28,54,1,1
57,9,47,84,1
25,17,40,77,1
81,50,0,5,1
9,30,47,44,1
80,134,0,52,1
18,19,0,43,1
16,78,22,32,1
22,29,91,26,1
7,54,68,76,1
24,18,51,8,1
4,54,39,16,1
104,119,31,29,1
76,173,11,19,1
217,307,115,82,1
86,75,42,64,1
94,114,89,13,1
3,10,26,46,1
66,9,79,46,1
52,9,3,2,1
0,33,48,80,1
66,42,71,39,1
91,33,26,100,1
1,43,0,47,1
46,41,51,41,1
81,11,0,58,1
92,70,68,12,1
72,104,44,43,1
84,16,30,47,1
40,54,41,28,1
69,55,41,92,1
140,47,7,7,1
1,16,152,176,1
165,33,207,4,1
0,31,103,182,1
14,50,76,19,1
104,85,3,113,1
53,5,0,149,1
48,10,187,157,1
1,44,66,93,1
15,9,59,131,1
28,8,79,44,1
35,20,0,117,1
26,45,10,34,1
111,88,0,32,1
13,36,12,45,1
89,79,128,195,1
87,130,0,75,1
42,87,240,96,1
7,56,80,126,1
15,48,165,5,1
117,119,46,162,1
108,243,19,61,1
1,78,0,5,1
10,160,67,8,1
95,38,109,20,1
3,119,11,83,1
188,157,33,162,1
50,52,80,1,1
172,136,56,8,1
106,275,288,222,1
29,239,225,34,1
23,6,56,126,1
95,160,6,54,1
63,23,8,150,1
57,70,346,14,1
90,25,30,146,1
50,30,435,61,1
39,6,8,1,1
63,168,54,84,1
94,111,84,13,1
37,112,203,413,1
112,161,21,86,1
83,81,152,419,1
1,164,33,10,1
66,103,35,57,1
51,38,142,678,1
31,74,77,31,1
214,193,160,119,1
151,55,208,11,1
90,7,41,135,1
238,67,23,178,1
67,10,51,168,1
202,369,87,94,1
298,260,11,29,1
306,41,113,159,1
16,113,66,144,1
50,86,60,252,1
238,85,148,133,1
11,63,140,125,1
4,13,70,39,1
49,38,21,90,1
57,129,110,112,1
115,91,146,125,1
43,5,172,51,1
32,164,167,4,1
155,174,43,400,1
7,47,0,368,1
226,33,155,183,1
158,66,0,91,1
65,39,26,21,1
195,94,291,201,1
76,55,45,123,1
107,198,233,217,1
36,16,195,68,1
98,209,12,139,1
99,59,0,329,1
179,209,162,16,1
84,197,30,217,1
321,145,227,62,1
105,7,145,61,1
25,236,51,16,1
4,5,188,283,1
237,187,90,30,1
80,15,46,350,1
21,84,249,413,1
186,163,92,50,1
51,154,729,81,1
10,11,382,423,1
53,262,38,264,1
53,141,220,74,1
332,103,58,112,1
1,75,151,278,1
151,89,143,191,1
19,11,379,213,1
18,19,64,394,1
215,194,378,261,1
10,67,175,345,1
2,75,135,374,1
11,159,83,310,1
195,162,87,6,1
152,72,29,171,1
0,76,89,42,1
222,195,220,653,1
150,233,79,200,1
82,15,45,293,1
229,383,93,18,1
142,81,11,31,1
343,387,71,6,1
74,58,298,92,1
125,394,301,273,1
202,461,433,83,1
170,195,376,369,1
73,23,210,349,1
35,21,174,25,1
140,153,45,49,1
31,238,85,195,1
112,27,229,385,1
1,9,15,42,1
34,124,95,166,1
4,68,89,182,1
133,150,694,427,1
227,377,13,516,1
11,129,872,148,1
185,149,30,659,1
153,171,507,162,1
94,15,356,138,1
216,157,38,289,1
93,187,245,596,1
116,48,186,63,1
1,40,280,42,1
21,43,40,237,1
115,87,265,699,1
69,54,519,274,1
130,117,235,384,1
122,76,240,524,1
245,106,31,45,1
259,71,436,591,1
33,12,452,284,1
299,392,154,324,1
64,367,0,88,1
338,353,117,99,1
22,216,357,21,1
131,154,386,150,1
43,210,136,115,1
77,174,200,257,1
245,70,97,315,1
119,46,187,10,1
41,85,261,139,1
127,41,392,369,1
10,180,92,158,1
34,215,461,334,1
63,126,92,372,1
9,59,422,145,1
302,61,137,288,1
296,35,662,31,1
65,151,49,221,1
252,172,663,33,1
40,115,653,139,1
118,108,306,85,1
241,120,473,349,1
51,154,477,357,1
72,237,18,71,1
34,66,82,481,1
40,145,105,121,1
170,68,367,177,1
101,198,587,386,1
22,33,470,194,1
229,150,109,295,1
135,279,554,236,1
506,292,754,193,1
15,56,305,397,1
114,341,1023,29,1
72,33,17,502,1
105,113,234,58,1
36,221,536,209,1
119,339,42,363,1
252,131,705,429,1
63,15,277,129,1
64,301,282,410,1
59,10,300,106,1
65,40,73,527,1
34,12,324,112,1
241,90,43,145,1
301,33,334,150,1
20,118,459,11,1
146,40,134,49,1
26,22,54,86,1
339,71,267,156,1
249,68,571,425,1
73,70,492,245,1
145,51,633,67,1
89,71,113,237,1
58,17,121,74,1
43,22,589,265,1
10,20,94,14,1
344,56,536,43,1
94,98,327,94,1
71,34,66,249,1
65,334,239,263,1
178,52,13,141,1
82,33,763,371,1
10,37,414,123,1
128,248,394,288,1
117,316,795,21,1
118,41,66,450,1
293,395,611,745,1
299,628,84,135,1
110,23,303,600,1
276,123,35,78,1
151,108,291,151,1
83,19,104,117,1
10,131,567,330,1
164,69,482,132,1
66,107,792,149,1
51,91,195,267,1
75,116,1023,550,1
79,41,892,220,1
174,124,348,9,1
188,80,202,89,1
303,138,220,123,1
77,63,583,78,1
11,73,388,537,1
294,180,508,414,1
35,157,1023,914,1
8,28,263,171,1
6,22,262,487,1
22,119,719,542,1
65,23,517,641,1
99,8,15,36,1
127,174,457,751,1
65,11,553,659,1
76,62,467,679,1
244,277,419,491,1
328,8,288,194,1
119,123,623,183,1
193,50,243,15,1
269,59,163,272,1
25,82,284,68,1
182,20,149,286,1
87,21,1023,1023,1
27,204,309,121,1
92,51,643,403,1
11,44,535,153,1
42,10,452,38,1
174,74,220,10,1
263,158,733,152,1
65,47,678,314,1
111,41,142,26,1
63,83,110,353,1
10,11,20,29,1
84,19,725,25,1
165,71,318,466,1
67,15,264,471,1
73,99,388,511,1
86,21,771,218,1
151,120,168,524,1
97,362,849,444,1
24,137,67,303,1
34,143,18,609,1
118,55,159,74,1
87,55,147,71,1
40,59,219,64,1
92,18,38,309,1
35,128,653,384,1
23,87,131,92,1
170,210,1023,556,1
146,51,731,338,1
61,136,61,259,1
267,208,695,398,1
150,139,978,606,1
25,101,11,106,1
52,247,299,81,1
37,84,76,81,1
24,57,108,2,1
32,6,23,315,1
12,19,200,16,1
140,38,260,3,1
153,101,139,140,1
270,206,242,169,1
193,21,597,189,1
128,139,189,12,1
31,174,624,260,1
137,23,498,13,1
59,113,80,146,1
52,120,195,259,1
23,26,244,392,1
32,290,367,123,1
89,204,6,8,1
168,266,58,187,1
17,101,466,54,1
203,142,702,194,1
15,56,15,343,1
5,56,363,42,1
0,6,14,11,1
134,57,8,145,1
242,185,7,3,1
28,224,435,201,1
68,59,538,256,1
216,227,73,32,1
88,67,153,129,1
428,65,114,43,1
31,49,268,138,1
14,17,70,318,1
33,27,338,53,1
40,161,89,191,1
7,96,119,201,1
72,6,222,11,1
162,116,39,185,1
417,148,134,325,1
40,104,165,101,1
39,140,110,165,1
3,17,481,276,1
131,128,286,18,1
274,7,78,49,1
65,6,314,49,1
103,103,359,228,1
52,115,44,85,1
10,73,175,231,1
58,26,54,241,1
148,311,66,220,1
55,127,327,271,1
48,112,203,201,1
80,114,16,26,1
136,91,279,672,1
48,27,170,378,1
60,28,160,556,1
17,61,228,197,1
5,87,66,451,1
18,68,526,158,1
84,179,353,79,1
42,90,196,73,1
68,183,111,91,1
296,319,183,344,1
168,174,114,77,1
13,54,214,121,1
118,134,27,200,1
71,253,41,46,1
105,160,118,110,1
132,25,146,21,1
91,10,76,134,1
237,215,98,282,1
75,13,88,179,1
128,168,281,189,1
79,63,472,335,1
14,30,425,6,1
30,49,20,81,1
3,51,398,209,1
98,49,188,360,1
90,83,152,246,1
89,56,240,149,1
60,66,753,529,1
101,113,56,155,1
15,26,458,58,1
93,68,139,185,1
71,39,60,294,1
143,115,368,257,1
133,101,220,553,1
141,13,566,7,1
107,39,172,46,1
59,24,254,179,1
7,92,20,15,1
99,49,57,2,1
92,195,78,127,1
90,41,264,82,1
2,310,69,152,1
86,102,350,86,1
11,72,330,19,1
95,37,136,101,1
43,121,16,196,1
221,60,8,11,1
209,29,159,79,1
74,120,83,18,1
251,29,47,143,1
44,85,3,121,1
71,138,24,47,1
177,143,59,125,1
131,15,0,74,1
69,41,61,1,1
186,247,160,71,1
197,39,75,191,1
306,287,434,45,1
150,204,79,50,1
395,432,378,387,1
122,325,59,93,1
71,13,244,2,1
1,190,193,283,1
104,226,269,560,1
47,23,0,9,1
4,8,309,143,1
127,208,154,71,1
32,60,186,24,1
16,11,158,190,1
134,137,224,49,1
117,159,80,60,1
0,32,400,157,1
148,122,187,39,1
19,239,61,133,1
169,64,23,27,1
196,17,7,40,1
169,45,115,21,1
124,67,115,28,1
57,44,274,182,1
149,83,218,18,1
15,45,300,227,1
21,49,26,153,1
2,24,100,185,1
46,135,70,311,1
168,56,158,23,1
29,367,111,41,1
19,289,0,34,1
56,165,76,79,1
56,22,100,68,1
212,13,80,73,1
63,16,76,69,1
120,34,51,2,1
95,76,198,55,1
38,14,35,29,1
0,11,146,82,1
63,28,34,182,1
81,16,0,160,1
79,28,395,219,1
88,70,1,49,1
226,128,333,103,1
160,139,61,58,1
52,83,41,101,1
14,84,171,72,1
16,8,95,154,1
4,78,163,256,1
16,28,41,151,1
59,79,257,163,1
2,60,36,71,1
3,5,124,207,1
165,106,98,76,1
7,41,33,89,1
127,22,22,5,1
50,88,99,12,1
143,165,37,38,1
0,107,247,69,1
29,52,24,130,1
185,96,98,56,1
4,181,143,67,1
165,168,0,35,1
19,18,306,66,1
216,44,8,77,1
136,46,103,72,1
50,14,136,34,1
13,50,75,20,1
62,62,15,44,1
61,82,41,127,1
41,77,7,115,1
4,51,0,1,1
64,69,1,7,1
2,6,0,58,1
49,57,20,40,1
39,13,34,12,1
99,60,33,14,1
11,77,169,104,1
26,9,0,113,1
9,56,176,101,1
45,60,51,13,1
87,144,111,139,1
6,103,95,38,1
130,115,92,35,1
27,105,42,20,1
179,193,40,40,1
47,183,126,13,1
30,19,5,99,1
29,33,52,165,1
8,14,0,47,1
7,33,0,93,1
22,16,33,129,1
0,84,0,54,1
55,87,6,1,1
20,40,14,26,1
20,66,0,84,1
110,9,6,111,1
18,52,33,54,1
124,55,19,15,1
11,64,0,136,1
106,19,0,36,1
162,132,23,98,1
3,11,33,128,1
14,17,0,122,1
24,13,77,69,1
49,15,63,94,1
20,47,29,109,1
22,75,6,125,1
102,31,31,142,1
64,118,0,72,1
10,67,3,4,1
81,17,11,3,1
119,199,10,62,1
22,40,43,78,1
65,83,4,26,1
24,31,15,4,1
138,72,0,66,1
25,35,1,58,1
65,25,36,3,1
181,221,4,2,1
3,23,14,12,1
28,20,38,30,1
26,25,10,9,1
56,51,27,43,1
34,254,16,25,1
145,329,33,34,1
9,12,21,4,1
14,49,8,26,1
57,21,36,50,1
62,93,15,51,1
2,21,7,18,1
66,51,29,7,1
1,46,12,1,1
125,132,5,55,1
13,49,0,82,1
120,38,4,84,1
91,54,47,39,1
24,154,0,14,1
154,198,57,64,1
7,75,0,54,1
14,60,0,8,1
106,52,63,54,1
79,108,0,33,1
74,106,46,38,1
30,36,20,12,1
4,27,70,5,1
52,118,60,127,1
48,35,0,117,1
66,86,110,66,1
54,37,68,95,1
34,215,19,26,1
94,9,58,3,1
19,7,87,43,1
131,169,4,13,1
74,19,9,6,1
28,76,10,2,1
137,6,12,1,1
17,142,0,72,1
113,12,0,20,1
9,11,0,32,1
85,83,34,22,1
143,65,0,11,1
26,67,60,128,1
131,46,82,23,1
44,22,0,52,1
43,24,28,76,1
17,90,43,122,1
8,39,59,155,1
24,98,1,65,1
2,57,17,141,1
108,136,75,176,1
167,137,115,70,1
24,17,28,86,1
147,122,119,48,1
51,46,14,156,1
6,100,20,29,1
43,7,67,48,1
82,106,18,239,1
213,183,202,2,1
61,6,19,125,1
76,159,10,25,1
25,7,122,26,1
3,89,0,93,1
121,185,6,61,1
59,52,47,74,1
44,9,0,54,1
197,52,42,79,1
97,22,104,97,1
19,147,26,165,1
6,148,127,156,1
41,187,10,141,1
130,43,98,7,1
28,73,72,106,1
0,114,125,196,1
23,12,43,77,1
121,84,174,99,1
3,25,41,99,1
95,98,70,152,1
23,37,9,55,1
18,7,115,209,1
55,87,235,148,1
161,147,62,32,1
25,19,99,151,1
151,186,264,198,1
13,119,83,121,1
105,70,200,553,1
31,21,31,88,1
113,38,56,154,1
163,122,128,56,1
183,25,51,1,1
121,9,314,191,1
61,134,94,22,1
27,154,8,28,1
28,98,229,35,1
130,14,116,23,1
6,21,179,36,1
20,87,9,114,1
26,31,157,146,1
33,144,28,343,1
106,10,152,7,1
16,130,76,340,1
3,7,93,83,1
102,222,100,67,1
34,7,65,39,1
237,287,124,67,1
304,126,74,68,1
11,97,142,77,1
118,219,335,21,1
59,63,464,259,1
117,157,531,172,1
105,81,186,581,1
60,50,93,156,1
224,41,162,108,1
204,178,167,213,1
85,6,195,221,1
80,92,39,11,1
82,7,344,97,1
5,63,35,181,1
64,14,7,83,1
60,74,193,9,1
60,74,389,182,1
0,224,426,251,1
56,94,136,309,1
173,112,41,65,1
58,94,469,228,1
53,252,85,217,1
14,65,291,338,1
133,23,143,43,1
144,57,204,25,1
3,131,28,293,1
88,35,458,153,1
47,20,188,293,1
12,123,113,5,1
45,64,116,405,1
96,42,317,262,1
198,121,412,198,1
21,25,328,79,1
3,182,295,183,1
12,43,27,124,1
226,47,30,53,1
22,79,199,349,1
110,67,0,2,1
20,62,212,279,1
10,13,167,132,1
75,19,263,382,1
8,131,55,40,1
144,180,246,202,1
15,80,109,343,1
344,266,153,161,1
97,25,36,112,1
3,9,285,42,1
13,62,38,56,1
111,133,107,325,1
444,269,499,80,1
101,62,215,367,1
22,77,230,123,1
47,115,120,164,1
47,144,80,388,1
102,100,66,376,1
1,250,64,154,1
32,126,550,46,1
143,7,329,84,1
106,10,662,230,1
2,172,314,70,1
39,36,577,353,1
78,121,80,239,1
188,283,438,93,1
29,39,133,5,1
6,80,586,332,1
83,68,14,331,1
6,81,562,347,1
51,52,50,25,1
132,378,545,210,1
127,269,78,413,1
13,36,161,832,1
141,47,127,67,1
23,94,24,143,1
116,231,109,101,1
94,61,0,522,1
192,189,21,95,1
215,210,148,301,1
36,23,340,1023,1
3,93,273,725,1
49,8,35,5,1
129,32,92,200,1
109,71,454,408,1
258,301,908,226,1
221,247,212,497,1
75,211,238,166,1
38,121,517,287,1
132,194,473,360,1
375,148,517,489,1
281,205,403,464,1
102,184,401,213,1
153,5,61,190,1
292,199,116,10,1
73,83,333,59,1
335,294,187,176,1
184,193,409,364,1
46,319,169,186,1
79,43,324,34,1
219,156,173,59,1
291,173,182,270,1
149,5,62,170,1
106,86,410,57,1
223,285,391,141,1
26,35,830,394,1
147,6,583,41,1
87,56,564,278,1
112,107,396,38,1
9,112,227,107,1
110,169,220,141,1
131,10,158,57,1
318,115,167,19,1
47,167,359,479,1
88,89,263,122,1
55,227,105,367,1
29,222,30,348,1
232,243,601,291,1
0,69,478,64,1
56,62,508,277,1
83,214,42,282,1
270,45,575,751,1
178,132,250,73,1
7,7,72,479,1
151,13,500,277,1
10,54,139,176,1
63,50,248,266,1
18,17,351,16,1
136,75,58,216,1
49,362,680,7,1
149,74,147,241,1
27,34,47,107,1
223,31,547,47,1
167,46,138,407,1
33,8,668,108,1
285,362,208,195,1
182,297,461,276,1
25,79,327,900,1
95,218,376,397,1
19,163,306,419,1
184,41,147,184,1
121,31,199,45,1
122,168,468,407,1
171,14,0,62,1
30,170,403,393,1
1,173,289,547,1
262,188,157,324,1
79,84,75,639,1
87,59,235,399,1
420,95,94,56,1
418,132,231,6,1
206,71,407,115,1
160,31,518,534,1
296,90,455,360,1
92,70,35,213,1
91,7,734,247,1
234,170,510,441,1
139,343,149,20,1
188,66,550,32,1
47,175,342,68,1
16,52,825,33,1
77,38,411,92,1
75,138,306,375,1
79,19,12,219,1
88,30,253,330,1
75,94,294,248,1
244,31,126,152,1
310,131,712,37,1
238,142,215,181,1
2,43,280,137,1
270,42,595,187,1
73,29,684,340,1
295,328,1023,918,1
27,85,199,141,1
88,82,23,102,1
91,171,437,81,1
9,30,667,178,1
193,95,246,617,1
294,39,425,534,1
387,7,313,209,1
542,163,272,181,1
8,40,288,154,1
207,52,132,255,1
219,21,471,33,1
465,412,84,218,1
196,221,371,184,1
91,31,420,348,1
113,116,327,363,1
100,168,282,110,1
2,20,468,7,1
146,29,304,80,1
210,70,1023,587,1
214,9,99,414,1
75,187,242,57,1
138,48,357,254,1
60,93,183,117,1
29,42,751,328,1
65,32,502,25,1
53,27,187,320,1
207,219,645,6,1
179,38,274,195,1
176,98,132,172,1
33,67,97,188,1
143,52,8,9,1
37,160,16,3,1
62,53,312,161,1
315,73,69,165,1
131,48,70,168,1
238,63,379,0,1
74,53,235,145,1
0,41,87,3,1
6,66,242,134,1
169,114,24,2,1
48,13,111,15,1
119,138,0,35,1
53,97,254,277,1
120,53,162,365,1
129,59,325,276,1
75,17,503,303,1
86,173,397,5,1
156,27,221,24,1
145,243,545,180,1
194,65,34,27,1
179,89,57,31,1
91,64,137,405,1
40,123,421,133,1
121,51,114,26,1
106,14,155,90,1
389,44,278,4,1
88,93,0,26,1
31,379,366,461,1
29,25,259,69,1
4,54,91,8,1
48,10,253,137,1
75,178,337,265,1
134,18,20,3,1
237,494,10,148,1
52,133,22,149,1
26,40,157,213,1
51,92,171,51,1
156,95,641,77,1
11,81,69,108,1
13,127,3,145,1
38,192,71,230,1
106,145,528,415,1
44,294,228,66,1
72,95,420,165,1
168,368,380,224,1
78,167,160,112,1
106,33,35,278,1
15,33,333,320,1
116,273,511,55,1
29,348,83,227,1
41,114,223,147,1
151,26,132,12,1
125,107,75,8,1
79,101,465,93,1
107,169,44,204,1
18,15,0,246,1
60,16,0,117,1
93,31,512,377,1
14,61,226,54,1
118,70,171,325,1
183,19,290,277,1
1,124,25,212,1
195,53,252,141,1
4,59,2,8,1
133,146,60,54,1
57,129,73,11,1
111,92,26,33,1
164,15,349,866,1
2,34,33,50,1
41,54,266,231,1
142,120,103,286,1
151,49,162,195,1
73,42,239,1,1
10,406,462,95,1
255,384,220,264,1
265,212,190,121,1
43,23,115,74,1
139,233,229,115,1
46,123,256,324,1
62,99,203,60,1
4,234,279,81,1
67,106,170,47,1
122,156,356,81,1
262,104,458,37,1
407,44,233,196,1
217,107,563,153,1
187,10,118,133,1
71,30,182,91,1
23,8,136,48,1
173,166,106,132,1
58,259,205,300,1
30,58,104,17,1
270,194,0,69,1
53,112,105,54,1
51,214,167,95,1
16,40,2,163,1
285,40,140,278,1
5,123,373,433,1
58,187,121,35,1
55,203,449,433,1
49,27,257,178,1
86,22,15,10,1
109,53,183,116,1
36,91,349,132,1
74,11,92,14,1
161,51,280,303,1
150,291,140,153,1
31,273,134,48,1
98,90,138,66,1
198,192,85,27,1
36,239,258,252,1
70,219,128,37,1
97,13,266,122,1
93,137,0,69,1
112,86,78,151,1
79,107,172,144,1
190,61,7,90,1
135,92,79,462,1
31,79,40,265,1
25,19,328,398,1
13,113,129,1,1
195,18,141,9,1
27,50,103,280,1
49,124,0,35,1
90,226,287,85,1
4,70,0,3,1
149,21,236,33,1
9,18,122,18,1
97,118,68,315,1
276,160,98,33,1
27,14,104,102,1
1,62,47,122,1
11,39,90,50,1
38,24,239,22,1
187,193,0,256,1
85,124,91,102,1
17,36,146,57,1
57,252,27,40,1
42,73,55,176,1
154,48,17,76,1
31,22,29,199,1
0,74,89,61,1
20,36,88,13,1
46,65,20,85,1
92,39,51,17,1
50,29,47,61,1
14,17,31,10,1
23,36,154,104,1
20,50,25,24,1
128,39,53,68,1
27,30,0,83,1
9,47,99,98,1
94,169,29,52,1
71,179,43,43,1
14,127,50,73,1
0,17,44,22,1
4,28,9,15,1
13,21,0,4,1
3,85,206,35,1
197,8,32,136,1
10,138,76,64,1
31,13,17,51,1
157,122,8,92,1
120,31,37,128,1
36,118,49,131,1
80,159,27,205,1
98,98,59,4,1
11,7,5,61,1
17,99,96,64,1
126,60,52,8,1
49,7,3,60,1
118,61,33,4,1
63,33,7,45,1
0,28,10,3,1
77,9,67,20,1
117,175,63,11,1
103,170,32,17,1
34,48,61,7,1
47,48,0,3,1
124,54,57,41,1
29,8,2,2,1
7,65,0,21,1
161,102,105,35,1
23,11,42,20,1
31,28,8,46,1
66,122,0,8,1
216,228,0,21,1
120,55,41,3,1
14,13,84,9,1
101,8,23,90,1
102,40,36,23,1
42,38,37,32,1
75,54,20,3,1
47,21,48,5,1
44,87,14,8,1
2,59,0,78,1
32,17,8,104,1
103,76,9,99,1
22,38,8,78,1
125,6,81,130,1
38,112,0,73,1
55,18,51,1,1
11,122,0,61,1
53,82,13,64,1
113,40,88,25,1
80,101,0,45,1
70,21,88,19,1
65,152,3,1,1
0,88,18,49,1
67,18,3,3,1
18,11,0,23,1
68,23,47,41,1
96,150,0,4,1
80,26,32,13,1
171,189,21,38,1
28,44,0,1,1
109,80,33,21,1
95,72,20,45,1
0,42,6,9,1
70,81,0,21,1
74,51,0,37,1
2,139,0,15,1
29,12,29,23,1
49,6,0,35,1
138,88,0,5,1
64,61,0,3,1
59,97,2,11,1
88,109,17,35,1
9,47,0,33,1
88,116,21,31,1
20,88,1,3,1
125,103,24,34,1
28,22,0,3,1
19,119,8,14,1
19,61,58,27,1
57,20,40,18,1
60,107,86,51,1
33,22,0,17,1
3,79,37,12,1
113,69,0,25,1
18,87,21,20,1
137,150,41,76,1
57,37,45,31,1
68,45,22,33,1
75,12,1,56,1
47,104,3,20,1
117,293,7,44,1
102,112,0,8,1
91,46,49,122,1
126,88,10,75,1
6,43,1,14,1
105,78,7,151,1
91,69,10,32,1
46,18,0,30,1
50,13,0,23,1
17,103,25,1,1
69,76,9,53,1
111,86,0,98,1
56,83,0,94,1
28,8,71,13,1
8,5,28,27,1
109,77,30,163,1
125,165,42,12,1
72,165,3,29,1
48,53,134,81,1
74,115,26,131,1
93,182,20,5,1
100,193,52,51,1
37,51,55,1,1
66,95,117,76,1
37,128,74,24,1
115,182,142,6,1
113,57,39,129,1
133,132,118,141,1
59,18,190,281,1
83,47,61,33,1
2,47,121,40,1
121,29,136,260,1
14,86,0,2,1
95,6,192,130,1
146,16,48,1,1
64,36,93,56,1
96,179,111,93,1
36,116,0,59,1
91,23,40,11,1
55,18,18,54,1
59,139,75,67,1
0,6,82,41,1
12,21,101,100,1
9,12,161,211,1
3,24,31,99,1
3,15,104,148,1
16,19,138,221,1
16,62,69,3,1
144,278,162,76,1
197,214,79,4,1
164,117,23,47,1
137,50,7,19,1
7,26,0,126,1
86,7,74,3,1
52,155,0,67,1
71,78,108,16,1
14,20,39,10,1
9,67,22,65,1
11,95,139,49,1
8,39,56,82,1
32,102,86,95,1
30,5,18,1,1
107,114,166,37,1
129,16,8,138,1
54,44,145,21,1
41,217,83,60,1
110,68,244,205,1
164,71,169,275,1
46,79,221,7,1
38,112,3,19,1
175,205,85,53,1
93,124,79,222,1
93,35,26,251,1
209,285,151,17,1
190,119,43,286,1
38,70,72,486,1
97,31,229,211,1
41,203,19,228,1
283,352,4,43,1
234,226,5,16,1
6,11,217,15,1
129,228,281,424,1
194,50,424,19,1
148,166,395,344,1
120,62,403,88,1
156,157,329,205,1
263,175,249,179,1
2,141,21,532,1
426,188,76,278,1
23,72,46,207,1
191,119,8,237,1
135,65,103,8,1
15,32,72,257,1
113,21,218,196,1
93,167,305,133,1
76,61,216,34,1
116,118,67,28,1
284,78,293,142,1
157,110,0,9,1
182,137,352,170,1
368,151,148,790,1
34,69,133,83,1
170,91,263,83,1
119,120,303,201,1
16,199,211,37,1
141,7,547,141,1
66,65,256,228,1
323,63,179,46,1
63,206,92,317,1
285,5,248,174,1
60,56,197,39,1
77,90,56,211,1
92,83,399,115,1
147,191,131,298,1
112,135,685,462,1
99,27,203,334,1
72,91,184,472,1
180,321,50,274,1
291,282,187,109,1
196,8,120,93,1
31,132,82,94,1
7,145,254,89,1
234,22,264,43,1
184,126,367,6,1
230,50,259,102,1
0,51,273,604,1
131,132,92,191,1
101,219,273,499,1
29,376,314,220,1
52,84,108,240,1
242,379,268,198,1
50,138,215,178,1
11,20,134,408,1
232,104,375,28,1
53,43,361,411,1
29,215,53,2,1
258,77,243,616,1
46,118,249,400,1
135,84,492,286,1
177,183,54,163,1
252,205,349,253,1
305,239,666,146,1
61,129,124,26,1
13,269,553,520,1
135,123,15,691,1
179,284,406,73,1
105,40,108,134,1
10,113,425,373,1
249,65,348,101,1
125,32,72,180,1
84,255,1,31,1
9,11,59,115,1
84,25,37,641,1
3,169,759,132,1
129,79,161,292,1
299,39,668,570,1
7,10,231,289,1
3,38,159,850,1
183,285,48,306,1
64,36,119,36,1
52,66,168,22,1
226,56,165,491,1
93,83,176,33,1
41,64,548,252,1
70,393,16,210,1
14,5,35,283,1
138,139,298,47,1
208,158,120,14,1
140,14,380,209,1
351,37,160,237,1
384,149,579,78,1
140,88,156,253,1
71,88,0,227,1
30,71,68,45,1
333,312,381,50,1
67,185,10,211,1
123,148,129,62,1
76,91,167,196,1
122,33,0,124,1
62,129,161,67,1
62,11,272,4,1
65,69,198,113,1
33,125,398,347,1
307,84,12,208,1
28,38,104,215,1
61,124,23,193,1
42,41,14,40,1
125,151,125,51,1
115,61,232,110,1
122,156,341,308,1
135,170,201,50,1
14,12,430,118,1
161,131,16,12,1
202,74,406,275,1
100,94,473,141,1
312,134,112,651,1
122,164,690,689,1
30,15,404,30,1
95,206,595,770,1
400,33,935,276,1
194,87,72,419,1
88,390,426,56,1
136,41,278,638,1
154,17,741,760,1
89,149,171,30,1
298,76,480,231,1
75,87,948,492,1
1,72,637,173,1
30,75,587,551,1
165,112,0,333,1
43,31,732,705,1
217,54,115,592,1
185,13,791,335,1
340,75,36,63,1
28,105,585,326,1
28,21,377,350,1
17,172,783,377,1
34,17,165,317,1
42,97,119,162,1
5,486,30,340,1
230,81,54,161,1
9,10,222,516,1
202,109,58,314,1
5,36,501,273,1
237,20,652,243,1
183,11,302,249,1
132,158,329,353,1
34,48,10,4,1
96,28,328,50,1
38,117,657,279,1
11,90,127,144,1
143,71,388,507,1
120,266,661,57,1
300,155,686,138,1
212,46,0,8,1
129,14,92,440,1
177,212,84,68,1
45,214,295,236,1
210,285,16,406,1
35,184,396,299,1
23,23,324,55,1
239,22,699,278,1
123,97,657,9,1
55,42,211,139,1
192,7,69,115,1
167,79,362,7,1
422,114,225,420,1
22,51,14,214,1
80,20,199,29,1
19,35,1023,677,1
17,145,1023,181,1
125,223,42,185,1
146,140,216,128,1
93,36,396,37,1
263,97,434,22,1
140,198,237,302,1
121,221,479,606,1
48,42,342,464,1
87,84,166,178,1
138,106,104,168,1
178,76,90,37,1
260,47,50,202,1
176,29,77,55,1
171,89,167,112,1
34,52,135,86,1
50,10,255,389,1
201,8,0,47,1
59,18,257,33,1
87,38,0,72,1
16,403,11,9,1
37,101,13,348,1
10,38,350,270,1
204,147,88,150,1
333,454,15,11,1
8,27,0,48,1
98,135,85,29,1
381,62,118,9,1
49,122,18,126,1
127,185,221,212,1
26,85,540,292,1
234,70,138,115,1
5,62,11,316,1
44,87,92,243,1
176,195,39,41,1
185,123,23,264,1
181,297,350,76,1
280,299,75,15,1
240,73,278,59,1
48,79,461,76,1
161,126,70,165,1
30,10,194,136,1
71,14,2,50,1
52,24,189,17,1
139,130,25,126,1
41,11,305,225,1
157,199,0,98,1
15,43,444,244,1
384,74,357,77,1
204,91,14,221,1
96,160,0,90,1
106,89,106,9,1
112,213,0,98,1
210,230,365,80,1
230,517,383,134,1
185,37,429,648,1
3,199,513,129,1
103,194,19,639,1
86,65,395,345,1
104,47,594,201,1
151,163,319,79,1
122,94,44,349,1
47,110,187,50,1
2,103,82,13,1
7,20,150,88,1
24,196,136,105,1
47,7,407,369,1
88,40,13,242,1
53,43,63,58,1
91,9,79,101,1
237,49,377,132,1
85,96,298,233,1
208,71,10,37,1
18,104,76,321,1
187,17,96,143,1
224,70,13,4,1
53,10,240,864,1
4,49,116,158,1
38,17,89,198,1
8,48,391,19,1
176,55,82,134,1
20,580,478,34,1
112,258,166,3,1
163,38,179,34,1
32,33,25,126,1
17,266,87,257,1
81,179,286,294,1
106,60,162,161,1
55,105,233,13,1
101,19,550,244,1
92,108,6,347,1
158,194,724,144,1
113,147,307,66,1
17,36,99,254,1
58,110,8,26,1
21,140,478,58,1
267,154,517,278,1
147,9,297,283,1
144,348,258,14,1
428,238,664,416,1
13,13,10,172,1
249,178,788,768,1
61,30,251,417,1
139,183,53,631,1
176,59,118,634,1
73,56,208,51,1
1,82,85,171,1
23,73,266,27,1
132,312,93,64,1
50,85,529,213,1
22,50,0,412,1
185,180,93,129,1
7,51,177,24,1
13,143,307,3,1
74,27,378,701,1
33,34,51,160,1
27,59,257,140,1
7,142,374,228,1
53,103,87,87,1
205,39,146,376,1
33,102,219,288,1
280,127,44,227,1
74,202,159,61,1
2,70,44,172,1
194,65,16,369,1
133,113,178,6,1
41,57,176,12,1
31,33,23,78,1
43,65,108,20,1
55,216,0,148,1
7,11,41,208,1
133,156,0,63,1
120,38,165,214,1
54,71,15,43,1
132,68,313,490,1
164,165,275,109,1
140,86,135,5,1
174,88,181,37,1
74,36,63,55,1
18,13,74,34,1
29,37,0,333,1
35,96,110,133,1
0,21,230,55,1
72,159,0,52,1
2,92,9,55,1
77,121,80,75,1
146,335,57,43,1
95,12,193,123,1
23,194,76,92,1
4,57,55,62,1
159,86,25,65,1
112,242,1,347,1
159,166,44,201,1
1,99,90,117,1
160,131,0,89,1
22,12,160,171,1
183,52,51,82,1
79,39,129,54,1
45,91,70,96,1
76,11,102,153,1
6,78,94,17,1
160,143,99,89,1
13,5,189,140,1
58,11,188,92,1
7,203,107,130,1
35,91,5,18,1
28,28,0,117,1
69,82,136,14,1
93,84,104,94,1
27,13,70,131,1
69,65,51,129,1
108,117,295,78,1
27,163,40,53,1
42,47,162,177,1
29,96,2,102,1
34,27,95,71,1
62,215,8,218,1
5,102,66,60,1
205,105,55,61,1
145,187,152,184,1
254,168,6,137,1
104,78,5,101,1
54,108,18,99,1
63,32,3,3,1
1,146,0,28,1
0,24,22,9,1
43,36,38,33,1
50,39,100,16,1
64,69,97,32,1
64,29,120,137,1
3,40,81,128,1
157,74,0,3,1
66,63,0,33,1
3,78,93,21,1
22,30,57,41,1
0,118,106,3,1
91,11,124,25,1
37,83,41,27,1
95,381,117,101,1
139,302,0,43,1
84,94,23,1,1
232,13,101,71,1
199,294,0,17,1
23,111,10,20,1
150,260,23,79,1
56,107,0,65,1
53,98,54,24,1
19,13,0,71,1
47,203,0,101,1
104,21,55,55,1
76,113,10,121,1
93,176,43,140,1
193,6,33,113,1
0,133,41,9,1
17,62,26,1,1
41,32,47,35,1
157,120,21,54,1
27,45,67,24,1
47,151,3,4,1
135,208,75,51,1
8,29,39,119,1
43,81,45,4,1
2,29,0,3,1
0,127,7,5,1
104,9,56,113,1
140,154,0,76,1
102,59,35,29,1
83,35,14,1,1
30,8,17,81,1
1,48,31,49,1
30,17,30,37,1
117,114,6,74,1
179,305,0,1,1
3,81,6,2,1
205,63,0,41,1
0,73,4,14,1
77,23,43,66,1
122,45,0,21,1
9,41,0,12,1
79,9,37,106,1
55,79,1,109,1
48,91,37,14,1
26,166,0,50,1
18,50,8,114,1
126,215,22,2,1
54,215,3,44,1
50,9,9,40,1
2,5,0,8,1
0,17,12,1,1
100,20,0,72,1
25,111,16,3,1
186,148,27,26,1
117,103,22,69,1
33,9,23,72,1
106,159,38,1,1
4,31,0,44,1
112,94,61,114,1
71,33,25,107,1
71,95,28,48,1
240,215,51,50,1
19,41,0,43,1
19,132,0,44,1
54,93,6,98,1
6,27,34,56,1
73,178,0,24,1
84,117,0,13,1
80,77,47,46,1
97,51,0,13,1
18,83,0,10,1
48,49,41,20,1
25,11,10,6,1
50,39,36,15,1
7,5,36,27,1
8,59,17,19,1
133,128,29,4,1
15,95,0,2,1
41,34,56,116,1
74,44,0,56,1
8,39,24,12,1
36,24,14,78,1
11,16,0,14,1
104,111,13,6,1
11,28,5,56,1
134,239,31,38,1
164,210,11,1,1
66,141,0,1,1
105,45,11,41,1
70,122,0,5,1
52,156,15,3,1
53,57,0,23,1
4,25,0,30,1
75,75,34,15,1
137,88,23,31,1
3,8,22,26,1
91,33,18,6,1
8,109,0,2,1
3,19,39,51,1
151,169,10,8,1
92,148,0,11,1
63,7,23,43,1
41,165,21,37,1
71,60,6,5,1
63,58,9,32,1
31,98,0,5,1
32,51,28,43,1
27,43,8,69,1
86,48,101,44,1
93,7,0,67,1
41,19,53,15,1
20,12,7,19,1
17,98,16,31,1
48,19,0,1,1
58,129,25,81,1
49,38,26,9,1
8,19,0,85,1
21,7,49,70,1
52,11,0,28,1
0,16,0,38,1
64,41,26,21,1
14,6,10,66,1
5,62,62,107,1
59,13,45,73,1
68,73,4,36,1
90,19,62,11,1
43,6,9,198,1
23,63,4,41,1
74,90,154,165,1
142,49,0,4,1
25,49,78,107,1
93,42,120,62,1
81,11,16,77,1
81,100,64,79,1
88,168,27,155,1
249,335,12,140,1
47,114,0,50,1
73,129,176,112,1
60,76,27,142,1
27,89,62,33,1
50,7,31,85,1
57,23,44,11,1
2,19,68,1,1
124,47,48,12,1
239,124,0,153,1
87,8,91,15,1
48,11,0,128,1
36,101,107,156,1
112,109,19,158,1
68,294,2,4,1
68,105,0,34,1
1,47,109,422,1
55,95,12,17,1
37,67,117,258,1
8,114,0,155,1
78,153,51,95,1
168,141,0,255,1
29,67,36,117,1
50,145,198,89,1
147,28,77,140,1
30,30,124,114,1
128,66,39,351,1
21,68,132,279,1
99,92,160,8,1
0,150,122,82,1
37,23,71,2,1
181,45,51,229,1
197,39,97,95,1
48,270,0,546,1
17,155,135,245,1
0,51,64,352,1
260,226,113,189,1
45,261,100,147,1
153,90,60,172,1
72,31,154,65,1
150,164,70,102,1
146,6,84,9,1
8,141,40,132,1
59,23,40,89,1
186,35,169,61,1
45,9,0,17,1
62,97,86,44,1
73,188,16,16,1
1,11,113,147,1
139,245,2,40,1
45,93,221,191,2
13,39,62,331,2
57,86,264,451,2
178,43,66,49,2
92,75,103,8,2
110,156,102,65,2
179,183,357,81,2
268,127,392,50,2
93,90,4,284,2
114,189,306,545,2
162,43,198,271,2
27,6,297,928,2
21,22,222,417,2
7,39,186,103,2
256,83,131,15,2
8,37,259,249,2
42,46,247,153,2
203,258,442,321,2
225,48,225,86,2
29,149,479,504,2
30,61,413,83,2
304,62,99,365,2
154,52,28,325,2
16,104,65,279,2
84,77,5,53,2
32,36,249,52,2
85,123,84,41,2
78,91,269,253,2
174,18,50,443,2
170,136,241,157,2
22,97,0,196,2
107,26,67,366,2
146,6,155,123,2
106,189,85,169,2
48,21,327,174,2
23,20,21,341,2
30,102,569,319,2
156,122,348,343,2
271,152,631,752,2
152,76,88,222,2
74,15,189,410,2
73,147,411,60,2
186,254,202,179,2
35,298,433,602,2
311,112,273,228,2
15,168,407,409,2
101,219,247,113,2
210,74,337,60,2
46,41,52,157,2
16,73,184,182,2
63,38,406,326,2
155,9,190,246,2
22,34,225,307,2
302,16,900,315,2
382,125,402,160,2
129,5,446,115,2
117,89,221,196,2
19,114,24,108,2
63,294,123,84,2
49,125,42,9,2
114,108,9,48,2
218,49,121,264,2
22,209,423,96,2
292,276,25,473,2
413,30,390,86,2
126,57,17,299,2
114,115,254,340,2
40,86,566,114,2
192,185,634,509,2
154,224,459,1023,2
122,54,541,26,2
100,113,389,144,2
61,40,222,189,2
149,44,181,151,2
86,393,1,357,2
152,215,9,365,2
290,63,279,23,2
93,192,449,235,2
190,69,287,582,2
514,274,385,250,2
209,344,655,44,2
79,163,0,473,2
138,13,374,760,2
40,6,481,41,2
283,316,143,95,2
44,20,314,997,2
6,108,281,590,2
249,169,69,179,2
5,39,165,195,2
4,7,195,161,2
257,122,34,55,2
229,105,91,19,2
4,39,167,506,2
137,91,394,276,2
220,59,167,829,2
21,98,413,106,2
56,134,444,472,2
197,363,95,302,2
121,266,60,139,2
579,299,524,57,2
330,57,648,184,2
60,78,827,198,2
82,366,25,264,2
70,121,895,326,2
91,186,47,138,2
37,82,642,184,2
193,29,118,290,2
172,143,303,353,2
151,67,150,5,2
214,177,230,489,2
26,19,392,455,2
21,38,912,881,2
12,12,607,277,2
12,86,330,489,2
192,65,344,809,2
521,117,479,502,2
474,177,214,471,2
154,170,150,222,2
231,59,126,472,2
9,51,731,473,2
137,116,92,250,2
74,136,95,182,2
4,16,315,76,2
64,90,362,33,2
303,120,732,12,2
51,71,832,331,2
108,146,810,104,2
110,115,599,571,2
229,457,1002,73,2
106,135,330,283,2
6,186,369,156,2
142,595,573,195,2
515,220,543,170,2
85,91,265,333,2
2,177,137,162,2
87,142,432,73,2
17,130,0,832,2
286,88,150,142,2
253,22,311,106,2
109,70,426,68,2
257,59,385,619,2
184,140,337,616,2
14,10,36,77,2
224,12,306,656,2
4,137,232,231,2
16,265,184,155,2
111,116,162,299,2
43,8,134,98,2
242,123,14,189,2
58,12,570,711,2
186,20,949,674,2
133,120,593,7,2
7,41,332,532,2
118,28,144,30,2
169,22,308,160,2
137,143,312,99,2
168,23,121,56,2
17,86,17,267,2
131,29,85,296,2
205,90,474,380,2
101,127,189,452,2
60,34,168,52,2
32,46,258,168,2
101,52,545,462,2
27,57,309,265,2
39,8,247,508,2
204,30,0,136,2
186,126,172,91,2
74,46,6,15,2
93,63,239,79,2
118,77,176,79,2
101,79,405,77,2
72,65,116,177,2
321,135,390,203,2
137,123,44,95,2
24,210,91,75,2
135,135,158,108,2
100,43,282,116,2
132,18,24,44,2
16,24,229,52,2
19,87,12,155,2
86,85,365,48,2
253,93,433,134,2
307,91,113,14,2
212,71,485,247,2
67,6,224,266,2
52,97,168,171,2
31,92,193,1,2
15,302,3,103,2
311,49,118,223,2
42,6,22,37,2
34,443,137,99,2
239,106,169,490,2
89,343,229,420,2
100,178,14,156,2
11,91,191,60,2
64,93,975,176,2
143,135,202,57,2
24,41,221,88,2
73,61,172,42,2
39,109,43,249,2
86,139,127,2,2
110,173,0,5,2
43,81,179,188,2
125,231,21,164,2
55,292,309,186,2
279,133,656,410,2
240,147,341,71,2
133,53,228,186,2
52,28,240,60,2
96,37,179,4,2
91,97,204,18,2
19,35,150,16,2
164,79,160,153,2
242,163,327,323,2
24,249,223,28,2
425,179,8,337,2
20,53,165,272,2
69,43,37,303,2
35,175,283,327,2
85,114,366,311,2
199,168,103,32,2
86,139,241,33,2
290,164,35,149,2
7,42,230,156,2
192,169,0,138,2
131,77,84,414,2
161,236,0,25,2
49,28,146,67,2
20,64,77,229,2
89,336,265,155,2
40,50,79,15,2
50,105,346,380,2
152,137,196,67,2
25,30,172,73,2
275,284,323,299,2
140,328,0,172,2
71,59,380,396,2
0,171,315,249,2
51,205,2,59,2
45,123,137,106,2
0,39,227,221,2
44,28,282,419,2
270,41,293,5,2
268,254,750,106,2
74,171,177,11,2
259,160,323,99,2
274,150,207,66,2
143,273,3,178,2
71,166,5,118,2
139,264,235,307,2
44,64,136,195,2
30,100,33,69,2
89,102,63,267,2
74,377,111,17,2
185,208,137,122,2
52,16,41,144,2
149,170,252,344,2
114,32,0,117,2
18,32,363,97,2
26,12,158,216,2
159,110,167,127,2
51,55,202,116,2
19,195,182,45,2
88,21,139,167,2
129,245,155,97,2
103,180,285,295,2
55,30,143,34,2
208,144,175,61,2
73,65,0,84,2
45,154,108,153,2
309,186,8,49,2
25,204,83,130,2
123,15,138,157,2
25,58,106,16,2
234,45,144,120,2
169,109,0,197,2
55,43,18,5,2
218,104,220,279,2
24,193,56,28,2
210,181,146,100,2
158,12,50,62,2
79,41,123,65,2
12,78,21,12,2
83,113,154,99,2
202,180,25,114,2
75,187,152,124,2
81,65,20,110,2
80,94,6,86,2
39,53,114,63,2
114,14,44,52,2
249,118,0,9,2
23,5,65,195,2
2,143,137,51,2
119,67,0,70,2
11,202,93,22,2
229,170,278,146,2
20,92,240,19,2
44,7,313,456,2
205,104,104,18,2
88,83,318,3,2
75,18,0,23,2
164,221,100,82,2
7,39,22,130,2
26,132,105,153,2
8,11,66,40,2
101,107,261,13,2
34,92,49,158,2
67,74,141,12,2
13,62,159,447,2
67,8,117,196,2
111,280,0,72,2
222,44,0,228,2
255,375,27,77,2
78,173,0,80,2
12,12,42,243,2
71,132,3,57,2
26,170,0,11,2
3,17,102,132,2
24,45,0,100,2
2,61,53,7,2
177,36,20,6,2
43,14,92,175,2
75,22,44,33,2
4,18,97,62,2
55,6,19,32,2
31,100,51,69,2
78,108,132,4,2
20,101,215,5,2
85,33,140,268,2
15,210,368,105,2
125,64,32,147,2
52,127,112,1,2
7,51,194,71,2
193,124,8,42,2
5,30,33,61,2
111,239,0,60,2
12,90,123,8,2
53,71,0,84,2
84,72,65,107,2
116,164,12,20,2
8,230,0,16,2
29,81,61,14,2
42,11,86,8,2
23,83,27,89,2
28,186,70,8,2
49,201,4,56,2
51,13,67,198,2
83,31,27,157,2
8,103,7,3,2
50,179,3,64,2
83,101,8,80,2
6,79,7,8,2
11,38,71,8,2
4,27,5,26,2
139,159,0,27,2
0,41,16,70,2
138,210,40,27,2
0,47,18,44,2
46,245,18,9,2
11,144,11,47,2
169,76,0,16,2
56,7,0,28,2
2,18,64,16,2
20,8,17,5,2
92,7,15,14,2
133,67,74,41,2
43,7,39,54,2
8,6,40,2,2
71,29,20,37,2
3,71,48,54,2
29,151,0,33,2
65,92,55,44,2
64,59,52,103,2
47,91,0,47,2
52,172,23,100,2
91,67,20,101,2
31,53,0,63,2
109,63,42,90,2
64,5,1,4,2
11,39,1,56,2
43,7,0,6,2
73,72,0,14,2
21,46,55,39,2
83,49,5,15,2
3,11,42,47,2
36,30,29,3,2
59,12,16,5,2
74,58,18,19,2
36,38,10,32,2
27,37,61,44,2
117,155,0,26,2
15,7,0,1,2
147,212,41,31,2
3,38,3,15,2
90,195,50,29,2
79,52,1,10,2
134,150,12,54,2
42,9,3,48,2
86,32,3,18,2
129,186,0,9,2
78,53,0,5,2
37,161,7,49,2
82,151,65,24,2
7,81,0,2,2
26,44,0,7,2
71,69,27,1,2
23,118,8,38,2
86,67,30,4,2
86,22,1,56,2
11,7,52,118,2
131,79,19,64,2
13,8,17,77,2
26,71,46,122,2
8,15,0,55,2
17,6,12,44,2
77,41,8,75,2
36,46,0,63,2
5,69,0,39,2
125,57,28,46,2
34,66,15,64,2
135,132,10,17,2
28,38,0,8,2
203,132,63,59,2
13,52,13,43,2
49,131,11,32,2
69,6,0,21,2
1,10,19,50,2
199,123,0,15,2
84,27,12,25,2
31,46,3,44,2
7,25,0,9,2
11,11,26,19,2
70,7,10,86,2
102,104,28,31,2
69,75,7,23,2
131,117,0,46,2
4,68,0,1,2
170,39,48,40,2
58,17,34,15,2
30,44,88,91,2
21,80,12,22,2
22,76,17,7,2
13,11,50,66,2
9,13,76,51,2
72,28,23,75,2
22,14,60,66,2
39,78,89,21,2
78,119,11,128,2
80,77,122,133,2
17,17,60,102,2
9,75,0,1,2
80,64,54,127,2
114,43,70,114,2
152,163,120,71,2
93,12,69,2,2
132,39,124,84,2
4,39,99,158,2
50,89,144,82,2
11,12,49,91,2
68,17,271,192,2
27,142,89,36,2
115,12,210,236,2
178,226,81,23,2
111,241,108,18,2
1,141,46,7,2
53,7,11,34,2
3,76,154,24,2
77,97,137,25,2
8,30,87,183,2
158,8,152,150,2
59,8,69,9,2
77,70,15,196,2
70,54,149,176,2
20,87,79,86,2
25,196,117,169,2
133,116,128,88,2
57,104,0,47,2
5,8,182,170,2
61,79,103,57,2
0,90,102,20,2
40,123,117,37,2
106,34,52,162,2
40,13,60,11,2
0,29,85,22,2
142,73,1,20,2
2,62,187,10,2
111,291,44,21,2
5,97,71,87,2
149,146,21,134,2
55,59,0,231,2
67,116,174,24,2
139,145,33,120,2
19,252,134,94,2
85,51,99,370,2
14,128,213,209,2
93,7,26,463,2
155,151,126,224,2
160,99,17,258,2
57,30,0,51,2
153,58,230,78,2
100,157,165,15,2
0,131,278,278,2
73,17,137,313,2
100,149,144,103,2
124,114,91,123,2
301,161,147,225,2
101,49,50,265,2
161,10,61,12,2
22,47,333,323,2
32,89,140,202,2
65,104,85,33,2
14,8,81,106,2
27,48,226,1,2
6,223,257,148,2
129,12,172,218,2
91,221,51,423,2
67,102,102,16,2
169,362,195,149,2
184,82,111,179,2
193,62,4,548,2
86,52,124,86,2
78,95,12,260,2
229,117,570,21,2
91,7,62,539,2
240,232,863,186,2
44,180,0,512,2
128,90,491,96,2
6,6,165,183,2
51,118,315,237,2
17,317,125,552,2
107,123,47,232,2
70,94,124,312,2
9,58,113,307,2
32,379,229,377,2
42,38,252,116,2
74,59,502,101,2
220,382,50,161,2
99,182,173,1,2
7,131,101,61,2
170,35,452,259,2
2,71,7,420,2
63,135,405,112,2
29,148,139,71,2
87,113,176,300,2
37,200,96,449,2
138,95,18,539,2
253,238,161,31,2
12,101,37,103,2
56,132,59,97,2
105,39,56,116,2
101,96,363,256,2
132,32,288,176,2
282,39,72,192,2
244,91,3,93,2
2,97,596,161,2
51,91,459,159,2
99,431,584,350,2
133,270,253,534,2
19,290,315,128,2
121,6,14,509,2
71,106,62,109,2
155,120,181,65,2
333,385,165,32,2
179,99,218,360,2
162,15,425,162,2
2,210,441,158,2
9,47,357,351,2
287,8,360,211,2
90,50,249,8,2
153,138,14,37,2
6,145,188,25,2
279,107,331,376,2
111,32,27,102,2
165,159,539,192,2
254,139,462,349,2
161,8,56,202,2
54,25,286,48,2
348,90,0,9,2
203,279,517,276,2
101,69,601,49,2
272,203,320,256,2
52,144,162,330,2
125,174,84,1023,2
171,81,44,77,2
13,70,108,556,2
37,31,166,698,2
20,158,1,216,2
7,63,0,126,2
132,111,48,167,2
204,107,400,46,2
85,54,663,547,2
6,31,182,103,2
68,42,1020,408,2
286,134,802,167,2
73,27,5,1017,2
238,43,3,532,2
489,143,506,381,2
158,85,290,325,2
59,20,477,141,2
11,605,332,455,2
239,174,198,421,2
24,124,440,318,2
126,88,157,311,2
120,123,600,700,2
131,22,799,630,2
185,201,118,232,2
29,68,1023,648,2
101,5,688,320,2
216,29,314,939,2
8,107,314,388,2
16,36,722,170,2
165,12,349,396,2
314,107,332,85,2
233,76,714,312,2
210,87,257,110,2
202,142,489,179,2
73,222,203,227,2
110,62,348,192,2
425,574,857,380,2
12,153,563,114,2
74,75,72,250,2
289,95,0,108,2
12,40,125,47,2
345,196,11,32,2
16,34,735,377,2
63,37,1023,128,2
55,16,259,233,2
134,34,97,40,2
133,96,159,30,2
128,312,650,140,2
265,172,254,166,2
244,160,198,40,2
313,319,453,173,2
94,25,84,98,2
61,48,73,44,2
163,239,117,129,2
353,370,647,492,2
66,20,75,264,2
68,8,429,555,2
1,59,478,772,2
7,57,53,160,2
35,69,397,702,2
17,21,188,70,2
7,44,528,373,2
12,10,732,14,2
261,130,66,134,2
357,55,467,41,2
6,434,320,373,2
268,84,612,153,2
4,328,135,53,2
165,100,514,316,2
322,26,253,144,2
117,109,4,187,2
160,64,527,415,2
46,19,176,15,2
14,27,377,88,2
171,45,766,987,2
85,151,225,607,2
6,9,280,404,2
76,84,291,83,2
39,287,182,159,2
51,124,46,386,2
30,275,790,541,2
126,256,790,311,2
242,49,179,191,2
222,7,560,174,2
254,92,532,330,2
376,90,482,215,2
226,266,232,357,2
116,24,23,255,2
141,115,168,284,2
154,5,94,55,2
162,30,23,49,2
248,63,319,213,2
18,18,144,83,2
81,5,409,39,2
170,216,108,213,2
265,177,375,521,2
61,201,434,428,2
50,82,238,53,2
68,84,146,43,2
56,137,219,52,2
220,99,250,15,2
115,68,57,194,2
44,181,111,363,2
4,65,236,253,2
97,164,701,32,2
146,61,213,557,2
115,67,216,91,2
24,16,156,3,2
146,179,10,138,2
174,229,306,203,2
200,53,354,65,2
34,41,196,149,2
77,23,270,35,2
196,122,295,161,2
42,44,5,24,2
336,204,519,506,2
267,368,122,236,2
173,115,111,6,2
39,99,223,367,2
201,156,218,4,2
340,38,248,89,2
158,46,625,320,2
18,78,135,5,2
3,22,5,110,2
50,187,0,145,2
3,210,153,26,2
94,212,416,276,2
106,14,370,185,2
240,244,73,73,2
199,33,170,6,2
315,313,91,148,2
31,108,129,494,2
70,168,37,65,2
24,95,506,124,2
1,18,198,175,2
191,151,419,310,2
101,14,164,41,2
5,9,534,402,2
275,48,309,103,2
136,84,204,25,2
149,149,590,79,2
27,46,92,469,2
0,135,267,323,2
18,89,326,511,2
116,91,3,120,2
24,40,62,293,2
33,28,0,51,2
115,324,0,181,2
97,55,86,113,2
99,48,55,133,2
19,210,421,316,2
2,41,459,73,2
45,94,121,80,2
70,143,268,266,2
39,26,157,56,2
10,53,80,3,2
41,123,194,130,2
207,175,109,174,2
5,58,66,339,2
169,41,0,634,2
119,70,202,38,2
77,197,125,577,2
19,249,42,119,2
242,160,168,62,2
5,181,0,521,2
185,65,213,132,2
12,84,318,148,2
29,240,167,277,2
137,42,113,215,2
12,140,116,226,2
243,324,0,451,2
18,254,91,295,2
315,12,229,228,2
124,186,102,146,2
87,133,69,428,2
94,83,261,94,2
210,86,101,164,2
309,322,207,221,2
42,34,61,247,2
149,24,12,298,2
36,17,0,244,2
189,137,130,85,2
79,6,66,22,2
40,13,24,623,2
58,54,261,88,2
26,176,100,271,2
234,21,143,243,2
109,27,45,279,2
189,21,166,49,2
56,174,7,375,2
293,117,204,416,2
61,59,95,550,2
94,166,433,565,2
105,18,89,49,2
49,43,423,126,2
163,93,186,148,2
72,23,103,6,2
2,69,220,198,2
135,12,233,505,2
59,230,265,8,2
118,20,379,76,2
4,125,65,104,2
14,51,380,22,2
89,126,0,567,2
11,212,71,573,2
405,211,69,45,2
27,50,121,14,2
31,217,235,14,2
2,105,104,60,2
90,117,54,142,2
129,33,55,178,2
256,7,166,14,2
27,138,41,2,2
14,13,72,187,2
116,93,29,230,2
100,86,236,340,2
117,110,56,21,2
43,11,66,121,2
231,228,99,45,2
49,86,18,288,2
183,30,0,352,2
186,7,55,108,2
269,116,147,10,2
169,208,96,86,2
73,78,297,59,2
111,81,209,171,2
120,84,0,34,2
14,9,116,67,2
83,22,117,226,2
6,251,32,275,2
106,108,153,272,2
98,243,55,9,2
144,159,122,43,2
24,185,89,346,2
26,141,90,179,2
178,79,0,470,2
85,72,33,292,2
11,7,226,264,2
179,111,182,415,2
9,199,119,386,2
147,150,0,62,2
62,347,15,273,2
22,18,60,193,2
57,60,25,226,2
34,35,260,458,2
349,205,238,84,2
13,48,46,500,2
25,98,162,82,2
33,13,91,86,2
9,19,113,326,2
22,144,48,291,2
29,9,0,50,2
89,232,125,469,2
156,258,120,169,2
87,39,105,279,2
11,23,84,46,2
85,51,100,29,2
96,73,247,131,2
11,69,87,27,2
64,28,317,322,2
37,74,344,308,2
63,86,171,178,2
114,13,371,8,2
170,255,132,323,2
14,21,367,137,2
85,63,44,87,2
34,65,141,95,2
61,19,293,1,2
52,152,0,488,2
45,206,451,125,2
37,40,30,34,2
92,103,42,130,2
9,60,82,302,2
47,7,80,282,2
7,110,67,153,2
144,127,62,36,2
125,110,0,119,2
26,44,129,75,2
83,43,164,50,2
66,122,0,159,2
64,7,263,195,2
14,108,0,323,2
167,27,0,2,2
69,83,0,49,2
19,31,0,185,2
69,57,106,25,2
56,135,36,11,2
42,150,6,13,2
19,103,72,27,2
39,74,83,141,2
4,37,88,5,2
155,57,32,124,2
63,48,91,164,2
30,6,121,191,2
34,31,64,132,2
149,89,0,24,2
1,40,31,6,2
28,35,42,50,2
21,96,93,121,2
36,48,4,161,2
124,229,12,45,2
36,6,2,86,2
93,33,143,129,2
2,12,176,110,2
120,112,4,60,2
55,159,0,67,2
35,41,69,3,2
4,35,41,18,2
36,261,14,16,2
14,108,1,16,2
73,159,31,22,2
19,68,0,14,2
28,30,5,6,2
17,53,34,21,2
73,32,31,7,2
96,104,0,73,2
123,10,69,102,2
107,50,107,23,2
80,52,37,33,2
40,96,13,160,2
106,124,71,6,2
56,73,114,23,2
7,51,36,120,2
9,45,12,31,2
64,100,22,59,2
124,237,17,1,2
11,31,7,19,2
163,241,84,75,2
42,159,0,32,2
15,87,14,31,2
73,34,15,49,2
91,79,0,8,2
93,73,16,41,2
72,53,38,10,2
0,33,0,22,2
80,59,89,58,2
77,40,16,6,2
117,5,95,56,2
81,99,7,75,2
54,79,20,11,2
29,71,0,138,2
44,56,11,27,2
109,87,34,7,2
63,61,2,1,2
0,19,6,1,2
168,157,0,7,2
35,129,9,48,2
115,125,22,21,2
106,163,11,28,2
18,11,7,6,2
44,129,6,20,2
51,37,0,27,2
19,7,2,71,2
29,19,20,4,2
49,115,0,65,2
19,129,119,114,2
93,7,6,17,2
46,33,60,44,2
115,155,27,48,2
37,59,0,56,2
107,46,50,12,2
91,62,0,1,2
5,59,36,1,2
123,220,42,33,2
45,27,34,52,2
158,147,0,7,2
58,5,23,93,2
116,63,6,81,2
128,49,10,20,2
23,20,36,80,2
94,103,159,119,2
270,62,0,108,2
2,52,174,20,2
143,303,5,102,2
20,129,18,12,2
60,56,0,1,2
40,16,55,73,2
126,115,75,76,2
109,176,34,127,2
15,57,120,118,2
133,231,27,42,2
45,62,0,59,2
50,121,0,38,2
70,66,118,84,2
127,59,83,43,2
1,36,16,24,2
97,34,6,2,2
35,91,35,142,2
1,130,119,75,2
17,44,26,30,2
110,179,72,59,2
2,27,24,1,2
30,43,0,19,2
61,6,24,4,2
30,88,81,24,2
130,23,72,49,2
6,72,0,5,2
6,9,89,42,2
91,40,22,60,2
0,25,46,52,2
96,97,172,4,2
124,155,31,250,2
24,25,119,113,2
71,135,7,186,2
47,69,1,337,2
101,118,43,349,2
15,19,14,413,2
32,26,201,59,2
59,21,26,35,2
44,8,101,117,2
2,87,191,155,2
77,15,29,53,2
5,34,93,95,2
148,46,119,100,2
21,181,73,52,2
91,121,24,36,2
36,49,90,9,2
31,68,223,22,2
62,90,0,46,2
0,68,65,75,2
225,344,65,86,2
0,9,110,161,2
26,70,107,110,2
43,146,108,343,2
43,119,44,231,2
91,37,72,443,2
10,92,69,38,2
195,19,86,325,2
49,28,329,53,2
85,71,140,287,2
291,51,293,338,2
171,48,94,141,2
3,17,68,47,2
9,41,237,38,2
160,101,56,12,2
70,114,22,233,2
120,183,96,78,2
43,58,88,171,2
6,148,34,373,2
34,26,44,123,2
160,19,90,222,2
13,91,33,153,2
88,157,11,70,2
115,47,62,172,2
58,69,154,238,2
177,88,5,65,2
238,91,7,305,2
35,61,106,7,2
5,12,195,28,2
50,80,44,11,2
22,15,201,197,2
35,32,46,268,2
177,76,79,614,2
1,70,322,156,2
153,5,635,164,2
162,27,610,67,2
15,133,393,429,2
66,55,441,21,2
309,188,77,155,2
318,125,129,56,2
97,38,50,11,2
132,59,122,198,2
53,48,66,80,2
234,178,142,66,2
27,200,82,332,2
38,352,0,332,2
102,46,17,316,2
196,51,151,188,2
137,64,64,67,2
83,260,350,340,2
176,30,24,11,2
50,208,235,441,2
125,81,46,295,2
175,36,46,637,2
53,29,38,304,2
262,31,76,275,2
276,272,198,361,2
235,24,9,11,2
3,13,184,131,2
235,46,31,86,2
137,94,181,320,2
15,148,0,130,2
183,394,9,187,2
104,63,222,570,2
46,112,49,516,2
196,11,264,111,2
2,7,90,302,2
68,181,603,460,2
74,12,235,175,2
53,32,438,365,2
9,59,145,121,2
53,70,15,196,2
196,165,21,249,2
48,117,176,87,2
72,18,184,21,2
360,239,299,179,2
213,239,217,494,2
31,217,91,334,2
66,137,52,255,2
80,48,111,183,2
4,11,46,28,2
171,90,254,11,2
26,41,31,386,2
244,76,132,317,2
60,183,29,346,2
257,79,463,455,2
359,134,578,1023,2
246,135,891,1023,2
334,44,601,346,2
82,70,187,141,2
119,211,637,216,2
242,236,186,456,2
8,36,215,288,2
306,146,551,353,2
128,207,581,35,2
544,308,258,619,2
326,267,819,784,2
27,144,183,353,2
380,438,1023,626,2
250,628,36,145,2
86,128,102,919,2
138,58,224,70,2
18,38,180,103,2
78,55,9,545,2
94,40,668,633,2
38,110,287,312,2
104,18,1023,649,2
85,117,99,277,2
32,106,197,459,2
392,401,434,160,2
286,23,71,494,2
88,170,24,174,2
255,264,227,21,2
452,307,0,196,2
134,274,47,573,2
259,359,81,161,2
52,52,615,469,2
105,37,523,106,2
243,65,510,392,2
53,121,555,68,2
7,58,0,283,2
176,88,134,105,2
88,57,53,307,2
325,165,138,470,2
200,101,41,15,2
117,240,70,57,2
11,49,298,176,2
237,393,0,51,2
243,58,188,428,2
209,371,382,182,2
418,313,21,77,2
13,8,136,618,2
154,36,100,539,2
90,130,336,62,2
21,15,41,228,2
259,106,692,227,2
321,102,613,655,2
172,242,330,393,2
228,27,528,455,2
127,195,108,12,2
106,13,91,101,2
85,92,140,49,2
1,7,293,214,2
69,50,438,997,2
18,36,340,457,2
128,153,1023,323,2
70,86,87,327,2
46,24,687,164,2
109,382,231,19,2
204,414,1023,590,2
224,134,74,11,2
95,7,283,149,2
76,119,687,73,2
173,146,171,348,2
81,73,652,9,2
203,130,279,134,2
48,57,452,689,2
215,15,984,31,2
116,58,445,186,2
284,41,8,564,2
6,62,21,309,2
43,138,332,205,2
93,194,816,178,2
91,662,262,98,2
321,136,801,4,2
58,348,561,87,2
93,88,635,226,2
365,227,196,235,2
237,102,59,29,2
40,40,725,377,2
250,82,145,982,2
18,18,513,247,2
203,110,172,166,2
19,23,149,30,2
3,162,701,471,2
237,11,154,116,2
186,50,398,163,2
49,92,43,216,2
111,318,559,192,2
228,426,51,149,2
260,44,304,329,2
464,154,115,824,2
172,379,1023,905,2
153,79,94,251,2
20,8,1023,580,2
40,150,414,160,2
175,17,339,252,2
106,96,185,54,2
12,11,295,20,2
132,149,195,191,2
325,207,280,83,2
263,52,0,207,2
154,218,53,87,2
62,187,136,103,2
102,76,376,168,2
245,61,442,229,2
1,277,52,109,2
140,240,214,302,2
162,17,26,239,2
116,165,300,710,2
91,69,550,387,2
52,78,200,136,2
117,111,330,122,2
210,134,473,178,2
1,31,872,42,2
270,54,493,316,2
148,95,200,62,2
31,162,325,119,2
187,37,0,385,2
235,87,329,664,2
110,95,39,394,2
111,181,369,166,2
10,233,20,352,2
171,6,44,9,2
70,141,87,12,2
5,14,136,41,2
0,223,82,68,2
137,126,62,138,2
41,67,181,481,2
138,80,209,258,2
294,187,115,16,2
345,96,174,47,2
67,8,4,109,2
138,49,108,242,2
235,108,307,216,2
14,101,129,207,2
43,35,5,59,2
55,5,43,65,2
22,151,310,380,2
95,163,108,326,2
56,9,139,19,2
27,164,195,22,2
306,15,309,44,2
92,27,340,330,2
204,18,0,103,2
73,86,51,60,2
82,33,238,293,2
94,39,31,50,2
43,185,27,3,2
106,31,324,195,2
100,35,102,62,2
328,294,5,87,2
197,420,199,9,2
20,54,121,50,2
3,12,0,398,2
92,163,102,108,2
25,76,119,100,2
48,67,256,163,2
165,320,292,159,2
111,23,27,49,2
138,191,0,262,2
59,27,67,245,2
142,204,181,345,2
14,84,276,320,2
101,50,131,459,2
220,207,394,275,2
174,195,260,248,2
27,213,413,268,2
69,154,8,9,2
152,103,8,16,2
153,78,486,384,2
163,78,91,195,2
1,97,101,243,2
144,88,122,419,2
88,96,70,2,2
162,138,7,16,2
62,37,175,28,2
71,93,563,145,2
119,92,181,77,2
109,26,445,207,2
207,44,199,62,2
116,299,224,256,2
99,177,249,197,2
87,55,105,135,2
116,236,17,154,2
109,250,273,336,2
76,56,226,25,2
72,121,195,373,2
32,159,60,88,2
16,147,271,15,2
101,199,97,8,2
184,25,149,363,2
16,63,232,375,2
21,71,121,130,2
20,77,315,145,2
115,45,57,132,2
70,83,130,175,2
288,369,170,39,2
4,36,123,77,2
118,90,48,407,2
168,187,133,128,2
158,178,124,43,2
15,35,361,137,2
176,51,310,217,2
124,44,22,39,2
49,72,54,105,2
55,15,422,21,2
180,42,110,101,2
72,8,673,159,2
94,13,75,146,2
15,47,291,269,2
104,19,75,179,2
81,19,24,127,2
3,8,8,128,2
7,127,243,146,2
146,128,26,73,2
66,16,261,258,2
118,35,118,179,2
202,54,108,261,2
123,26,96,60,2
10,53,197,15,2
57,69,230,374,2
24,55,99,163,2
63,51,151,31,2
87,44,204,35,2
91,7,230,295,2
42,12,0,121,2
36,55,52,107,2
227,128,234,404,2
100,151,131,13,2
4,16,156,3,2
181,327,241,136,2
194,264,0,51,2
77,30,161,100,2
11,108,0,50,2
35,77,258,342,2
85,10,3,170,2
102,150,7,17,2
120,133,182,139,2
38,5,154,275,2
121,88,24,266,2
13,21,53,58,2
32,149,302,46,2
128,172,137,324,2
73,61,400,292,2
197,187,161,35,2
42,21,46,164,2
99,115,271,58,2
1,57,0,47,2
85,104,110,286,2
59,29,88,230,2
146,145,127,147,2
211,200,158,2,2
118,73,55,18,2
3,78,115,217,2
67,135,60,89,2
181,28,3,146,2
15,115,146,22,2
150,9,18,148,2
27,76,71,138,2
81,47,35,100,2
83,131,150,198,2
160,73,93,4,2
97,125,117,327,2
10,37,0,95,2
89,249,51,135,2
21,156,3,9,2
205,166,95,120,2
39,21,20,68,2
40,119,1,24,2
69,136,81,82,2
0,5,33,13,2
94,38,43,78,2
88,58,0,132,2
41,110,15,39,2
49,101,137,208,2
56,81,31,123,2
23,24,77,11,2
144,132,29,143,2
11,47,28,246,2
135,79,25,219,2
126,226,32,109,2
86,33,42,7,2
130,205,146,155,2
29,22,0,53,2
103,128,149,16,2
59,60,144,79,2
10,130,20,58,2
39,17,6,118,2
47,82,18,73,2
48,17,54,115,2
63,154,5,104,2
38,216,68,21,2
21,121,21,79,2
25,144,41,84,2
97,179,0,1,2
41,10,0,1,2
12,59,0,3,2
4,45,0,49,2
53,56,0,44,2
29,147,16,25,2
28,69,0,3,2
43,71,23,10,2
47,70,59,24,2
121,75,0,39,2
42,41,65,3,2
146,188,0,76,2
109,66,1,105,2
45,105,26,17,2
81,135,0,11,2
12,76,0,18,2
3,77,0,3,2
219,154,25,52,2
74,59,0,17,2
13,42,83,35,2
69,106,48,83,2
43,69,60,119,2
85,185,48,3,2
27,71,0,60,2
27,5,1,106,2
5,22,29,5,2
44,41,0,9,2
75,43,22,67,2
100,165,4,23,2
12,76,8,35,2
187,105,0,59,2
39,116,9,45,2
137,83,13,1,2
98,161,11,44,2
9,117,3,27,2
13,115,15,2,2
34,43,15,5,2
136,174,0,23,2
61,24,12,4,2
59,12,17,84,2
70,9,21,37,2
96,11,0,1,2
64,71,90,146,2
52,52,22,126,2
60,24,101,10,2
111,61,0,81,2
17,51,19,118,2
37,100,0,67,2
40,29,33,77,2
134,145,0,61,2
134,108,15,1,2
29,49,2,4,2
106,54,81,30,2
72,94,0,45,2
16,28,30,15,2
164,111,52,53,2
34,17,52,9,2
64,70,0,66,2
8,23,0,93,2
26,56,92,47,2
183,139,60,205,2
35,51,31,16,2
45,49,113,28,2
0,14,67,39,2
76,84,51,184,2
86,42,24,21,2
31,34,58,118,2
103,102,48,75,2
76,150,86,117,2
18,7,118,35,2
59,27,15,17,2
122,225,33,48,2
146,249,17,95,2
69,51,0,14,2
52,119,9,60,2
32,21,115,113,2
13,19,57,95,2
0,26,0,131,2
25,159,123,160,2
39,160,58,154,2
182,14,9,30,2
41,89,48,181,2
139,26,9,3,2
37,50,56,111,2
49,153,73,42,2
27,79,74,78,2
83,89,108,233,2
45,69,141,377,2
99,119,51,62,2
73,20,106,167,2
70,192,48,34,2
70,75,101,171,2
13,45,6,18,2
9,71,17,10,2
62,8,104,90,2
28,243,66,9,2
202,285,7,332,2
38,121,170,330,2
99,8,100,81,2
24,64,0,72,2
85,162,25,203,2
177,54,83,260,2
15,77,51,171,2
41,175,22,18,2
67,10,42,8,2
0,7,8,1,2
45,8,2,85,2
54,28,140,216,2
56,63,173,15,2
98,48,104,316,2
143,187,311,255,2
289,177,106,255,2
46,54,237,359,2
46,76,0,102,2
86,45,93,82,2
152,226,288,206,2
163,127,43,215,2
80,99,0,415,2
27,128,24,547,2
168,186,277,270,2
1,81,148,41,2
42,14,13,36,2
147,37,52,203,2
173,51,27,241,2
4,53,62,15,2
297,130,30,176,2
78,101,253,241,2
137,89,180,88,2
89,71,397,128,2
33,82,223,713,2
33,166,481,330,2
123,33,38,142,2
381,104,39,271,2
176,119,119,16,2
154,208,86,148,2
68,107,27,503,2
2,62,191,60,2
211,173,33,756,2
99,119,473,340,2
114,13,149,421,2
34,62,262,199,2
11,113,238,271,2
23,162,110,326,2
21,169,427,272,2
139,5,371,163,2
201,102,104,187,2
253,131,581,280,2
181,64,177,290,2
209,189,804,1023,2
172,75,318,306,2
186,280,176,458,2
33,150,3,75,2
98,55,625,13,2
178,213,146,263,2
45,65,585,237,2
160,145,520,376,2
107,212,479,302,2
109,16,95,1023,2
12,118,239,572,2
58,215,204,416,2
240,128,151,56,2
200,52,145,184,2
1,162,111,50,2
106,41,279,121,2
365,297,84,96,2
153,14,497,139,2
142,221,30,62,2
52,20,154,395,2
150,77,134,70,2
7,69,6,327,2
6,271,752,148,2
30,170,151,68,2
201,97,358,223,2
101,406,587,191,2
347,330,11,132,2
153,183,627,318,2
239,63,239,468,2
430,27,513,241,2
123,140,320,150,2
27,366,106,455,2
15,198,250,225,2
86,9,559,435,2
175,61,660,796,2
114,75,903,91,2
261,223,85,138,2
184,195,409,26,2
128,20,157,53,2
303,102,425,218,2
152,146,366,238,2
10,68,1023,16,2
274,171,114,747,2
371,20,695,679,2
131,20,125,130,2
317,232,443,208,2
39,221,55,80,2
3,194,834,167,2
232,342,21,462,2
351,178,502,279,2
632,301,352,258,2
343,33,545,396,2
376,57,259,498,2
5,116,419,121,2
71,18,65,195,2
29,47,502,20,2
345,440,258,1023,2
24,275,511,592,2
240,123,540,33,2
197,112,115,506,2
175,188,789,294,2
28,132,70,536,2
201,79,596,343,2
12,100,311,189,2
39,330,254,293,2
69,50,33,459,2
136,332,837,6,2
240,113,18,403,2
192,277,1023,737,2
615,23,446,244,2
244,348,329,263,2
112,14,234,271,2
7,80,538,516,2
264,185,83,120,2
375,78,572,544,2
62,86,316,5,2
6,47,320,494,2
57,129,798,247,2
303,32,1023,1023,2
213,14,602,49,2
19,81,889,540,2
5,25,190,196,2
147,69,58,430,2
634,569,362,243,2
219,256,104,224,2
12,248,342,368,2
3,213,547,40,2
80,205,32,338,2
199,108,441,554,2
415,145,366,154,2
120,73,655,98,2
19,112,306,61,2
5,52,601,913,2
56,171,862,196,2
280,43,0,479,2
86,39,57,315,2
197,47,690,212,2
197,16,86,58,2
95,397,683,103,2
21,641,213,209,2
130,430,165,129,2
176,105,52,170,2
3,33,411,53,2
44,36,851,6,2
1,222,177,243,2
158,81,688,1023,2
4,12,740,347,2
103,12,438,79,2
174,50,144,617,2
228,289,228,200,2
113,71,502,403,2
37,14,114,234,2
9,57,316,189,2
113,29,163,718,2
15,123,90,255,2
414,207,430,76,2
175,262,161,159,2
588,342,288,192,2
119,224,588,209,2
132,111,852,124,2
245,256,563,114,2
133,113,610,316,2
173,93,481,363,2
40,57,68,193,2
110,29,506,130,2
203,126,239,61,2
68,72,133,110,2
230,163,0,179,2
102,92,6,58,2
27,35,224,211,2
116,119,112,35,2
39,138,501,73,2
83,22,798,107,2
7,118,95,564,2
52,145,627,62,2
24,28,10,36,2
173,10,0,116,2
155,11,446,77,2
4,138,34,134,2
117,26,582,193,2
84,79,493,152,2
100,108,202,135,2
50,58,295,996,2
62,210,355,445,2
102,41,0,68,2
90,49,68,7,2
5,126,273,120,2
145,45,50,13,2
4,76,419,257,2
95,299,214,82,2
52,66,93,228,2
117,15,366,379,2
227,117,260,201,2
445,61,373,202,2
12,188,341,43,2
424,175,378,274,2
48,134,83,201,2
7,125,317,132,2
2,136,199,503,2
69,82,172,5,2
240,50,61,200,2
55,135,235,24,2
131,88,0,216,2
269,68,497,194,2
84,302,189,156,2
185,93,31,10,2
34,123,166,169,2
78,44,49,227,2
97,21,177,102,2
20,40,451,36,2
182,31,296,157,2
18,18,35,271,2
362,55,272,49,2
33,241,933,65,2
69,273,164,174,2
70,44,390,130,2
92,17,100,420,2
0,106,422,271,2
79,199,213,110,2
41,112,142,363,2
304,215,232,38,2
174,41,183,9,2
244,155,16,117,2
2,231,129,476,2
140,133,405,187,2
24,28,581,19,2
37,58,75,100,2
51,19,1,256,2
102,43,127,15,2
60,122,31,115,2
133,32,218,374,2
47,56,319,222,2
87,72,90,68,2
209,233,244,335,2
4,238,117,28,2
114,173,21,113,2
19,43,248,60,2
65,17,120,175,2
115,235,785,343,2
22,173,228,113,2
35,88,0,255,2
86,94,50,125,2
18,69,305,23,2
141,11,205,331,2
190,96,62,20,2
45,35,412,154,2
189,33,228,145,2
162,162,98,165,2
7,147,78,55,2
242,151,160,52,2
28,142,352,239,2
68,188,49,545,2
51,92,251,65,2
109,110,28,305,2
98,181,0,101,2
16,41,45,17,2
56,61,126,78,2
64,6,52,141,2
223,33,65,391,2
167,41,14,142,2
44,33,305,287,2
3,89,162,98,2
1,62,394,190,2
131,201,0,113,2
16,311,312,157,2
195,185,33,25,2
205,349,17,85,2
105,147,168,219,2
12,89,91,125,2
102,121,142,245,2
121,130,35,407,2
91,95,101,178,2
76,95,239,64,2
77,91,125,55,2
280,105,372,124,2
187,16,174,61,2
17,258,64,141,2
77,81,221,172,2
109,27,100,92,2
98,118,0,149,2
36,91,80,66,2
25,143,122,9,2
253,37,61,96,2
14,54,151,73,2
97,87,67,31,2
75,114,217,146,2
54,74,168,305,2
11,70,215,166,2
74,127,22,53,2
64,104,89,333,2
45,29,29,161,2
80,122,13,317,2
21,183,83,57,2
23,47,43,366,2
8,15,152,792,2
63,110,20,13,2
18,27,1,49,2
8,112,205,63,2
60,109,23,4,2
18,15,53,14,2
103,105,158,159,2
14,7,0,1,2
169,69,165,125,2
19,47,269,198,2
139,12,280,178,2
198,23,143,322,2
60,61,52,117,2
31,88,0,124,2
47,13,4,252,2
83,51,197,205,2
116,241,211,103,2
10,23,172,145,2
231,237,61,106,2
28,60,15,94,2
251,403,339,131,2
112,76,26,100,2
110,136,272,192,2
72,38,315,274,2
10,100,43,25,2
146,199,227,98,2
2,19,29,37,2
82,135,73,16,2
146,106,123,65,2
1,110,29,139,2
6,54,45,185,2
58,25,74,194,2
58,66,96,24,2
83,83,135,71,2
52,48,40,54,2
128,263,82,24,2
4,5,117,20,2
68,300,10,40,2
53,41,0,118,2
2,33,0,129,2
0,57,22,75,2
55,132,55,67,2
82,211,50,4,2
2,14,76,44,2
112,179,0,197,2
54,61,81,197,2
20,54,76,57,2
4,29,38,62,2
153,104,12,105,2
35,13,20,15,2
48,7,12,51,2
4,46,10,75,2
36,115,0,66,2
16,53,10,18,2
134,6,40,20,2
75,174,34,22,2
113,159,11,111,2
82,23,27,67,2
87,214,44,16,2
100,181,0,35,2
143,218,46,1,2
100,169,0,25,2
57,64,40,61,2
77,134,13,15,2
63,167,36,47,2
5,47,0,23,2
44,178,18,17,2
87,95,29,41,2
85,17,31,2,2
58,29,2,4,2
73,77,81,25,2
33,40,14,13,2
25,52,52,45,2
68,150,22,6,2
41,103,6,18,2
78,48,17,59,2
38,76,3,37,2
39,103,37,22,2
66,71,0,21,2
0,27,0,10,2
96,199,11,10,2
70,221,0,17,2
21,64,23,71,2
99,13,32,11,2
125,22,11,7,2
31,80,42,60,2
121,181,36,2,2
4,69,34,50,2
139,138,77,49,2
30,44,0,6,2
127,78,67,17,2
26,44,0,2,2
23,71,26,2,2
11,22,35,41,2
18,34,11,19,2
75,120,27,10,2
60,179,13,52,2
98,59,23,39,2
77,5,4,4,2
17,21,4,5,2
113,35,11,44,2
60,38,12,27,2
19,82,7,11,2
178,159,12,1,2
0,38,0,42,2
70,52,34,61,2
43,29,0,1,2
7,24,20,39,2
68,67,0,1,2
21,143,0,14,2
113,121,7,5,2
114,276,0,10,2
47,78,17,4,2
33,36,0,7,2
51,63,6,72,2
6,11,8,52,2
21,43,0,20,2
6,63,22,47,2
104,41,18,7,2
15,33,0,94,2
78,35,34,74,2
67,66,0,26,2
22,6,0,22,2
38,29,52,64,2
6,21,13,56,2
10,52,23,10,2
49,25,23,24,2
