Ch1,Ch2,Ch3,Ch4,label
0,6,23,2,1
106,6,16,2,1
30,6,0,2,1
229,6,8,2,1
132,6,27,2,1
29,6,0,2,1
141,6,2,2,1
142,6,0,2,1
31,6,17,2,1
99,6,17,2,1
1,6,0,2,1
73,6,27,2,1
11,6,13,2,1
61,6,22,2,1
26,6,95,2,1
3,6,1,2,1
51,6,161,1,1
11,6,12,2,1
112,6,29,2,1
262,6,1,2,1
34,6,12,2,1
44,6,0,2,1
3,6,13,2,1
52,6,0,2,1
19,6,0,2,1
89,6,21,2,1
1,6,43,2,1
40,6,67,2,1
113,6,91,2,1
136,6,74,2,1
36,6,0,2,1
34,6,25,2,1
36,7,11,2,1
116,6,11,2,1
43,6,2,2,1
4,6,1,2,1
66,6,0,2,1
128,6,0,2,1
61,6,0,2,1
95,6,0,2,1
22,6,0,2,1
141,6,123,2,1
42,6,78,2,1
33,6,69,2,1
170,6,158,2,1
64,6,0,2,1
21,6,35,2,1
73,6,23,2,1
76,6,29,2,1
81,6,2,2,1
30,6,4,2,1
135,6,8,2,1
26,6,0,2,1
55,6,0,2,1
34,6,0,2,1
172,6,0,2,1
65,6,1,2,1
81,6,0,2,1
48,6,14,2,1
143,6,62,2,1
102,6,51,2,1
24,6,58,2,1
101,6,97,2,1
27,6,72,2,1
0,6,143,2,1
103,6,47,2,1
21,6,124,2,1
125,6,65,2,1
17,6,28,2,1
52,6,0,2,1
17,6,79,2,1
63,6,0,2,1
194,6,120,2,1
73,6,77,2,1
142,6,41,2,1
1,6,114,2,1
50,6,76,2,1
114,6,253,2,1
0,6,5,2,1
78,6,379,2,1
36,6,141,2,1
125,6,201,2,1
140,6,243,2,1
48,6,121,2,1
85,6,183,2,1
66,6,45,2,1
223,6,272,2,1
255,6,0,2,1
78,6,44,2,1
148,7,38,2,1
3,6,76,2,1
136,6,57,2,1
99,6,206,2,1
57,6,132,2,1
105,6,255,2,1
91,6,52,2,1
61,6,356,2,1
125,6,445,1,1
48,6,269,2,1
56,6,660,1,1
311,7,8,3,1
25,6,476,2,1
0,6,357,2,1
14,6,242,2,1
138,6,459,2,1
43,7,215,2,1
193,5,797,1,1
238,7,13,3,1
1,6,821,1,1
128,7,268,3,1
0,6,656,1,1
131,6,438,1,1
0,6,603,1,1
198,6,316,2,1
48,7,139,2,1
106,6,395,2,1
89,6,17,2,1
45,6,233,2,1
38,7,66,3,1
122,6,421,2,1
114,6,185,2,1
161,6,574,1,1
1,6,443,2,1
316,7,219,2,1
170,6,633,1,1
86,6,47,3,1
12,6,530,1,1
145,7,319,2,1
151,6,495,1,1
250,5,1023,1,1
66,7,203,3,1
77,14,1023,9,1
60,5,186,1,1
82,6,522,1,1
141,6,336,2,1
276,6,439,2,1
1,7,302,2,1
46,6,488,1,1
95,6,415,2,1
73,6,678,1,1
362,6,396,2,1
145,6,221,2,1
19,6,391,2,1
27,6,0,2,1
253,6,378,1,1
97,7,61,2,1
14,6,650,1,1
109,6,95,2,1
92,5,830,1,1
5,7,99,3,1
34,6,323,1,1
110,6,245,2,1
92,6,91,3,1
264,6,467,1,1
124,6,83,2,1
10,6,743,1,1
74,7,360,2,1
28,5,953,1,1
156,7,112,3,1
1,5,929,1,1
3,7,355,2,1
245,6,499,2,1
88,7,168,2,1
7,5,894,1,1
43,7,284,2,1
87,5,1023,0,1
225,8,101,3,1
260,6,736,1,1
303,6,379,2,1
151,6,472,2,1
68,6,438,2,1
76,7,488,2,1
185,6,503,2,1
22,6,793,1,1
41,6,614,2,1
151,7,251,2,1
27,7,182,2,1
114,6,344,2,1
119,6,0,2,1
35,6,47,2,1
51,6,388,2,1
8,6,301,1,1
3,6,445,1,1
58,6,758,1,1
120,6,468,2,1
43,6,639,1,1
13,7,33,3,1
225,6,350,1,1
167,6,300,2,1
164,6,817,1,1
3,7,57,3,1
151,5,877,1,1
33,6,598,2,1
89,5,981,1,1
411,7,14,3,1
208,7,116,2,1
194,6,58,2,1
535,5,26,1,1
131,6,118,2,1
213,6,147,2,1
319,6,385,1,1
34,7,24,2,1
163,6,104,2,1
211,6,4,2,1
290,6,105,2,1
246,6,603,1,1
507,7,195,3,1
156,6,397,2,1
397,6,569,1,1
336,7,438,2,1
451,7,236,3,1
55,6,536,1,1
113,7,111,3,1
26,6,14,2,1
46,6,488,1,1
241,7,0,2,1
116,6,238,2,1
45,6,394,2,1
13,6,79,2,1
76,5,712,1,1
133,7,183,3,1
40,6,874,1,1
104,7,588,3,1
305,5,965,0,1
140,6,1023,1,1
39,7,741,2,1
74,7,107,3,1
294,6,153,2,1
69,6,241,2,1
31,6,453,1,1
24,6,172,2,1
24,21,1023,17,1
71,5,999,1,1
205,5,844,1,1
27,7,284,2,1
0,21,1023,17,1
18,6,785,2,1
265,8,928,3,1
149,5,917,0,1
0,5,705,1,1
87,14,1023,11,1
394,5,58,1,1
141,4,403,0,1
111,5,601,1,1
59,7,61,2,1
122,6,160,2,1
11,5,976,0,1
91,7,658,2,1
155,13,926,8,1
75,15,1023,11,1
260,7,84,4,1
86,5,936,0,1
98,6,421,2,1
116,8,1023,5,1
111,5,210,0,1
7,22,1023,18,1
137,7,636,2,1
48,13,1023,8,1
169,5,441,1,1
144,17,1023,13,1
133,8,1023,4,1
26,10,500,127,1
67,5,879,15,1
196,6,985,4,1
210,8,1023,6,1
191,6,253,21,1
107,14,1023,26,1
144,6,448,1,1
121,12,1023,8,1
106,7,129,3,1
276,17,1023,14,1
384,5,376,0,1
298,8,939,30,1
333,5,218,54,1
51,18,1023,26,1
100,5,115,0,1
6,19,1023,265,1
205,7,54,277,1
6,5,1023,200,1
47,9,1023,402,1
125,5,1023,877,1
309,8,109,322,1
150,6,484,335,1
56,6,336,472,1
164,7,441,405,1
214,6,282,350,1
34,22,1023,343,1
336,6,492,96,1
235,14,1023,661,1
70,1,1023,17,1
292,5,36,363,1
267,5,993,362,1
5,7,351,258,1
259,6,438,57,1
255,6,755,403,1
25,6,553,157,1
201,6,336,524,1
42,6,429,256,1
41,6,483,215,1
160,6,597,499,1
27,7,188,214,1
186,6,630,20,1
290,22,1023,124,1
172,6,953,206,1
327,5,565,260,1
294,5,967,215,1
191,6,739,259,1
45,13,279,935,1
318,16,1023,858,1
157,11,1023,506,1
306,10,505,446,1
251,10,1023,895,1
58,7,1023,269,1
341,8,311,617,1
39,5,649,84,1
15,5,685,155,1
20,7,232,150,1
139,6,308,10,1
55,6,658,52,1
65,6,365,296,1
79,7,55,88,1
116,6,455,263,1
76,6,280,634,1
24,6,143,212,1
227,6,347,261,1
266,7,609,561,1
268,5,400,95,1
225,6,374,407,1
486,6,108,222,1
446,6,23,103,1
610,5,802,647,1
754,4,1023,136,1
436,5,207,627,1
934,9,1023,1023,1
931,5,133,130,1
623,4,753,68,1
732,6,223,20,1
683,5,391,571,1
189,5,98,131,1
48,5,136,185,1
14,6,95,72,1
6,6,171,149,1
2,5,666,371,1
3,6,188,369,1
2,6,119,155,1
2,6,202,328,1
2,6,226,286,1
1,5,507,182,1
2,7,177,246,1
2,7,257,187,1
2,6,136,100,1
2,6,4,101,1
0,5,137,237,1
0,5,218,268,1
1,6,253,241,1
1,6,52,388,1
1,6,96,33,1
1,6,0,16,1
0,5,634,400,1
0,6,606,476,1
2,7,196,216,1
1,6,224,304,1
1,7,83,71,1
1,6,34,13,1
1,6,113,159,1
1,6,317,299,1
1,6,475,119,1
1,7,0,2,1
1,6,49,226,1
1,6,123,23,1
0,6,300,331,1
1,6,189,213,1
0,6,285,625,1
1,7,81,334,1
1,6,172,158,1
0,6,256,248,1
1,6,262,34,1
1,6,89,121,1
0,6,283,338,1
1,6,19,111,1
1,6,101,107,1
0,6,374,237,1
1,7,59,56,1
1,7,0,31,1
1,6,131,164,1
1,6,115,109,1
1,6,171,86,1
1,6,182,30,1
1,6,230,72,1
1,6,65,24,1
1,6,168,105,1
0,6,350,229,1
1,6,455,97,1
1,6,165,27,1
1,6,267,1,1
1,6,0,206,1
1,6,52,49,1
0,6,253,164,1
1,6,97,212,1
1,7,0,109,1
0,6,189,407,1
1,6,67,98,1
1,6,282,110,1
1,6,338,39,1
0,6,317,264,1
1,7,123,347,1
0,6,141,519,1
0,6,210,399,1
1,7,34,254,1
1,6,272,117,1
1,6,160,188,1
0,6,281,358,1
1,6,176,167,1
0,6,257,423,1
1,6,104,197,1
1,6,40,123,1
1,6,212,95,1
0,6,261,397,1
1,6,435,437,1
1,7,505,343,1
1,7,348,186,1
0,6,627,332,1
1,7,157,29,1
0,6,332,282,1
1,6,260,3,1
1,6,179,9,1
1,6,33,374,1
1,6,397,6,1
0,6,325,395,1
1,6,13,39,1
0,6,386,275,1
1,6,70,51,1
0,6,258,187,1
0,6,261,97,1
0,6,637,277,1
1,6,248,271,1
1,6,356,171,1
1,6,44,96,1
1,6,70,77,1
1,6,340,266,1
1,6,381,15,1
1,6,158,150,1
1,6,3,1,1
1,6,152,69,1
0,5,617,468,1
1,7,289,169,1
0,6,507,549,1
1,7,241,6,1
2,7,132,96,1
0,6,89,178,1
1,6,328,198,1
1,6,4,12,1
1,6,3,245,1
0,6,360,48,1
0,5,210,710,1
0,6,361,176,1
1,6,61,159,1
0,6,403,524,1
1,6,5,201,1
1,6,283,120,1
0,6,227,544,1
1,6,92,4,1
1,7,152,41,1
1,6,90,32,1
1,6,147,287,1
1,7,82,6,1
1,6,0,165,1
1,6,103,6,1
0,6,103,454,1
0,6,272,151,1
1,6,77,84,1
0,6,552,326,1
1,6,0,256,1
0,6,477,214,1
1,6,357,261,1
1,6,155,149,1
0,6,151,285,1
1,6,21,30,1
0,6,106,119,1
1,6,0,108,1
1,6,107,7,1
0,6,272,210,1
1,6,71,146,1
0,6,193,244,1
1,6,37,249,1
0,5,34,726,1
1,7,74,15,1
1,6,72,84,1
1,6,131,31,1
1,6,67,7,1
0,6,83,44,1
0,6,116,427,1
1,6,0,8,1
1,6,59,60,1
0,6,66,210,1
0,6,268,396,1
1,6,160,81,1
1,6,116,62,1
1,6,40,33,1
1,6,0,75,1
0,6,224,80,1
1,6,183,7,1
0,6,0,215,1
0,6,48,587,1
1,6,85,14,1
0,6,54,227,1
1,6,115,4,1
0,6,35,93,1
1,6,271,84,1
1,6,0,104,1
1,6,116,21,1
0,6,245,128,1
1,6,219,148,1
1,6,213,93,1
0,6,96,79,1
0,6,35,174,1
1,6,19,157,1
0,6,143,594,1
0,6,137,310,1
1,6,391,68,1
0,6,117,123,1
0,6,312,93,1
0,6,181,306,1
1,6,45,24,1
0,6,214,148,1
0,6,95,144,1
1,6,124,183,1
1,6,65,7,1
1,6,413,49,1
1,6,118,28,1
0,6,150,505,1
1,6,246,225,1
1,6,199,283,1
0,6,163,51,1
0,6,181,84,1
0,6,0,349,1
1,6,207,79,1
1,6,119,42,1
1,6,235,47,1
0,6,0,15,1
0,6,8,210,1
1,6,195,42,1
1,6,27,217,1
1,6,68,113,1
1,6,81,49,1
1,6,74,252,1
0,6,66,2,1
1,6,1,34,1
1,6,287,80,1
0,6,457,109,1
0,6,5,393,1
1,6,39,22,1
1,6,177,110,1
1,6,13,35,1
1,6,254,69,1
1,6,82,177,1
1,7,48,69,1
0,6,170,40,1
1,6,171,29,1
1,6,53,269,1
1,6,236,117,1
1,6,196,138,1
1,6,70,98,1
1,6,172,424,1
0,6,341,243,1
1,6,154,201,1
1,6,4,117,1
0,6,198,51,1
1,6,51,332,1
1,6,0,102,1
0,6,190,114,1
0,6,74,37,1
1,6,30,16,1
1,6,45,1,1
0,6,160,85,1
0,6,22,6,1
1,6,117,116,1
0,6,101,225,1
1,6,162,28,1
1,6,3,179,1
1,6,36,53,1
1,6,7,66,1
1,6,416,32,1
1,6,141,1,1
1,6,181,185,1
1,6,162,32,1
1,6,115,206,1
0,6,78,117,1
1,6,103,180,1
1,6,178,32,1
0,6,35,201,1
1,6,76,43,1
1,6,77,38,1
1,6,115,135,1
0,6,71,349,1
1,7,129,66,1
1,6,79,174,1
1,6,168,12,1
0,6,135,86,1
1,6,236,102,1
0,6,439,422,1
1,6,24,15,1
0,6,170,368,1
1,6,1,135,1
1,6,71,12,1
1,6,76,12,1
1,6,2,113,1
0,6,73,100,1
1,6,64,158,1
1,6,148,95,1
0,6,78,459,1
0,6,155,135,1
1,6,473,236,1
1,6,41,339,1
0,6,338,377,1
0,6,284,602,1
1,6,545,66,1
1,6,69,350,1
1,6,232,97,1
1,6,377,134,1
1,6,185,76,1
0,6,456,23,1
1,6,117,57,1
1,6,570,11,1
0,6,282,376,1
0,6,656,47,1
0,6,533,437,1
1,6,343,251,1
0,6,703,377,1
1,7,147,193,1
0,6,630,253,1
1,7,157,158,1
1,6,118,101,1
0,6,40,374,1
1,6,67,110,1
1,6,44,268,1
0,5,978,764,1
0,6,488,793,1
0,6,882,453,1
1,7,303,397,1
0,6,559,189,1
0,6,666,348,1
1,6,259,320,1
0,6,339,457,1
1,6,6,211,1
1,6,306,23,1
0,6,793,85,1
0,6,685,180,1
0,5,586,7,1
1,6,194,13,1
0,6,492,4,1
1,6,199,84,1
0,6,444,239,1
1,6,187,376,1
0,6,852,170,1
1,7,232,162,1
1,6,265,387,1
0,6,541,56,1
1,6,332,65,1
0,6,881,94,1
1,6,674,81,1
0,5,817,343,1
2,7,95,5,1
1,6,431,306,1
1,6,398,259,1
0,6,63,325,1
0,6,312,215,1
1,6,586,51,1
1,7,352,283,1
0,5,991,151,1
3,9,121,8,1
1,6,539,35,1
1,7,227,164,1
0,6,370,187,1
1,6,282,176,1
1,6,421,44,1
1,7,185,122,1
1,7,189,40,1
0,4,31,237,1
0,6,440,51,1
3,8,0,30,1
0,4,847,71,1
1,6,378,16,1
3,9,778,210,1
1,7,717,45,1
0,2,1023,291,1
0,5,603,43,1
7,13,1023,391,1
0,5,188,382,1
0,5,400,332,1
0,5,439,760,1
1,6,63,180,1
2,7,457,128,1
1,7,554,19,1
1,6,562,182,1
0,6,707,342,1
0,6,607,558,1
1,6,846,104,1
1,7,493,146,1
0,6,700,153,1
0,5,534,464,1
1,6,305,137,1
0,6,572,54,1
1,6,31,219,1
0,5,758,551,1
0,4,680,264,1
1,6,746,659,1
0,5,1023,6,1
1,7,4,275,1
0,5,920,39,1
2,7,242,189,1
0,6,528,250,1
1,7,262,513,1
0,5,846,5,1
0,6,285,518,1
1,6,553,122,1
10,15,1023,452,1
6,12,1023,320,1
1,6,555,458,1
0,1,1023,318,1
0,4,5,309,1
0,5,417,108,1
1,6,66,270,1
1,6,18,87,1
0,5,467,463,1
0,5,860,628,1
0,6,844,504,1
14,20,1023,636,1
0,5,831,212,1
0,5,279,525,1
0,5,953,145,1
5,10,160,873,1
7,13,1023,429,1
2,7,1023,712,1
0,5,201,359,1
0,6,363,308,1
0,6,496,409,1
0,6,40,571,1
1,7,1023,1023,1
0,6,510,528,1
7,12,856,783,1
0,5,1023,501,1
1,7,101,91,1
0,6,826,475,1
2,7,51,34,1
1,7,181,46,1
0,5,1000,49,1
1,7,451,148,1
0,6,831,212,1
0,6,391,287,1
0,6,524,266,1
0,4,1023,239,1
4,9,740,403,1
0,6,923,433,1
2,8,250,214,1
0,6,1023,233,1
0,5,646,558,1
9,15,1023,1023,1
0,5,323,91,1
11,17,1023,815,1
1,7,913,93,1
1,7,1023,853,1
0,6,170,616,1
12,18,1023,538,1
0,5,413,895,1
0,5,948,322,1
0,6,587,414,1
1,7,172,43,1
0,6,376,473,1
0,6,461,554,1
1,6,290,820,1
1,7,209,72,1
12,18,1023,595,1
0,5,756,318,1
0,5,787,682,1
1,7,240,164,1
1,6,529,42,1
1,7,107,256,1
2,9,1023,728,1
0,4,1023,571,1
1,7,773,762,1
0,5,636,169,1
0,5,719,693,1
0,6,931,847,1
0,5,211,426,1
0,5,695,19,1
0,6,475,411,1
0,6,24,479,1
0,5,413,751,1
1,7,180,154,1
1,6,225,234,1
0,7,51,396,1
1,7,88,3,1
0,6,56,469,1
0,6,790,266,1
0,6,809,72,1
0,5,909,247,1
0,5,888,134,1
1,7,249,25,1
0,6,355,185,1
1,6,134,181,1
0,6,186,374,1
1,6,405,62,1
1,6,311,135,1
0,6,159,610,1
1,7,428,116,1
0,6,409,10,1
1,6,102,326,1
1,6,136,315,1
1,7,82,63,1
1,6,11,8,1
0,6,175,243,1
0,6,549,40,1
0,6,65,537,1
0,6,222,358,1
1,6,173,134,1
1,6,278,235,1
0,6,374,560,1
0,6,346,551,1
1,7,149,70,1
1,6,74,134,1
1,6,181,18,1
1,6,43,34,1
0,6,118,415,1
1,6,49,28,1
1,6,74,245,1
0,6,447,149,1
0,6,267,521,1
0,6,191,137,1
1,6,27,113,1
0,6,220,247,1
1,6,70,139,1
1,6,92,50,1
1,6,4,200,1
1,6,93,104,1
1,6,112,161,1
1,6,0,3,1
1,6,39,49,1
1,6,140,43,1
0,6,50,91,1
1,6,35,164,1
1,6,155,84,1
1,6,143,99,1
1,6,227,73,1
0,6,62,144,1
0,6,19,303,1
1,6,14,58,1
1,6,2,144,1
0,6,181,282,1
0,6,12,206,1
0,6,183,428,1
1,6,7,322,1
1,7,109,9,1
0,6,1,191,1
1,6,4,55,1
0,6,87,123,1
1,6,11,50,1
1,6,147,31,1
1,6,3,123,1
1,6,68,46,1
1,6,206,135,1
0,6,354,309,1
1,6,135,31,1
1,6,290,121,1
0,6,220,319,1
1,6,47,10,1
0,6,297,443,1
1,6,72,15,1
1,6,12,7,1
0,6,0,132,1
1,6,144,61,1
1,6,169,151,1
0,7,39,168,1
1,6,95,18,1
0,6,187,436,1
1,6,152,391,1
1,7,69,11,1
1,6,67,161,1
1,6,154,178,1
1,6,21,10,1
1,6,247,127,1
0,6,435,206,1
1,6,28,54,1
1,6,37,144,1
0,6,427,376,1
0,5,683,403,1
1,6,443,128,1
0,5,667,309,1
1,7,54,54,1
0,6,244,326,1
1,6,0,19,1
0,6,168,174,1
1,6,111,221,1
1,6,135,42,1
0,6,202,72,1
1,6,203,35,1
1,6,39,9,1
1,6,278,70,1
0,6,109,194,1
0,6,281,143,1
1,6,222,209,1
0,6,222,270,1
1,6,57,54,1
0,6,163,352,1
1,6,241,216,1
0,6,148,375,1
0,6,261,327,1
1,6,48,165,1
1,6,106,69,1
0,6,95,499,1
1,6,166,46,1
1,6,65,44,1
1,6,57,21,1
0,6,66,66,1
0,6,111,31,1
0,6,190,232,1
0,6,77,205,1
1,6,247,126,1
0,6,146,439,1
1,6,630,30,1
0,6,65,625,1
1,6,402,10,1
1,7,37,117,1
1,6,88,79,1
0,5,588,427,1
1,6,332,194,1
1,6,319,423,1
1,7,69,10,1
0,6,548,44,1
1,6,124,334,1
1,6,114,224,1
0,6,82,631,1
1,6,42,251,1
0,6,319,179,1
0,6,37,274,1
0,6,395,396,1
1,7,0,33,1
0,6,75,167,1
0,6,246,270,1
0,6,418,301,1
1,7,12,38,1
0,6,25,135,1
1,6,79,132,1
1,6,8,11,1
0,6,105,131,1
1,6,0,13,1
1,6,260,109,1
0,6,0,233,1
0,6,74,378,1
0,6,165,328,1
1,7,117,168,1
0,6,338,190,1
0,6,90,272,1
1,6,245,99,1
1,6,39,242,1
0,6,584,184,1
1,6,69,157,1
0,6,605,434,1
1,7,75,182,1
1,6,219,40,1
0,6,220,187,1
0,5,4,758,1
1,6,183,235,1
1,6,15,58,1
0,6,166,182,1
1,6,85,2,1
0,6,97,129,1
0,6,100,266,1
1,6,212,5,1
0,7,0,210,1
0,6,80,108,1
0,6,28,544,1
1,6,224,291,1
1,7,79,139,1
0,6,299,250,1
0,6,2,423,1
0,6,399,209,1
1,7,149,205,1
1,6,176,11,1
1,7,163,7,1
0,6,0,525,1
1,6,233,7,1
1,6,69,111,1
0,6,81,114,1
0,6,1,114,1
1,6,121,28,1
0,6,15,54,1
1,6,48,38,1
1,6,15,314,1
1,6,277,107,1
0,6,73,201,1
0,6,103,410,1
1,7,35,246,1
1,6,28,100,1
1,6,104,26,1
1,6,106,133,1
1,6,0,12,1
1,6,96,40,1
1,6,54,37,1
1,6,30,109,1
1,6,131,195,1
0,6,188,85,1
1,6,140,33,1
0,6,13,383,1
1,6,199,63,1
0,6,52,112,1
1,6,184,71,1
1,7,56,178,1
0,6,7,356,1
0,6,462,488,1
1,7,166,18,1
1,6,58,9,1
0,6,74,1,1
0,6,0,157,1
1,6,13,36,1
1,6,25,123,1
1,6,71,113,1
1,6,17,123,1
1,6,130,161,1
0,6,77,160,1
1,6,77,118,1
0,6,6,183,1
1,6,2,98,1
0,7,5,44,1
1,6,7,48,1
1,6,11,47,1
1,6,0,6,1
0,6,17,95,1
1,7,22,96,1
1,6,154,11,1
0,6,51,457,1
1,6,220,192,1
0,7,137,264,1
1,6,10,52,1
0,6,317,211,1
0,6,78,485,1
0,6,375,396,1
0,6,192,337,1
0,6,147,123,1
1,6,159,90,1
1,6,19,269,1
1,6,93,1,1
1,6,4,84,1
1,6,0,35,1
0,6,146,318,1
0,6,0,282,1
1,6,95,138,1
1,6,90,32,1
0,6,362,282,1
1,6,453,188,1
1,6,370,272,1
1,6,86,49,1
0,6,103,223,1
0,6,219,133,1
0,6,14,385,1
0,6,282,276,1
1,6,0,132,1
1,6,121,108,1
0,6,199,362,1
1,7,79,7,1
1,6,109,144,1
0,6,34,45,1
1,6,232,158,1
1,7,122,116,1
1,6,211,147,1
1,7,3,80,1
1,7,5,124,1
1,6,172,55,1
1,7,95,38,1
1,6,228,41,1
1,7,18,84,1
1,6,211,170,1
1,6,208,191,1
1,6,75,65,1
1,6,219,217,1
1,6,80,23,1
0,6,279,219,1
1,6,52,218,1
0,6,2,266,1
1,6,26,37,1
0,6,172,222,1
0,6,110,494,1
0,6,420,17,1
0,6,117,273,1
0,6,16,94,1
0,6,54,201,1
1,6,128,19,1
1,7,33,79,1
0,5,840,157,1
1,7,9,182,1
0,5,797,256,1
1,7,218,377,1
1,6,489,159,1
0,6,641,503,1
1,6,331,379,1
1,6,533,85,1
1,6,204,654,1
0,6,924,228,1
1,7,114,568,1
1,6,509,236,1
1,7,319,552,1
0,6,384,606,1
0,6,432,571,1
0,6,403,748,1
0,6,766,136,1
1,7,525,116,1
0,6,745,19,1
0,6,392,150,1
0,6,700,307,1
0,6,596,623,1
1,7,495,4,1
0,5,847,376,1
1,7,331,469,1
0,6,667,470,1
0,6,123,670,1
0,6,464,324,1
0,6,14,674,1
0,6,1023,256,1
0,5,396,826,1
2,7,912,420,1
1,7,607,465,1
1,7,492,177,1
0,6,647,48,1
1,6,374,61,1
1,6,706,5,1
1,7,272,289,1
1,6,388,184,1
1,6,53,116,1
1,6,0,192,1
0,6,227,144,1
0,5,773,808,1
2,7,202,157,1
0,5,1023,720,1
2,7,313,331,1
0,5,810,503,1
1,7,398,317,1
0,5,932,468,1
1,6,1023,163,1
1,7,94,520,1
0,6,368,1023,1
1,7,196,405,1
1,7,212,173,1
1,6,0,404,1
1,6,361,250,1
0,6,381,212,1
1,6,549,149,1
1,6,642,229,1
1,6,533,8,1
1,7,439,171,1
4,10,947,464,1
0,5,706,199,1
0,5,752,465,1
1,7,388,370,1
1,6,19,117,1
0,6,601,233,1
1,6,660,5,1
0,6,234,714,1
0,6,726,12,1
1,7,153,10,1
0,6,680,661,1
1,7,56,470,1
1,6,362,313,1
1,6,6,292,1
1,6,438,9,1
0,6,424,54,1
1,7,152,147,1
1,6,161,156,1
0,5,624,364,1
0,5,656,13,1
0,5,1023,1002,1
2,8,664,43,1
7,12,850,7,1
3,9,1023,631,1
0,5,286,304,1
0,5,454,96,1
0,6,521,185,1
0,6,100,347,1
0,5,614,586,1
0,6,605,640,1
1,7,483,240,1
0,6,876,773,1
0,5,81,237,1
1,7,1013,794,1
0,5,52,153,1
0,5,854,167,1
12,18,1023,864,1
0,5,1023,145,1
0,5,446,1023,1
0,5,708,9,1
0,4,1023,289,1
0,6,418,238,1
0,3,1023,359,1
0,5,382,243,1
8,14,1023,726,1
0,6,334,144,1
0,5,1023,556,1
1,7,224,414,1
0,5,743,586,1
0,3,1023,29,1
4,8,604,539,1
7,13,1023,116,1
2,8,443,277,1
0,1,1023,258,1
1,6,587,554,1
0,4,1023,697,1
0,6,387,48,1
10,16,1023,536,1
0,6,272,235,1
6,12,1023,339,1
0,6,22,264,1
0,5,1023,835,1
2,7,51,158,1
0,6,740,465,1
2,7,34,203,1
0,6,1023,147,1
9,14,1010,656,1
0,2,1023,366,1
0,5,699,12,1
9,15,1023,438,1
1,7,214,106,1
8,14,1023,461,1
0,5,418,375,1
0,2,1023,84,1
5,10,900,883,1
6,11,1023,510,1
2,8,49,320,1
0,5,591,1,1
0,5,849,624,1
2,7,193,44,1
0,5,594,999,1
2,7,614,114,1
9,15,1023,645,1
0,5,901,252,1
12,17,1023,1023,1
0,5,498,345,1
7,12,1023,387,1
0,3,1023,99,1
11,16,1023,437,1
0,5,218,421,1
0,5,883,557,1
1,7,389,214,1
0,5,963,550,1
1,7,114,445,1
1,6,533,57,1
0,6,602,397,1
1,7,302,64,1
1,6,143,600,1
1,7,320,16,1
0,6,315,128,1
0,7,563,273,1
2,7,72,41,1
1,6,510,140,1
0,5,949,528,1
1,7,329,180,1
0,6,713,637,1
0,5,775,734,1
1,7,798,156,1
1,7,14,93,1
1,6,117,27,1
0,6,133,492,1
1,7,205,22,1
0,6,379,340,1
1,6,474,97,1
0,5,899,554,1
0,7,31,475,1
0,6,520,270,1
1,6,690,39,1
1,7,389,19,1
0,6,480,248,1
1,7,97,18,1
1,6,175,153,1
1,6,391,29,1
0,6,478,182,1
1,6,111,139,1
0,6,336,365,1
1,6,591,321,1
1,7,0,21,1
1,6,170,141,1
1,6,0,97,1
1,6,94,165,1
0,6,36,379,1
0,6,162,225,1
1,6,110,64,1
1,6,169,137,1
0,6,366,155,1
0,6,323,252,1
0,6,313,540,1
1,7,213,219,1
0,6,351,290,1
1,7,74,240,1
1,6,15,127,1
0,6,307,290,1
0,6,459,300,1
1,6,97,90,1
1,6,222,193,1
1,6,138,143,1
0,6,228,55,1
1,7,32,44,1
0,6,0,22,1
0,6,340,79,1
0,6,448,75,1
0,6,127,195,1
1,6,93,91,1
1,6,192,57,1
1,6,305,274,1
1,6,253,204,1
1,6,81,360,1
1,6,219,216,1
1,6,232,168,1
0,6,399,471,1
1,7,134,6,1
0,6,62,273,1
1,6,120,41,1
0,6,153,150,1
0,6,245,204,1
1,6,171,7,1
1,6,190,187,1
1,7,25,121,1
1,6,183,0,1
1,6,103,78,1
1,6,153,39,1
1,6,173,145,1
1,6,140,236,1
1,6,73,157,1
1,6,222,250,1
0,6,483,295,1
1,7,77,61,1
0,6,206,488,1
1,7,53,29,1
1,6,76,326,1
1,6,188,256,1
1,6,158,25,1
1,6,0,13,1
0,6,195,311,1
1,6,208,130,1
0,6,23,210,1
0,6,278,169,1
1,6,292,144,1
1,6,253,132,1
0,6,411,184,1
1,6,247,3,1
1,6,310,192,1
1,6,113,153,1
0,6,308,171,1
1,6,129,207,1
0,6,57,165,1
0,6,449,303,1
0,6,102,508,1
1,6,87,76,1
1,7,62,71,1
0,6,190,574,1
1,6,40,57,1
1,7,47,154,1
1,6,134,83,1
1,6,139,45,1
1,6,57,141,1
0,6,115,288,1
1,6,27,170,1
1,6,118,6,1
1,6,245,83,1
0,6,155,328,1
0,6,142,291,1
1,6,0,10,1
1,6,75,353,1
1,6,190,158,1
0,6,80,442,1
0,6,432,289,1
1,6,419,127,1
1,6,118,216,1
0,6,83,342,1
1,6,41,30,1
1,6,44,127,1
1,6,18,53,1
1,6,126,123,1
1,6,478,17,1
1,7,70,116,1
0,6,373,399,1
1,7,330,289,1
1,6,106,262,1
0,6,352,386,1
0,6,169,341,1
0,6,294,94,1
1,6,200,344,1
1,6,0,149,1
1,6,182,86,1
0,6,210,151,1
0,6,316,235,1
1,7,80,154,1
1,6,99,43,1
1,6,0,171,1
0,6,308,238,1
0,6,328,493,1
0,6,114,504,1
1,6,250,239,1
0,6,344,121,1
1,6,58,4,1
1,6,141,74,1
0,6,43,262,1
0,6,27,244,1
1,6,56,90,1
0,6,110,405,1
1,6,0,134,1
0,6,154,199,1
0,6,456,193,1
1,6,240,21,1
1,7,116,120,1
1,6,97,14,1
1,6,316,57,1
1,6,40,92,1
1,6,69,432,1
1,6,84,214,1
0,6,62,19,1
1,6,254,30,1
1,6,334,57,1
1,6,2,114,1
0,5,576,274,1
1,7,121,224,1
1,7,144,2,1
1,6,41,75,1
1,6,91,27,1
0,6,208,153,1
0,6,92,371,1
1,6,196,45,1
1,6,211,41,1
0,6,75,238,1
0,6,94,178,1
0,6,53,125,1
1,6,19,162,1
0,6,351,253,1
1,6,67,16,1
1,6,332,1,1
1,6,149,65,1
0,6,350,86,1
0,6,96,275,1
0,6,186,397,1
1,6,129,50,1
1,6,70,71,1
1,6,115,75,1
1,6,115,97,1
1,6,112,59,1
1,6,181,43,1
0,6,15,3,1
1,6,10,61,1
1,6,0,27,1
0,6,162,493,1
0,6,220,324,1
1,6,85,287,1
1,6,0,135,1
0,6,183,127,1
1,6,119,96,1
1,6,137,16,1
0,6,267,0,1
1,6,40,232,1
0,6,293,11,1
0,6,132,74,1
0,6,70,453,1
1,7,358,11,1
1,7,13,326,1
1,6,124,320,1
1,7,115,216,1
1,6,183,77,1
1,6,165,20,1
1,6,96,89,1
1,6,15,2,1
1,6,0,4,1
1,6,52,222,1
1,6,179,46,1
0,6,0,500,1
1,6,139,53,1
1,6,198,250,1
1,6,224,120,1
1,6,184,9,1
0,6,376,343,1
1,7,201,230,1
1,6,174,206,1
1,6,77,35,1
1,6,0,19,1
1,6,115,153,1
0,6,66,144,1
0,6,56,257,1
0,5,16,245,1
0,5,48,58,1
0,6,30,28,1
3,8,99,221,1
0,5,66,27,1
0,6,50,514,1
4,9,106,300,1
2,7,103,61,1
1,7,39,21,1
1,6,3,0,1
1,6,16,1,1
1,6,0,84,1
1,6,0,26,1
1,6,16,25,1
1,6,19,133,1
1,6,12,105,1
0,6,334,145,1
1,6,134,152,1
1,6,343,1,1
1,6,109,346,1
1,6,20,198,1
1,6,91,1,1
1,6,113,82,1
0,6,11,172,1
1,6,46,156,1
1,6,12,184,1
1,6,6,29,1
1,6,67,303,1
0,6,25,89,1
1,7,30,190,1
1,6,171,100,1
1,6,0,242,1
0,6,140,372,1
0,5,516,442,1
1,7,85,172,1
1,6,127,10,1
0,6,292,317,1
1,6,210,169,1
0,6,117,356,1
0,6,0,374,1
1,7,300,111,1
1,6,161,377,1
0,6,408,379,1
1,7,54,207,1
1,6,370,290,1
0,6,43,557,1
0,7,122,352,1
1,6,39,151,1
0,6,141,5,1
0,6,69,279,1
1,6,54,157,1
0,6,422,318,1
1,6,2,478,1
1,6,455,209,1
1,6,47,408,1
0,6,271,141,1
1,7,174,203,1
0,6,451,276,1
1,6,378,83,1
0,6,494,427,1
1,6,470,234,1
0,6,303,452,1
0,6,233,724,1
1,7,16,510,1
1,7,420,13,1
0,6,104,631,1
0,6,762,61,1
0,6,63,931,1
1,7,239,163,1
1,7,48,52,1
1,6,29,82,1
0,6,96,416,1
0,6,280,180,1
0,6,134,173,1
0,6,525,40,1
0,7,97,495,1
0,6,707,70,1
0,5,26,1023,1
0,5,738,439,1
0,5,38,681,1
0,6,958,208,1
0,6,368,265,1
4,10,1023,141,1
0,5,595,400,1
0,6,782,116,1
0,6,897,751,1
0,5,1023,238,1
0,6,692,694,1
1,6,867,130,1
1,7,382,340,1
0,5,674,685,1
1,7,212,525,1
0,6,708,364,1
1,7,429,63,1
0,6,390,640,1
0,6,10,1023,1
1,6,782,14,1
0,6,487,652,1
1,6,505,423,1
0,6,33,706,1
10,15,1023,111,1
0,4,480,377,1
4,10,1023,109,1
0,4,6,796,1
12,17,1023,5,1
0,5,668,215,1
4,9,978,53,1
0,5,274,210,1
1,6,471,99,1
1,6,549,5,1
1,6,19,177,1
0,5,673,509,1
1,7,19,649,1
1,6,808,120,1
1,7,211,378,1
0,5,763,480,1
1,7,121,347,1
1,7,205,105,1
0,6,190,314,1
1,6,178,212,1
1,7,454,19,1
1,7,76,93,1
0,5,782,183,1
2,7,21,190,1
0,5,1023,405,1
2,7,253,388,1
14,19,1023,151,1
0,5,318,232,1
0,6,1023,41,1
0,5,0,274,1
0,5,1023,245,1
0,5,224,349,1
0,5,1023,129,1
3,8,818,402,1
0,5,1023,279,1
0,6,493,250,1
8,14,1023,214,1
1,6,400,465,1
7,13,1023,382,1
0,5,164,115,1
0,6,680,218,1
0,5,412,422,1
0,4,682,175,1
0,6,44,510,1
1,6,21,169,1
1,6,127,147,1
0,5,0,895,1
0,5,363,1023,1
5,11,1023,226,1
0,5,131,209,1
10,16,1023,716,1
0,5,61,292,1
0,5,917,16,1
5,10,759,682,1
10,16,1023,533,1
1,7,64,737,1
0,5,41,619,1
2,8,873,467,1
0,5,971,211,1
1,7,91,433,1
14,19,1023,84,1
0,4,941,339,1
0,6,598,337,1
1,7,541,89,1
0,6,239,500,1
0,6,273,604,1
0,6,1023,113,1
0,5,273,479,1
10,16,1023,639,1
2,8,11,278,1
0,5,852,103,1
0,6,680,395,1
1,7,464,191,1
0,6,689,29,1
0,6,973,122,1
0,5,560,512,1
7,13,1023,584,1
0,5,105,49,1
0,4,1023,751,1
0,5,123,238,1
6,11,1023,480,1
3,8,209,193,1
0,5,1023,456,1
12,17,1023,1023,1
3,8,1023,877,1
4,10,220,246,1
0,4,1023,463,1
0,5,135,33,1
0,6,69,191,1
0,6,689,48,1
1,7,453,348,1
9,14,1023,661,1
0,1,1023,289,1
5,10,1023,817,1
2,9,1023,735,1
0,3,1023,141,1
3,8,1023,543,1
0,2,1023,773,1
0,5,248,240,1
10,16,958,1023,1
0,5,757,70,1
8,14,1023,896,1
0,4,1023,454,1
0,5,25,506,1
0,5,2,4,1
9,14,930,491,1
0,5,597,10,1
0,5,900,763,1
2,9,1023,99,1
0,5,38,568,1
2,8,1023,1023,1
3,9,184,250,1
0,5,647,1,1
0,5,959,493,1
2,7,25,68,1
0,5,562,833,1
1,7,398,166,1
3,8,119,116,1
0,6,312,287,1
0,6,447,201,1
1,6,161,13,1
1,7,6,588,1
8,15,1023,51,1
0,5,427,600,1
0,6,339,400,1
1,6,167,280,1
0,7,334,39,1
0,6,403,409,1
0,6,465,377,1
1,7,81,171,1
1,6,206,106,1
0,6,587,235,1
1,7,178,100,1
1,6,200,451,1
1,7,618,172,1
1,6,405,14,1
1,7,354,159,1
1,6,210,94,1
0,6,163,561,1
1,7,85,125,1
1,6,138,6,1
0,6,0,293,1
0,6,430,201,1
1,6,0,340,1
0,6,601,542,1
0,6,710,480,1
1,7,204,390,1
1,7,158,338,1
0,6,935,265,1
0,7,440,230,1
1,7,15,143,1
1,6,0,11,1
0,7,28,172,1
1,6,16,45,1
1,7,123,125,1
0,6,156,51,1
1,6,92,25,1
1,7,47,47,1
1,6,120,103,1
0,6,154,239,1
0,6,467,406,1
1,7,164,213,1
1,6,157,163,1
0,6,0,293,1
0,7,100,157,1
0,6,80,521,1
1,6,206,115,1
1,6,103,33,1
1,6,0,56,1
0,6,178,138,1
0,6,65,51,1
1,6,206,45,1
0,6,114,146,1
0,6,223,131,1
1,6,435,185,1
0,6,742,335,1
1,6,32,89,1
1,7,11,101,1
1,6,66,86,1
1,6,111,126,1
0,5,403,375,1
1,7,105,154,1
1,6,236,12,1
1,6,466,35,1
0,6,217,146,1
1,6,124,105,1
0,6,214,115,1
1,6,178,11,1
1,6,75,60,1
0,6,194,279,1
0,6,394,514,1
1,6,0,53,1
0,5,796,497,1
1,7,453,100,1
0,6,405,618,1
1,6,611,288,1
1,6,122,80,1
0,6,17,315,1
1,6,23,62,1
0,6,35,284,1
1,6,56,52,1
0,5,384,405,1
0,6,310,416,1
0,6,303,292,1
0,6,562,275,1
0,6,231,468,1
0,6,128,29,1
1,7,292,155,1
1,7,0,146,1
0,6,362,512,1
1,6,273,48,1
1,6,46,207,1
0,6,3,605,1
1,6,112,78,1
1,6,147,100,1
1,6,209,106,1
1,6,170,54,1
0,6,71,115,1
1,6,34,119,1
1,6,270,81,1
1,6,158,150,1
0,5,403,224,1
1,6,319,304,1
0,6,399,96,1
0,6,295,108,1
0,6,30,37,1
1,7,0,202,1
0,6,43,66,1
0,6,382,106,1
1,7,13,288,1
1,6,202,90,1
0,6,86,661,1
1,7,98,58,1
0,6,240,309,1
1,6,0,87,1
1,6,88,229,1
0,6,72,187,1
1,6,253,21,1
1,6,282,180,1
0,6,330,134,1
1,6,81,104,1
1,6,146,195,1
0,6,192,236,1
1,6,144,132,1
1,6,25,247,1
0,6,158,144,1
1,6,54,235,1
0,6,67,154,1
1,6,12,209,1
0,6,152,423,1
1,6,111,261,1
0,6,216,327,1
0,6,384,358,1
1,7,35,18,1
1,6,193,56,1
1,6,457,127,1
1,6,215,118,1
1,6,33,15,1
0,6,164,193,1
0,6,80,120,1
1,6,11,150,1
0,6,185,404,1
0,7,206,87,1
1,7,7,6,1
1,6,20,80,1
0,6,185,435,1
1,6,0,165,1
0,6,213,207,1
1,7,133,254,1
1,6,50,65,1
1,6,198,40,1
0,6,233,256,1
1,7,56,56,1
0,7,191,156,1
1,6,197,201,1
1,6,382,95,1
0,6,105,872,1
1,6,250,9,1
1,7,115,4,1
1,6,5,215,1
1,6,423,47,1
0,6,12,346,1
0,6,331,196,1
1,7,61,291,1
1,6,410,85,1
1,7,154,132,1
1,6,342,156,1
1,7,260,140,1
1,6,91,44,1
1,6,353,80,1
1,6,95,32,1
0,6,126,140,1
1,7,91,86,1
1,6,35,119,1
0,6,212,374,1
0,6,36,263,1
1,6,21,47,1
0,6,134,94,1
1,6,24,44,1
1,7,47,245,1
0,6,397,152,1
0,6,164,341,1
1,6,40,9,1
0,6,180,189,1
1,6,14,56,1
0,6,211,27,1
0,6,71,99,1
1,6,66,135,1
1,6,16,81,1
1,6,246,9,1
1,6,0,192,1
0,6,65,469,1
1,6,28,56,1
1,6,380,28,1
0,6,109,360,1
0,6,423,163,1
0,6,534,704,1
1,7,34,422,1
1,6,421,172,1
1,7,0,27,1
0,6,209,620,1
0,6,28,136,1
1,6,0,85,1
0,6,21,41,1
0,6,121,296,1
0,6,22,209,1
0,6,0,97,1
1,6,167,31,1
1,6,0,59,1
1,6,113,129,1
0,6,13,36,1
0,6,0,16,1
1,7,105,110,1
0,6,112,40,1
1,6,150,6,1
0,6,290,141,1
1,6,195,72,1
0,6,445,327,1
1,6,77,60,1
1,6,311,141,1
1,6,91,317,1
1,6,134,29,1
1,6,77,90,1
1,6,0,32,1
1,6,83,10,1
1,6,121,14,1
1,6,30,126,1
1,6,74,115,1
0,6,16,185,1
0,7,121,255,1
0,6,176,343,1
0,5,46,573,1
1,6,256,331,1
1,7,3,259,1
0,6,192,50,1
0,5,106,77,1
0,6,59,240,1
0,6,1,211,1
0,6,92,202,1
0,6,344,28,1
0,6,13,386,1
1,7,169,115,1
1,7,0,26,1
3,9,79,3,1
1,7,191,240,1
1,6,12,441,1
1,6,314,85,1
1,6,198,139,1
1,6,37,102,1
0,6,385,203,1
0,5,104,200,1
2,8,284,273,1
1,7,76,6,1
1,6,31,135,1
0,6,544,190,1
1,7,136,228,1
0,5,602,61,1
1,6,229,411,1
1,6,82,153,1
0,6,224,214,1
0,6,113,339,1
1,6,17,40,1
0,6,1,206,1
1,6,5,50,1
1,6,189,55,1
0,6,167,381,1
1,6,94,105,1
1,6,14,256,1
1,6,176,18,1
0,6,228,247,1
1,6,277,119,1
1,6,3,15,1
1,6,76,137,1
0,6,263,200,1
0,6,433,641,1
1,7,276,156,1
0,6,452,529,1
1,7,105,260,1
1,6,330,184,1
0,5,159,1023,1
1,7,227,213,1
0,6,178,455,1
1,6,229,110,1
0,6,559,459,1
0,6,364,480,1
0,6,550,752,1
2,7,247,62,1
0,6,148,579,1
1,6,144,88,1
1,6,59,124,1
1,6,189,68,1
0,6,119,338,1
1,7,71,9,1
0,6,63,562,1
1,7,9,53,1
0,6,73,730,1
0,6,233,222,1
0,6,140,486,1
1,6,281,53,1
1,6,109,161,1
1,6,169,10,1
0,6,727,38,1
0,6,74,790,1
0,6,733,185,1
2,8,98,425,1
1,6,41,98,1
0,6,75,535,1
0,6,27,371,1
1,6,165,208,1
0,6,260,166,1
0,6,188,180,1
0,6,255,140,1
0,6,370,320,1
0,6,99,171,1
0,6,83,247,1
1,6,229,63,1
0,6,563,316,1
0,5,273,928,1
1,7,78,163,1
1,6,139,178,1
0,6,256,714,1
0,6,83,393,1
0,6,356,135,1
1,6,19,258,1
0,6,550,340,1
1,7,41,2,1
0,6,515,84,1
1,7,0,127,1
0,6,707,220,1
1,7,15,27,1
0,6,602,130,1
0,6,451,573,1
1,7,232,275,1
0,6,629,410,1
0,6,48,642,1
0,6,688,535,1
1,7,151,640,1
1,7,336,54,1
0,6,347,729,1
0,6,148,451,1
0,5,72,607,1
0,6,214,327,1
1,7,84,188,1
0,5,528,568,1
1,7,358,176,1
3,7,882,185,1
0,6,222,434,1
0,6,883,21,1
1,7,626,502,1
1,7,483,6,1
0,6,832,316,1
1,7,170,269,1
0,6,643,378,1
1,7,130,605,1
1,6,392,295,1
1,7,25,413,1
0,5,800,640,1
2,7,215,207,1
0,5,1023,50,1
0,5,638,176,1
0,5,905,104,1
1,6,299,43,1
15,21,1023,486,1
0,5,316,256,1
8,14,1023,562,1
0,5,163,723,1
0,5,708,582,1
10,16,3,1023,1
0,5,221,491,1
0,6,596,151,1
1,7,16,514,1
0,6,247,138,1
0,6,143,90,1
1,6,576,10,1
0,5,605,88,1
10,16,1023,152,1
1,7,605,844,1
0,5,1023,318,1
0,5,391,886,1
0,5,838,625,1
2,7,60,403,1
0,6,919,92,1
2,7,272,96,1
0,6,186,341,1
0,6,475,335,1
1,7,305,291,1
0,6,39,461,1
0,5,835,169,1
0,6,720,148,1
0,6,576,192,1
1,7,18,366,1
1,6,546,51,1
0,5,504,825,1
1,7,162,15,1
3,9,711,1023,1
0,5,844,895,1
0,6,111,593,1
0,6,1023,392,1
2,7,295,209,1
0,5,1023,122,1
1,7,669,159,1
1,7,226,217,1
0,6,489,246,1
0,6,673,274,1
0,6,777,111,1
0,2,1023,656,1
0,5,541,468,1
0,1,1023,1023,1
0,5,595,687,1
0,3,1023,1023,1
0,5,119,652,1
11,17,921,1023,1
0,5,104,359,1
0,5,553,881,1
0,5,1023,1023,1
0,5,986,680,1
13,18,261,1023,1
1,7,172,31,1
0,4,0,881,1
0,5,883,443,1
8,14,1023,584,1
0,5,31,374,1
10,15,1023,818,1
2,7,9,33,1
0,5,825,76,1
0,5,496,915,1
0,6,931,22,1
2,7,104,193,1
11,18,1023,460,1
0,5,464,121,1
5,11,1023,609,1
1,7,344,59,1
6,12,1023,317,1
0,5,1023,385,1
0,4,365,489,1
0,5,426,269,1
0,6,794,12,1
0,5,925,593,1
0,5,1023,314,1
1,7,732,127,1
1,7,91,380,1
0,5,916,1023,1
1,6,763,188,1
1,6,448,10,1
0,6,432,403,1
1,6,780,11,1
8,13,784,492,1
0,5,727,674,1
0,6,237,346,1
1,6,30,412,1
1,6,54,7,1
0,6,416,459,1
0,6,290,511,1
1,6,336,82,1
1,7,264,315,1
13,19,1023,1023,1
5,11,1023,643,1
2,8,190,752,1
0,5,1011,335,1
1,7,290,272,1
1,7,6,397,1
1,7,334,99,1
1,6,500,2,1
1,7,130,49,1
0,6,546,230,1
0,6,297,299,1
1,6,555,42,1
1,6,165,341,1
1,6,364,43,1
1,6,155,330,1
0,6,589,195,1
1,7,205,351,1
1,7,330,133,1
1,6,219,230,1
0,6,18,248,1
0,5,515,654,1
1,7,554,155,1
1,6,104,235,1
0,6,113,525,1
1,6,251,115,1
1,6,345,79,1
1,6,546,119,1
1,7,14,122,1
0,6,0,194,1
1,6,229,185,1
1,6,321,104,1
0,6,692,222,1
1,7,443,40,1
1,6,474,24,1
1,6,0,381,1
0,6,416,169,1
1,7,36,203,1
1,6,189,88,1
1,6,352,114,1
1,6,403,175,1
0,5,607,467,1
1,7,0,166,1
0,6,481,162,1
0,6,16,421,1
0,6,715,600,1
1,7,593,191,1
1,6,56,454,1
0,6,310,596,1
1,7,287,27,1
0,5,520,947,1
1,7,149,150,1
0,6,51,151,1
0,6,59,275,1
0,6,311,32,1
1,6,315,84,1
1,6,28,13,1
0,6,0,320,1
1,6,319,21,1
0,5,137,535,1
1,6,211,138,1
1,7,39,31,1
1,6,45,66,1
0,6,488,155,1
0,6,404,266,1
1,6,269,443,1
1,7,266,94,1
1,6,174,158,1
1,6,156,55,1
1,6,121,47,1
0,6,213,3,1
1,6,62,149,1
1,6,232,121,1
0,6,49,309,1
0,6,152,268,1
1,6,2,38,1
0,6,405,27,1
1,7,152,117,1
0,6,213,615,1
0,6,782,142,1
1,6,393,86,1
1,6,279,168,1
1,7,88,132,1
1,6,255,81,1
1,7,47,87,1
0,5,591,148,1
1,6,80,233,1
1,6,289,48,1
1,6,149,264,1
0,6,370,38,1
0,6,65,383,1
1,6,84,142,1
1,6,88,66,1
0,6,207,117,1
0,6,334,364,1
1,7,231,30,1
1,6,18,231,1
1,6,116,118,1
0,6,2,88,1
0,6,55,284,1
1,6,264,39,1
1,6,92,225,1
1,6,587,304,1
0,6,224,451,1
0,5,293,820,1
1,6,211,425,1
1,7,138,150,1
0,5,620,670,1
0,6,575,337,1
1,7,285,286,1
1,7,81,140,1
0,6,255,378,1
1,7,0,432,1
1,6,215,16,1
0,6,482,241,1
1,7,7,167,1
0,6,320,347,1
1,6,210,33,1
0,6,309,466,1
1,7,51,55,1
0,6,305,297,1
1,6,29,140,1
1,6,60,111,1
1,6,6,180,1
1,6,302,93,1
0,6,0,583,1
0,6,411,535,1
1,7,176,192,1
1,7,21,60,1
0,6,197,315,1
1,6,152,65,1
1,6,69,81,1
1,7,0,178,1
1,7,102,175,1
1,6,258,21,1
0,6,93,260,1
1,6,366,97,1
0,6,0,481,1
0,5,374,572,1
1,6,421,432,1
1,7,25,4,1
0,6,313,303,1
1,7,220,64,1
0,6,331,423,1
1,6,125,196,1
1,6,0,221,1
1,6,105,24,1
1,7,64,3,1
0,6,29,85,1
1,6,150,15,1
1,6,0,1,1
1,6,9,93,1
1,6,225,112,1
0,6,399,201,1
1,6,134,236,1
0,6,128,681,1
1,7,6,158,1
1,6,169,13,1
0,6,86,295,1
1,6,276,123,1
1,6,226,16,1
0,6,54,280,1
1,6,130,289,1
0,6,316,97,1
1,6,8,141,1
1,6,47,137,1
1,6,150,19,1
1,6,58,12,1
1,6,2,65,1
1,6,230,149,1
1,6,197,184,1
0,6,176,403,1
1,6,199,121,1
0,6,263,193,1
1,6,57,197,1
0,6,0,386,1
1,6,51,255,1
0,6,306,36,1
0,6,191,375,1
1,6,0,35,1
1,6,34,36,1
1,6,94,196,1
1,6,125,1,1
1,6,123,17,1
0,6,351,40,1
0,7,194,146,1
1,6,0,244,1
0,7,125,86,1
1,6,67,419,1
1,6,85,49,1
0,6,116,208,1
0,6,148,196,1
0,6,221,297,1
1,6,205,68,1
1,6,31,75,1
0,6,299,1,1
1,6,93,81,1
1,6,0,2,1
1,6,258,16,1
1,6,181,20,1
0,6,45,523,1
1,6,222,190,1
1,6,48,277,1
0,6,255,302,1
1,6,75,131,1
1,6,109,96,1
0,6,158,615,1
1,6,112,113,1
0,6,395,230,1
0,6,241,334,1
1,6,317,101,1
1,6,105,125,1
0,6,118,2,1
1,6,105,49,1
1,6,75,175,1
1,6,0,50,1
1,6,0,250,1
1,6,83,30,1
0,6,65,264,1
0,6,166,295,1
0,6,201,122,1
0,5,231,77,1
1,6,0,7,1
0,6,17,591,1
0,6,216,440,1
1,7,78,28,1
3,8,223,4,1
0,5,231,157,1
0,6,141,13,1
2,8,220,233,1
0,5,0,69,1
1,6,247,41,1
3,8,26,72,1
0,5,135,373,1
1,7,100,49,1
0,7,0,328,1
1,6,89,93,1
0,5,68,66,1
0,6,52,422,1
2,7,48,126,1
1,6,5,243,1
0,5,164,18,1
1,7,0,688,1
3,8,122,43,1
1,6,35,108,1
0,6,126,174,1
0,5,46,133,1
0,6,136,223,1
0,6,39,391,1
0,6,22,498,1
0,6,98,423,1
1,7,43,174,1
1,6,0,319,1
2,7,0,26,1
1,7,7,463,1
3,9,36,45,1
2,7,85,676,1
2,7,0,488,1
1,7,91,160,1
1,6,21,281,1
0,6,56,23,1
0,5,9,487,1
2,7,90,252,1
1,7,144,5,1
0,6,132,250,1
0,6,324,352,1
2,7,0,23,1
1,6,112,88,1
0,6,45,190,1
1,6,107,243,1
1,7,23,71,1
1,7,17,75,1
1,6,40,99,1
1,6,18,29,1
0,6,50,424,1
0,6,236,70,1
0,6,161,657,1
1,6,191,380,1
1,7,55,339,1
1,7,103,28,1
1,6,162,95,1
1,6,141,304,1
0,6,302,489,1
1,7,7,115,1
0,6,132,62,1
0,6,108,122,1
1,6,79,76,1
1,6,8,45,1
0,6,277,73,1
0,6,88,412,1
1,6,73,113,1
0,6,30,403,1
1,6,53,288,1
0,6,13,362,1
0,6,282,87,1
1,6,83,459,1
1,6,427,75,1
0,6,331,570,1
0,6,452,286,1
1,6,367,285,1
0,6,175,336,1
1,6,417,55,1
0,6,63,682,1
0,6,380,275,1
1,6,33,218,1
0,6,225,391,1
1,6,80,8,1
0,6,257,2,1
1,6,37,60,1
0,6,307,271,1
0,6,342,678,1
1,7,219,38,1
0,6,391,263,1
1,6,432,313,1
1,6,123,414,1
0,6,248,421,1
0,6,17,1023,1
1,7,274,137,1
11,18,148,1023,1
0,5,430,167,1
1,7,323,631,1
0,4,864,621,1
0,6,125,509,1
0,5,1023,672,1
2,8,73,729,1
1,7,611,173,1
0,5,386,1023,1
2,7,123,11,1
0,5,658,409,1
1,7,24,461,1
0,5,970,358,1
0,6,378,756,1
0,6,641,382,1
0,6,217,463,1
0,6,928,309,1
1,7,163,218,1
0,5,837,106,1
1,7,101,505,1
0,6,566,447,1
1,6,425,143,1
0,6,431,670,1
1,6,164,376,1
0,6,459,793,1
1,7,65,194,1
0,6,476,349,1
0,7,193,554,1
1,6,754,151,1
0,6,234,768,1
0,6,695,325,1
2,7,251,765,1
0,6,476,280,1
0,6,291,1023,1
0,6,175,356,1
1,6,262,293,1
0,6,503,151,1
1,7,36,57,1
0,6,748,138,1
0,6,711,382,1
0,6,396,815,1
1,7,95,571,1
0,5,944,1023,1
0,5,295,70,1
0,5,786,620,1
1,6,35,259,1
12,17,1023,1,1
0,5,553,113,1
0,6,597,67,1
1,6,110,643,1
0,6,763,197,1
0,6,422,705,1
1,7,83,170,1
0,5,1023,211,1
1,7,457,370,1
0,6,487,253,1
1,7,392,170,1
1,7,294,197,1
0,6,720,391,1
1,6,487,352,1
1,7,51,452,1
0,6,477,612,1
1,6,269,301,1
0,6,119,921,1
0,6,832,356,1
1,7,309,189,1
0,5,1023,18,1
1,7,310,22,1
0,6,799,241,1
1,7,104,216,1
0,6,108,897,1
0,7,230,561,1
0,5,516,699,1
1,7,458,15,1
1,7,48,18,1
0,6,566,185,1
0,6,469,830,1
1,6,935,56,1
1,7,158,557,1
2,7,40,238,1
0,6,642,118,1
0,6,680,375,1
1,7,331,173,1
1,7,0,178,1
1,6,72,296,1
1,6,16,391,1
1,6,415,104,1
0,7,398,425,1
0,5,963,430,1
0,3,1023,588,1
0,5,251,515,1
3,9,1023,484,1
0,5,488,180,1
0,5,444,252,1
0,6,486,327,1
1,6,32,167,1
2,7,824,215,1
3,9,1023,431,1
0,5,114,415,1
0,5,544,105,1
0,6,336,150,1
0,6,317,798,1
1,7,489,115,1
15,21,1023,334,1
6,12,1023,1023,1
1,7,309,235,1
0,5,100,24,1
14,19,1023,734,1
0,6,666,501,1
9,14,1023,370,1
0,4,883,403,1
10,16,1023,390,1
6,12,1023,460,1
3,8,298,110,1
0,3,1023,820,1
0,6,588,115,1
5,9,462,29,1
11,17,1023,827,1
0,1,1023,232,1
1,7,671,716,1
0,5,87,17,1
0,6,1023,680,1
0,5,192,336,1
7,13,1023,1023,1
2,8,259,359,1
9,15,1023,615,1
1,7,1023,395,1
0,5,338,614,1
0,5,712,297,1
0,6,487,294,1
0,6,1023,234,1
0,5,200,854,1
4,11,1023,1023,1
2,7,207,213,1
0,1,1023,203,1
0,5,258,319,1
0,4,1023,838,1
0,5,203,172,1
12,18,1023,427,1
0,5,408,551,1
11,17,1023,1023,1
2,7,622,74,1
0,5,245,603,1
1,6,177,134,1
0,6,237,355,1
0,6,353,756,1
1,6,555,290,1
0,6,218,815,1
1,7,491,153,1
0,2,1023,405,1
0,5,1023,497,1
0,6,119,830,1
1,6,241,231,1
1,6,232,301,1
0,6,681,226,1
0,6,22,402,1
0,6,799,487,1
2,7,255,305,1
1,7,317,112,1
0,5,685,1009,1
0,6,1023,695,1
0,5,50,588,1
0,5,369,116,1
1,6,128,101,1
0,6,234,130,1
1,6,426,72,1
0,5,878,360,1
0,6,514,556,1
0,6,906,11,1
2,7,240,27,1
0,6,742,141,1
1,6,481,185,1
1,6,214,382,1
0,5,619,587,1
0,6,13,329,1
1,7,55,155,1
0,6,363,76,1
0,6,259,280,1
0,6,667,584,1
2,7,267,28,1
0,5,674,410,1
1,6,265,231,1
0,6,554,379,1
2,7,172,405,1
1,6,253,284,1
1,6,313,48,1
1,6,163,179,1
0,6,211,352,1
1,7,175,134,1
0,6,460,121,1
1,6,230,90,1
0,6,436,211,1
1,7,5,374,1
1,7,211,80,1
0,6,260,276,1
1,6,306,56,1
1,6,4,211,1
0,6,0,457,1
0,6,471,513,1
1,6,307,370,1
1,6,306,371,1
0,6,265,484,1
1,6,111,235,1
1,6,81,96,1
0,6,137,144,1
0,6,313,368,1
1,6,389,100,1
1,6,308,231,1
0,5,651,503,1
1,7,25,126,1
0,6,231,61,1
1,6,216,50,1
1,6,429,4,1
0,6,379,92,1
1,7,101,46,1
1,6,0,199,1
0,6,4,184,1
0,6,283,217,1
0,5,679,611,1
1,7,133,3,1
0,6,245,499,1
1,6,395,101,1
0,6,333,519,1
1,6,312,172,1
0,6,369,540,1
1,7,225,134,1
1,6,241,11,1
1,6,143,322,1
0,5,88,699,1
1,7,19,39,1
1,6,297,116,1
1,6,15,83,1
1,6,20,112,1
1,6,67,9,1
0,6,159,477,1
1,7,0,122,1
0,6,159,309,1
1,6,0,132,1
1,6,96,27,1
0,6,412,38,1
0,6,133,231,1
0,6,288,330,1
1,6,0,80,1
0,6,162,242,1
1,6,57,49,1
0,6,323,91,1
0,6,193,170,1
0,6,392,177,1
1,7,57,18,1
1,6,115,6,1
1,6,95,138,1
0,5,392,327,1
0,6,151,467,1
0,6,8,368,1
1,6,133,273,1
1,6,28,70,1
1,6,91,125,1
1,6,224,98,1
1,6,224,153,1
0,6,60,177,1
0,6,301,40,1
0,6,324,282,1
0,5,608,389,1
1,7,376,280,1
1,7,0,76,1
1,6,81,22,1
1,6,47,124,1
1,6,105,112,1
0,5,90,601,1
0,6,183,305,1
1,7,3,193,1
1,6,104,17,1
1,6,96,13,1
1,6,365,50,1
1,6,9,169,1
0,6,47,330,1
0,6,221,581,1
1,7,58,74,1
1,6,227,204,1
0,6,117,147,1
0,6,148,184,1
1,6,247,149,1
0,6,225,428,1
1,6,0,136,1
0,6,22,374,1
0,6,238,226,1
0,6,42,349,1
1,6,261,17,1
1,6,211,142,1
1,6,82,239,1
0,6,394,392,1
0,6,444,159,1
1,6,326,100,1
1,6,21,220,1
0,6,388,93,1
1,6,103,63,1
0,6,130,167,1
0,6,72,412,1
1,6,208,90,1
1,6,33,131,1
1,6,29,17,1
0,6,370,554,1
0,6,228,295,1
1,7,0,455,1
1,6,19,100,1
0,6,94,439,1
1,6,0,1,1
1,7,118,37,1
0,6,248,395,1
1,6,0,4,1
0,6,267,275,1
0,6,112,131,1
1,6,170,124,1
0,6,111,170,1
1,6,179,7,1
0,6,2,517,1
1,7,143,65,1
1,6,197,73,1
1,6,47,194,1
0,6,260,114,1
1,6,0,22,1
1,6,281,148,1
0,6,280,21,1
1,6,164,45,1
0,6,5,59,1
1,7,117,107,1
1,6,30,96,1
1,6,160,217,1
1,6,0,97,1
1,6,3,253,1
1,6,89,19,1
0,6,238,359,1
0,6,99,232,1
0,6,108,106,1
1,6,0,75,1
1,6,221,154,1
1,6,149,52,1
1,6,228,325,1
0,6,275,451,1
1,7,14,12,1
1,6,58,138,1
0,6,289,196,1
1,7,55,21,1
0,6,298,247,1
1,6,30,112,1
1,7,86,134,1
0,6,281,285,1
1,6,167,174,1
1,6,146,145,1
1,6,315,225,1
0,6,113,295,1
0,6,300,172,1
1,6,266,59,1
0,6,0,123,1
1,6,209,81,1
0,6,205,235,1
1,6,88,247,1
0,6,456,123,1
1,7,118,19,1
0,6,362,130,1
1,6,184,92,1
1,6,178,39,1
0,6,139,114,1
0,6,0,124,1
0,6,305,64,1
0,6,0,304,1
0,5,179,348,1
0,6,10,230,1
0,4,70,211,1
0,5,405,307,1
0,6,173,378,1
2,8,159,82,1
0,6,50,18,1
0,6,84,215,1
0,6,348,45,1
1,7,89,110,1
2,8,498,55,1
0,6,11,406,1
0,5,430,49,1
0,5,12,380,1
1,7,320,218,1
1,6,374,194,1
1,6,207,13,1
0,6,188,72,1
1,6,107,8,1
0,6,19,126,1
1,6,0,13,1
1,7,12,13,1
1,6,25,139,1
1,6,0,23,1
3,9,0,5,1
0,5,0,63,1
0,6,107,212,1
0,5,1,348,1
0,6,31,133,1
0,6,14,83,1
0,6,28,249,1
0,6,219,298,1
1,7,4,86,1
1,7,103,256,1
1,7,260,157,1
3,9,215,77,1
0,5,332,245,1
0,5,1,6,1
1,6,370,133,1
0,6,127,185,1
0,6,59,87,1
0,6,24,31,1
1,6,9,45,1
1,6,11,74,1
1,6,38,62,1
0,6,27,118,1
0,6,0,67,1
0,6,10,160,1
4,10,11,190,1
1,7,203,103,1
0,5,86,60,1
0,6,109,128,1
2,7,29,145,1
1,6,0,44,1
0,6,26,114,1
1,6,0,26,1
1,6,82,4,1
1,6,46,7,1
0,6,49,175,1
1,7,77,18,1
0,6,217,378,1
0,6,185,401,1
1,6,99,380,1
1,6,134,49,1
1,6,22,148,1
1,6,83,51,1
1,6,93,101,1
1,6,0,232,1
0,6,0,85,1
1,6,107,188,1
1,6,0,343,1
0,6,172,202,1
0,6,269,244,1
1,6,99,76,1
0,6,63,40,1
1,6,32,108,1
0,6,104,87,1
1,6,219,274,1
1,6,160,279,1
1,6,336,100,1
0,6,64,202,1
1,6,254,117,1
0,6,270,586,1
0,6,136,36,1
0,6,166,361,1
1,6,130,278,1
0,5,407,860,1
1,6,443,293,1
1,6,454,423,1
1,7,72,384,1
0,6,630,73,1
0,6,117,579,1
0,5,667,766,1
1,6,418,744,1
1,7,359,414,1
0,6,601,487,1
1,7,91,498,1
0,6,596,260,1
0,6,249,828,1
0,5,1023,255,1
0,5,438,699,1
0,5,898,927,1
0,5,622,989,1
0,5,921,123,1
1,7,102,410,1
0,6,1023,56,1
0,6,331,674,1
1,7,364,270,1
0,6,590,462,1
1,7,97,1023,1
0,5,637,460,1
0,6,563,810,1
1,7,494,39,1
0,5,1023,773,1
0,6,598,228,1
1,7,541,286,1
7,11,1023,558,1
0,5,644,312,1
5,12,1023,943,1
0,4,629,60,1
0,6,513,299,1
0,5,20,1023,1
0,6,201,200,1
0,5,432,318,1
0,3,1023,724,1
0,5,266,205,1
0,5,590,40,1
0,6,715,176,1
1,6,637,117,1
0,6,616,342,1
0,6,674,593,1
8,13,1023,276,1
0,5,860,1023,1
1,7,1023,684,1
0,5,159,1023,1
0,6,1023,564,1
15,20,259,1023,1
4,10,718,1023,1
0,5,35,543,1
0,5,830,186,1
1,6,33,326,1
0,5,427,534,1
1,7,104,87,1
0,6,457,295,1
0,6,755,538,1
0,5,1023,583,1
10,15,1023,655,1
0,5,857,415,1
1,6,246,70,1
0,6,63,652,1
0,2,1023,25,1
2,7,926,259,1
7,13,1023,289,1
0,6,1023,187,1
0,6,1023,359,1
10,15,1023,383,1
0,3,1023,280,1
1,7,1023,315,1
0,1,1023,135,1
0,5,555,93,1
0,5,1023,395,1
0,5,205,54,1
0,5,739,493,1
9,14,1023,767,1
0,6,1023,80,1
0,5,992,944,1
5,10,1023,342,1
0,5,195,489,1
7,13,1023,98,1
3,8,241,135,1
2,7,985,172,1
0,5,415,369,1
0,5,541,651,1
1,6,238,153,1
0,5,712,531,1
1,7,3,307,1
0,5,160,85,1
1,6,167,152,1
0,6,286,213,1
0,6,694,430,1
0,5,319,232,1
9,14,1023,978,1
1,7,129,184,1
0,5,415,472,1
1,6,20,254,1
0,5,837,651,1
1,7,242,215,1
0,6,1023,1023,1
0,6,554,780,1
14,19,1023,610,1
0,5,484,339,1
0,6,242,72,1
0,6,0,9,1
0,6,862,93,1
0,5,1023,834,1
0,5,774,284,1
0,5,1023,930,1
1,7,514,15,1
0,5,767,832,1
0,5,897,298,1
0,6,518,482,1
1,7,83,558,1
1,7,99,384,1
12,19,566,1023,1
0,5,914,598,1
1,7,30,422,1
0,3,1023,1023,1
0,5,837,187,1
0,5,646,164,1
0,5,489,223,1
0,3,1023,981,1
0,6,482,282,1
13,19,1023,526,1
0,5,1023,543,1
1,7,541,514,1
2,8,1023,316,1
0,5,529,31,1
0,5,686,128,1
0,5,812,449,1
1,7,225,265,1
0,6,421,168,1
12,18,1023,947,1
0,4,1023,276,1
0,5,479,849,1
1,7,1023,413,1
0,5,764,466,1
0,6,171,616,1
1,6,289,253,1
1,6,3,107,1
0,5,895,85,1
1,6,557,1,1
1,7,0,401,1
0,6,1023,128,1
0,5,457,968,1
0,5,815,620,1
1,7,0,448,1
0,5,928,152,1
2,7,12,156,1
0,5,826,649,1
1,6,818,160,1
1,7,350,46,1
0,6,599,46,1
1,7,92,45,1
1,6,65,197,1
0,6,388,322,1
1,6,352,102,1
1,6,254,54,1
0,6,261,351,1
9,16,1023,930,1
0,5,581,221,1
11,17,1023,855,1
0,5,852,296,1
10,15,646,1023,1
0,5,399,13,1
0,5,400,18,1
1,6,413,193,1
1,6,131,302,1
1,6,93,68,1
0,6,536,525,1
0,7,510,313,1
0,5,474,731,1
0,6,1023,264,1
0,4,609,337,1
0,5,861,351,1
1,7,263,145,1
1,6,534,137,1
0,6,346,732,1
1,6,118,177,1
0,5,468,765,1
1,7,119,65,1
0,5,762,486,1
1,7,107,232,1
0,6,600,313,1
0,6,927,134,1
2,7,0,169,1
1,6,486,259,1
0,6,642,262,1
1,7,171,551,1
1,7,276,4,1
0,6,625,590,1
1,7,346,316,1
1,7,302,80,1
0,5,508,379,1
1,7,448,193,1
0,6,94,411,1
1,7,301,143,1
0,7,167,190,1
1,6,171,57,1
0,6,227,21,1
1,6,86,40,1
1,7,270,157,1
1,7,7,9,1
1,6,156,2,1
0,6,53,261,1
1,6,0,291,1
0,6,56,355,1
1,6,156,71,1
1,6,242,150,1
1,6,142,42,1
0,6,367,473,1
1,6,105,84,1
1,6,85,365,1
0,6,6,466,1
1,6,235,28,1
1,7,140,112,1
1,6,266,263,1
0,6,234,335,1
1,6,104,332,1
0,6,1,219,1
0,6,447,21,1
1,7,42,103,1
1,6,179,32,1
1,6,198,82,1
1,6,4,63,1
0,6,288,220,1
1,7,59,120,1
0,6,38,75,1
1,6,8,97,1
0,6,20,510,1
1,6,179,4,1
1,6,126,254,1
0,6,367,57,1
0,6,356,256,1
1,6,442,121,1
1,6,33,48,1
1,6,9,75,1
0,6,165,145,1
1,6,95,197,1
0,6,547,617,1
1,7,38,238,1
0,6,181,525,1
0,6,29,517,1
1,6,80,332,1
0,6,137,130,1
0,6,0,612,1
1,7,55,178,1
1,6,106,9,1
1,6,159,113,1
1,6,8,134,1
0,5,746,350,1
1,7,305,112,1
0,6,441,220,1
1,6,376,223,1
0,6,207,463,1
0,6,283,646,1
1,7,7,265,1
1,6,95,341,1
0,6,476,56,1
1,6,185,121,1
1,7,31,27,1
1,6,8,135,1
1,6,58,140,1
0,6,106,396,1
0,6,181,213,1
1,6,76,32,1
0,6,566,171,1
1,6,358,15,1
0,6,166,237,1
0,6,176,155,1
1,6,24,124,1
0,5,512,654,1
1,7,66,63,1
0,6,104,573,1
1,7,92,118,1
1,6,73,2,1
1,6,234,97,1
1,6,130,150,1
1,6,41,93,1
1,6,0,205,1
0,5,469,760,1
1,6,333,688,1
1,7,238,258,1
1,7,12,152,1
1,6,0,52,1
0,6,136,98,1
1,6,101,49,1
0,6,90,1,1
1,6,266,111,1
0,6,188,111,1
1,6,188,18,1
0,6,579,549,1
0,6,575,550,1
1,6,406,57,1
1,7,0,249,1
1,7,137,257,1
0,5,856,180,1
0,6,66,676,1
1,6,221,614,1
0,6,575,660,1
2,7,34,24,1
1,6,203,39,1
1,6,118,85,1
1,6,178,130,1
1,6,0,81,1
1,6,65,346,1
0,6,202,168,1
0,5,241,820,1
1,7,207,63,1
0,6,316,502,1
1,7,197,128,1
1,6,366,175,1
1,6,333,276,1
1,6,277,88,1
1,6,0,28,1
0,6,418,129,1
1,6,159,15,1
0,6,378,151,1
1,6,22,180,1
1,6,137,44,1
0,6,21,52,1
0,6,189,58,1
1,6,1,24,1
0,6,132,249,1
1,6,5,227,1
1,6,196,11,1
0,6,123,549,1
0,5,50,814,1
0,6,275,289,1
1,6,452,13,1
1,6,98,163,1
1,7,231,97,1
0,6,305,240,1
1,7,141,119,1
0,6,52,170,1
1,6,80,60,1
1,6,235,20,1
1,6,0,161,1
0,6,377,345,1
1,6,241,209,1
0,5,4,877,1
1,7,108,98,1
0,6,194,267,1
1,6,80,59,1
0,6,75,363,1
1,6,113,139,1
0,6,212,283,1
1,6,85,256,1
1,6,297,140,1
1,6,9,485,1
0,6,187,274,1
1,6,8,14,1
1,6,28,3,1
0,6,371,438,1
0,5,554,377,1
1,6,326,167,1
1,7,15,86,1
0,6,161,89,1
0,6,0,152,1
0,6,94,198,1
0,6,83,456,1
0,6,26,409,1
0,7,342,549,1
1,6,349,52,1
0,5,4,610,1
1,6,208,43,1
0,6,0,3,1
0,5,418,375,1
0,5,0,31,1
2,7,408,260,1
0,6,76,189,1
0,6,232,125,1
0,6,164,735,1
2,7,193,428,1
0,5,461,307,1
0,6,26,310,1
1,7,88,31,1
0,6,195,264,1
0,6,55,121,1
1,7,252,287,1
3,8,5,238,1
0,5,21,8,1
0,6,236,57,1
0,6,0,14,1
0,6,51,243,1
1,6,61,6,1
0,6,78,214,1
1,6,133,97,1
0,6,23,498,1
1,6,231,48,1
0,6,94,223,1
0,6,90,218,1
0,5,27,428,1
1,7,99,8,1
1,7,65,215,1
1,6,0,137,1
1,7,13,112,1
1,7,13,13,1
2,7,5,81,1
5,11,0,144,1
1,7,252,210,1
0,5,47,12,1
3,8,96,1,1
1,7,60,458,1
0,6,5,147,1
0,5,17,86,1
0,6,21,41,1
1,6,66,22,1
0,6,93,99,1
4,9,15,29,1
0,6,12,9,1
0,5,0,4,1
3,9,0,62,1
1,7,31,6,1
1,6,50,6,1
0,6,11,89,1
1,6,177,187,1
1,6,51,104,1
1,6,107,78,1
1,7,2,43,1
0,6,22,7,1
1,6,115,16,1
1,6,102,9,1
0,6,0,238,1
0,6,53,383,1
1,7,66,7,1
1,6,0,142,1
0,6,70,1,1
1,6,264,196,1
1,6,147,165,1
0,6,149,271,1
0,6,117,451,1
0,6,0,413,1
0,6,239,202,1
1,6,21,155,1
0,6,3,343,1
1,6,73,99,1
1,6,204,21,1
0,6,389,123,1
1,7,157,53,1
0,6,395,141,1
1,6,54,60,1
1,6,83,76,1
1,6,170,74,1
1,6,137,300,1
1,6,67,52,1
1,6,10,115,1
0,6,302,276,1
0,6,282,398,1
1,7,118,169,1
1,6,175,240,1
1,6,372,90,1
1,6,17,5,1
1,6,189,255,1
0,6,16,23,1
0,6,152,369,1
1,6,94,126,1
0,6,290,340,1
1,6,7,5,1
0,6,402,188,1
1,7,162,199,1
1,6,473,95,1
0,5,484,590,1
0,6,109,589,1
0,6,185,789,1
1,7,1,120,1
0,6,17,336,1
0,6,319,241,1
1,6,177,128,1
1,6,436,84,1
0,5,165,823,1
1,6,491,598,1
1,7,385,352,1
0,6,512,373,1
1,7,117,181,1
0,6,604,3,1
1,7,44,126,1
0,6,255,294,1
0,6,203,605,1
0,5,120,1023,1
1,7,100,379,1
0,6,833,183,1
1,6,664,56,1
1,7,369,108,1
0,7,188,169,1
0,6,147,42,1
1,6,230,197,1
1,6,174,80,1
1,6,179,47,1
1,6,43,136,1
0,6,562,355,1
0,6,506,354,1
0,6,514,587,1
0,5,881,981,1
0,5,861,203,1
3,8,579,468,1
1,7,545,729,1
0,5,540,365,1
0,6,321,307,1
4,9,353,21,1
0,5,662,1023,1
2,8,731,537,1
1,7,702,699,1
0,6,1023,300,1
1,7,85,621,1
0,6,860,371,1
0,6,640,875,1
4,9,815,517,1
7,13,479,1023,1
0,5,793,832,1
1,7,435,519,1
12,18,1023,207,1
1,6,1023,4,1
0,5,755,0,1
0,5,1023,242,1
0,6,460,52,1
0,6,354,213,1
0,6,278,888,1
1,6,389,57,1
0,6,42,610,1
1,6,742,91,1
2,7,114,29,1
15,20,1023,216,1
0,5,421,58,1
0,6,173,404,1
0,6,261,373,1
1,7,68,176,1
0,6,793,272,1
0,6,323,852,1
1,7,636,270,1
1,7,453,357,1
1,7,57,393,1
0,6,760,56,1
1,7,284,40,1
12,18,1023,197,1
0,5,334,783,1
0,5,1023,247,1
0,6,441,734,1
12,18,1023,91,1
0,7,600,878,1
1,6,1023,237,1
0,5,191,697,1
4,10,1023,245,1
0,5,308,119,1
0,5,479,754,1
0,6,384,45,1
1,7,122,344,1
0,5,1023,28,1
0,6,1023,731,1
0,5,418,672,1
0,5,1023,197,1
0,5,796,511,1
0,5,1023,717,1
0,5,39,967,1
0,5,784,345,1
0,7,289,843,1
24,29,1023,812,1
0,1,552,1023,1
0,5,830,168,1
0,5,920,468,1
0,6,548,56,1
1,7,302,312,1
0,5,998,50,1
0,6,910,523,1
0,6,1023,594,1
1,6,654,770,1
16,22,1023,740,1
0,3,1023,898,1
1,5,1023,40,1
0,2,1023,693,1
2,6,944,37,1
0,7,1023,1023,1
3,9,9,579,1
0,4,167,110,1
0,5,584,44,1
0,6,408,342,1
1,6,453,46,1
1,6,572,150,1
21,27,1023,1023,1
7,12,1023,200,1
8,14,1023,589,1
0,5,930,72,1
0,5,442,476,1
6,13,433,1023,1
5,11,1023,631,1
0,5,265,94,1
0,5,489,125,1
0,6,377,483,1
0,6,654,536,1
15,20,882,1023,1
0,5,993,513,1
0,5,230,228,1
20,26,1023,1023,1
0,5,448,294,1
5,10,786,722,1
0,5,382,58,1
13,19,1023,507,1
0,5,394,2,1
0,5,964,196,1
1,6,545,664,1
0,6,501,399,1
0,5,1023,275,1
0,5,290,478,1
0,5,807,505,1
1,7,62,512,1
0,6,778,102,1
1,6,408,322,1
2,7,519,18,1
0,5,810,1023,1
0,7,466,427,1
10,16,1023,789,1
0,5,694,529,1
0,4,403,1023,1
1,6,663,54,1
1,7,95,39,1
1,6,99,15,1
1,6,154,194,1
0,5,872,260,1
1,7,97,155,1
5,10,847,1001,1
0,5,594,475,1
1,7,56,16,1
1,7,353,473,1
1,7,293,430,1
0,6,728,734,1
1,7,180,238,1
1,6,344,7,1
0,6,482,269,1
1,6,417,380,1
0,6,804,134,1
1,7,49,262,1
0,5,924,303,1
1,7,202,343,1
0,6,518,135,1
1,7,172,133,1
1,6,439,58,1
1,6,268,227,1
0,6,442,486,1
1,7,110,183,1
1,6,259,169,1
0,6,421,234,1
1,6,106,152,1
1,6,307,52,1
2,7,65,192,1
1,7,77,17,1
1,6,123,235,1
0,6,274,204,1
1,6,169,7,1
0,6,108,351,1
1,6,243,113,1
0,6,263,362,1
1,6,213,289,1
1,7,113,237,1
0,6,872,10,1
0,5,223,189,1
0,5,426,366,1
0,7,41,37,1
0,6,493,3,1
1,6,311,106,1
0,6,44,93,1
1,6,84,2,1
1,6,194,83,1
1,6,120,29,1
0,6,309,56,1
1,7,119,100,1
0,5,713,264,1
0,6,715,293,1
2,7,160,57,1
1,7,249,37,1
1,6,0,133,1
0,6,291,259,1
1,7,46,55,1
0,6,361,602,1
1,7,88,206,1
1,6,84,161,1
1,6,155,114,1
0,6,287,393,1
0,6,82,206,1
1,6,26,38,1
1,6,6,21,1
1,6,0,189,1
0,6,579,589,1
1,7,181,128,1
0,6,226,248,1
1,6,1,4,1
0,6,363,238,1
1,7,8,87,1
1,6,213,73,1
1,6,60,10,1
0,6,70,360,1
1,6,134,192,1
0,5,572,546,1
1,7,0,320,1
1,6,58,77,1
0,6,435,464,1
1,6,12,169,1
1,6,192,180,1
0,5,674,723,1
1,7,93,506,1
0,5,940,1023,1
2,8,254,97,1
1,6,493,345,1
0,6,275,460,1
1,6,24,109,1
0,6,392,244,1
1,7,0,18,1
0,6,229,407,1
1,6,47,105,1
1,6,65,60,1
0,6,429,390,1
1,7,97,60,1
0,6,706,342,1
1,6,433,246,1
0,6,773,376,1
0,6,614,558,1
2,7,253,31,1
1,7,58,8,1
0,6,624,346,1
0,6,685,155,1
1,7,197,2,1
1,7,158,95,1
1,6,284,1,1
1,6,149,225,1
1,6,64,171,1
0,6,109,420,1
1,6,27,40,1
1,6,88,5,1
1,6,161,130,1
1,6,153,179,1
0,6,330,307,1
1,6,116,309,1
1,6,184,154,1
1,6,195,18,1
0,6,583,190,1
1,7,86,25,1
0,6,65,440,1
1,6,362,128,1
0,6,324,105,1
1,6,36,41,1
1,6,0,96,1
1,6,60,143,1
1,6,114,148,1
0,6,160,84,1
1,6,114,130,1
1,6,26,69,1
1,6,176,54,1
0,6,216,375,1
0,6,245,159,1
1,7,45,84,1
0,6,195,323,1
1,6,211,19,1
1,7,16,72,1
1,6,338,121,1
0,6,512,30,1
0,6,248,55,1
1,6,137,348,1
0,6,561,431,1
0,6,107,526,1
0,6,656,121,1
1,7,138,331,1
1,6,235,71,1
1,6,244,154,1
1,6,77,195,1
1,6,255,150,1
0,6,120,49,1
0,6,62,290,1
0,6,134,137,1
0,6,0,290,1
0,6,340,283,1
1,7,74,140,1
0,6,385,398,1
1,6,125,114,1
1,7,1,165,1
1,6,378,42,1
0,6,258,255,1
1,6,310,230,1
1,6,326,372,1
1,7,134,56,1
0,6,197,225,1
1,6,147,113,1
1,6,55,76,1
1,6,188,21,1
0,6,593,306,1
1,7,222,5,1
1,6,171,91,1
0,6,202,177,1
1,6,149,206,1
1,6,123,6,1
0,6,1,297,1
0,6,350,224,1
0,6,48,369,1
1,6,68,45,1
0,6,155,559,1
0,5,520,1023,1
0,5,216,133,1
0,6,505,495,1
1,7,4,25,1
0,6,71,204,1
0,6,369,256,1
1,6,92,2,1
0,6,466,265,1
1,7,84,3,1
1,7,38,268,1
1,6,407,104,1
0,6,160,623,1
0,6,67,554,1
1,7,55,39,1
1,6,61,128,1
1,6,203,116,1
1,7,26,81,1
1,6,36,64,1
0,6,39,123,1
0,6,58,292,1
0,6,511,111,1
0,6,438,212,1
1,6,535,459,1
1,7,104,85,1
1,6,117,1,1
1,7,149,130,1
1,6,57,262,1
1,6,122,54,1
0,6,4,401,1
0,6,5,821,1
1,6,0,83,1
0,6,16,499,1
0,6,17,348,1
1,6,276,202,1
0,6,161,295,1
1,6,75,201,1
0,6,407,167,1
1,6,38,187,1
1,6,70,32,1
0,6,46,257,1
1,6,204,172,1
1,6,1,51,1
0,6,145,27,1
1,6,157,22,1
0,5,12,508,1
0,5,0,460,1
1,7,1,288,1
1,7,414,418,1
0,5,284,106,1
2,8,0,116,1
1,6,0,98,1
0,5,39,133,1
0,6,100,231,1
2,8,405,180,1
0,6,7,1005,1
1,6,430,375,1
0,7,55,392,1
0,5,510,88,1
0,6,46,156,1
1,6,308,66,1
1,6,135,27,1
1,6,129,2,1
0,6,257,68,1
0,6,160,11,1
1,6,91,374,1
1,7,0,121,1
1,6,61,131,1
1,6,39,8,1
1,6,0,245,1
1,6,124,53,1
0,6,32,135,1
0,6,65,135,1
0,5,25,401,1
0,6,18,235,1
1,6,39,34,1
1,6,7,202,1
1,7,104,216,1
1,7,77,205,1
2,7,16,9,1
1,7,0,345,1
3,9,0,127,1
2,8,0,4,1
0,5,70,39,1
4,9,0,280,1
1,7,12,37,1
0,5,44,158,1
0,5,0,61,1
2,7,0,7,1
0,6,0,8,1
0,6,3,56,1
3,9,31,34,1
0,6,7,50,1
2,7,8,68,1
0,6,39,250,1
1,6,0,58,1
1,6,48,134,1
1,6,40,239,1
1,7,8,8,1
0,6,76,330,1
1,6,24,45,1
0,6,58,179,1
1,6,0,76,1
1,6,21,41,1
1,6,34,57,1
1,6,0,167,1
1,6,32,79,1
1,6,16,141,1
1,6,164,61,1
1,6,81,73,1
0,6,296,220,1
0,6,281,220,1
0,6,200,393,1
1,6,170,235,1
0,6,75,209,1
1,6,107,48,1
0,6,272,183,1
1,6,14,85,1
1,6,25,65,1
0,6,93,92,1
0,6,123,100,1
1,6,12,84,1
0,6,71,41,1
1,6,126,20,1
0,6,5,264,1
0,6,139,249,1
0,6,172,150,1
1,6,157,63,1
1,6,2,32,1
0,6,306,309,1
0,6,64,251,1
0,6,307,125,1
0,6,266,386,1
1,6,236,144,1
0,6,214,345,1
1,6,16,56,1
1,6,256,66,1
1,6,85,71,1
0,6,152,78,1
1,7,94,227,1
0,6,560,133,1
0,5,386,661,1
0,6,619,338,1
0,6,203,760,1
1,7,340,321,1
0,6,599,729,1
1,7,88,80,1
0,6,481,43,1
1,7,139,259,1
0,6,287,394,1
1,6,113,242,1
0,6,306,189,1
0,6,187,89,1
1,6,0,285,1
0,6,648,212,1
0,6,970,411,1
0,6,414,662,1
0,5,1023,754,1
11,17,170,1023,1
0,4,441,13,1
0,5,589,628,1
1,6,194,197,1
0,6,416,55,1
0,6,321,457,1
0,6,295,466,1
0,6,384,784,1
1,7,415,154,1
1,6,333,77,1
0,6,452,479,1
0,6,464,358,1
0,5,1001,4,1
0,6,217,915,1
8,14,1023,276,1
3,8,211,1023,1
0,5,832,41,1
0,5,284,825,1
0,5,298,241,1
0,5,546,653,1
1,7,207,213,1
0,6,627,101,1
1,6,237,544,1
1,7,451,23,1
0,5,381,1023,1
1,6,746,176,1
1,7,308,668,1
1,6,613,55,1
0,6,367,859,1
2,7,5,232,1
0,6,607,163,1
1,6,773,68,1
0,6,102,870,1
4,9,436,16,1
0,6,326,505,1
1,7,140,453,1
1,7,124,280,1
0,6,157,608,1
1,7,106,224,1
0,6,740,4,1
0,6,778,44,1
1,7,293,17,1
0,6,1023,100,1
0,6,485,386,1
0,6,621,335,1
1,6,842,179,1
2,7,80,248,1
16,21,1023,254,1
0,6,35,897,1
0,5,1023,295,1
0,6,452,532,1
0,5,826,706,1
1,7,329,376,1
2,7,311,195,1
1,7,101,450,1
1,7,97,357,1
1,7,246,325,1
0,6,976,335,1
2,8,594,32,1
28,34,1023,1023,1
1,7,451,122,1
0,5,208,854,1
0,3,1023,675,1
1,7,94,233,1
0,5,693,889,1
0,6,768,606,1
0,7,64,871,1
14,19,1023,735,1
0,2,1023,320,1
4,9,1023,743,1
0,5,940,7,1
7,13,1023,893,1
3,8,685,95,1
5,10,1023,774,1
0,3,1023,156,1
0,5,749,588,1
0,2,1023,125,1
0,5,706,424,1
0,6,1023,609,1
0,5,722,552,1
0,5,2,850,1
0,5,70,444,1
0,5,1023,321,1
1,6,160,48,1
0,6,720,269,1
0,5,713,282,1
1,7,238,512,1
1,7,477,15,1
1,7,141,164,1
13,20,1023,877,1
0,1,1023,1023,1
0,5,384,103,1
14,21,1023,1023,1
0,6,181,225,1
0,3,1023,920,1
0,5,566,51,1
0,6,45,430,1
6,11,292,593,1
0,5,880,474,1
0,5,496,485,1
0,6,909,73,1
6,12,1023,717,1
0,5,844,819,1
0,5,1023,661,1
6,11,849,581,1
4,10,1023,838,1
1,6,747,42,1
3,8,702,475,1
0,5,1023,349,1
0,5,334,247,1
1,7,776,281,1
0,5,839,660,1
0,6,144,519,1
0,6,863,136,1
0,5,455,549,1
8,13,880,540,1
0,3,1023,906,1
0,5,1023,113,1
2,7,686,114,1
0,5,1023,680,1
19,25,1023,1023,1
0,3,1023,1023,1
7,13,734,583,1
0,6,650,214,1
9,15,938,1023,1
0,6,1022,568,1
0,6,212,213,1
27,33,1023,1023,1
4,10,1023,350,1
0,5,332,1023,1
0,5,461,1023,1
1,7,131,369,1
6,12,1023,978,1
0,5,1023,261,1
0,5,768,855,1
0,5,750,690,1
1,7,97,117,1
0,6,371,781,1
18,25,1023,1023,1
0,2,1023,828,1
5,11,984,1023,1
5,11,1023,1023,1
8,14,994,288,1
10,14,901,1023,1
0,5,1023,399,1
0,5,255,154,1
0,5,538,179,1
10,16,1023,590,1
0,1,1023,772,1
0,5,659,560,1
0,5,924,253,1
0,6,738,456,1
1,7,560,391,1
0,6,634,980,1
1,7,650,205,1
1,7,373,589,1
1,6,587,138,1
1,7,183,702,1
16,22,1023,455,1
4,10,1023,669,1
0,5,12,76,1
0,5,508,91,1
0,6,584,444,1
0,5,1019,78,1
1,7,65,40,1
0,6,445,546,1
0,6,220,371,1
0,6,399,382,1
1,7,72,243,1
0,6,233,6,1
1,6,289,258,1
1,6,406,258,1
15,21,1023,515,1
0,5,1023,629,1
0,6,346,215,1
0,6,400,233,1
0,6,4,748,1
1,7,99,37,1
0,7,89,194,1
1,6,118,107,1
0,5,556,527,1
1,7,215,20,1
0,6,490,264,1
1,7,0,40,1
1,6,3,46,1
1,6,6,15,1
0,6,157,288,1
0,6,729,67,1
1,6,178,121,1
0,6,977,52,1
2,7,153,85,1
1,7,0,60,1
0,6,278,180,1
1,6,369,139,1
1,6,70,112,1
0,6,196,111,1
1,6,151,28,1
1,6,165,95,1
1,6,180,29,1
0,6,269,223,1
1,7,42,160,1
1,6,328,190,1
0,7,168,183,1
0,6,34,688,1
0,6,413,637,1
1,7,74,129,1
0,6,249,153,1
0,6,416,98,1
1,6,7,196,1
1,6,179,16,1
0,6,358,399,1
1,6,122,7,1
0,6,468,295,1
1,6,475,129,1
1,6,87,114,1
0,6,184,249,1
1,7,15,222,1
0,6,543,228,1
1,7,10,322,1
0,6,381,521,1
1,7,110,218,1
0,6,399,130,1
1,7,0,155,1
0,6,292,207,1
1,6,5,327,1
1,6,151,33,1
0,6,289,636,1
1,7,27,206,1
0,5,918,19,1
1,6,553,78,1
0,6,862,149,1
1,7,4,207,1
1,7,104,80,1
0,6,490,389,1
0,6,5,426,1
0,6,302,396,1
0,6,573,506,1
1,7,200,146,1
1,6,310,210,1
1,7,185,48,1
0,6,230,192,1
0,6,662,264,1
1,6,169,226,1
1,6,214,19,1
0,5,938,239,1
1,6,434,24,1
1,6,201,105,1
1,6,147,15,1
0,6,505,52,1
0,6,333,248,1
0,6,156,269,1
1,6,123,61,1
0,6,648,36,1
0,6,169,411,1
0,6,572,333,1
1,6,14,64,1
1,6,149,257,1
0,6,497,130,1
1,7,58,125,1
0,6,470,309,1
1,7,51,218,1
0,6,317,63,1
1,6,0,25,1
1,6,24,83,1
0,6,0,299,1
1,6,81,318,1
1,6,205,83,1
0,5,349,416,1
0,6,194,323,1
1,6,181,33,1
1,6,198,242,1
1,6,137,135,1
1,6,7,274,1
0,6,128,216,1
0,6,159,88,1
1,6,196,9,1
1,6,191,167,1
0,5,552,95,1
1,6,25,350,1
1,7,86,409,1
0,6,49,539,1
0,5,118,870,1
1,7,67,161,1
1,6,12,166,1
1,6,278,115,1
1,6,201,30,1
0,6,134,57,1
0,6,324,34,1
1,6,211,230,1
0,7,238,644,1
1,7,129,216,1
0,6,149,171,1
0,6,389,78,1
1,7,90,164,1
1,6,106,220,1
0,6,14,427,1
0,5,174,837,1
1,7,0,7,1
1,6,184,251,1
1,6,173,19,1
1,7,2,54,1
0,5,601,519,1
1,7,37,80,1
1,6,368,169,1
1,7,25,199,1
1,6,189,435,1
1,7,4,74,1
1,6,21,15,1
1,6,234,103,1
1,7,122,169,1
0,6,631,132,1
0,6,494,46,1
1,7,8,35,1
1,6,16,39,1
0,6,247,463,1
0,6,480,490,1
1,6,452,30,1
0,6,491,447,1
0,6,474,373,1
1,7,125,22,1
0,6,565,391,1
1,7,134,228,1
0,6,264,207,1
1,6,15,76,1
0,6,304,193,1
0,6,420,292,1
1,7,130,37,1
1,6,23,42,1
1,6,185,296,1
1,7,182,37,1
0,5,280,761,1
1,7,205,138,1
1,6,66,285,1
0,6,412,22,1
1,6,11,44,1
0,6,344,204,1
0,6,384,278,1
1,7,322,33,1
1,7,16,46,1
0,6,346,311,1
1,7,163,98,1
1,6,0,70,1
0,6,0,250,1
0,6,151,418,1
0,6,157,770,1
0,6,93,377,1
1,7,34,21,1
0,6,223,431,1
0,6,0,587,1
1,6,131,469,1
1,6,146,9,1
0,6,554,205,1
0,7,316,377,1
0,5,897,634,1
2,7,45,144,1
1,6,324,19,1
1,6,157,36,1
1,6,0,40,1
0,5,0,258,1
0,6,54,847,1
0,5,15,676,1
0,6,101,405,1
1,6,20,52,1
0,6,49,26,1
1,6,135,140,1
1,7,207,28,1
1,6,172,65,1
0,6,33,38,1
1,7,170,57,1
1,6,34,42,1
0,6,104,263,1
0,5,341,148,1
1,6,85,28,1
0,6,442,427,1
1,7,0,19,1
1,7,169,49,1
1,7,309,250,1
1,7,40,62,1
0,6,55,660,1
0,6,159,537,1
1,7,71,176,1
1,6,79,26,1
0,6,0,89,1
1,7,3,119,1
0,5,15,53,1
0,5,114,90,1
1,6,16,106,1
0,6,17,25,1
1,6,10,34,1
1,6,233,61,1
1,6,159,177,1
1,6,10,15,1
0,6,70,346,1
0,6,6,165,1
1,6,54,287,1
0,6,113,249,1
1,7,83,33,1
2,7,100,334,1
0,6,85,42,1
4,10,11,87,1
2,7,6,79,1
0,7,0,113,1
2,7,2,65,1
1,6,0,36,1
1,6,55,36,1
1,6,108,175,1
0,6,209,108,1
1,6,11,128,1
1,7,0,116,1
1,6,0,154,1
1,6,4,38,1
1,6,0,33,1
0,6,26,32,1
0,6,0,31,1
1,7,64,120,1
1,6,30,82,1
1,6,58,91,1
1,6,14,138,1
1,6,8,112,1
1,6,15,120,1
1,6,0,33,1
1,6,0,16,1
1,6,0,41,1
1,6,35,293,1
0,6,158,31,1
0,6,286,555,1
1,6,145,270,1
0,6,379,381,1
0,7,21,355,1
1,6,130,80,1
0,6,187,276,1
0,6,75,261,1
1,6,61,204,1
1,7,53,107,1
0,6,2,305,1
1,6,99,8,1
1,6,5,205,1
1,6,123,50,1
1,6,169,213,1
0,6,21,476,1
1,6,177,12,1
1,7,0,194,1
1,6,233,117,1
1,6,65,137,1
1,6,61,218,1
1,6,132,37,1
0,6,285,288,1
0,6,628,315,1
0,5,193,857,1
1,6,723,313,1
1,7,189,479,1
1,7,390,12,1
1,6,287,150,1
1,6,37,227,1
0,6,210,92,1
0,6,387,207,1
1,7,102,141,1
1,6,392,15,1
0,6,222,172,1
1,6,513,134,1
0,6,323,681,1
0,6,180,693,1
0,7,540,1023,1
0,5,265,231,1
0,5,225,593,1
0,6,301,255,1
0,7,58,316,1
0,5,333,920,1
2,7,34,33,1
0,6,389,787,1
1,7,433,31,1
0,6,196,808,1
0,6,498,508,1
0,6,574,908,1
1,7,542,30,1
0,6,687,149,1
0,5,646,898,1
0,6,417,896,1
6,12,1023,183,1
0,5,176,703,1
0,5,756,692,1
1,7,437,620,1
1,7,460,412,1
4,10,1023,169,1
0,5,54,575,1
3,9,1023,485,1
0,5,125,123,1
0,5,672,368,1
0,6,538,365,1
0,6,441,853,1
0,5,349,6,1
0,5,234,1023,1
2,7,667,668,1
0,5,433,213,1
0,5,790,600,1
0,6,49,243,1
1,6,552,200,1
0,5,627,906,1
0,5,202,35,1
1,7,904,384,1
3,9,235,101,1
0,5,642,690,1
0,6,489,877,1
1,7,892,451,1
1,7,688,622,1
6,12,121,1016,1
0,5,1023,413,1
1,7,399,181,1
1,7,68,214,1
0,6,167,774,1
1,6,275,573,1
0,4,479,1023,1
4,10,712,1023,1
0,4,730,1023,1
5,10,685,1023,1
3,9,444,675,1
3,9,1023,1023,1
0,3,641,1023,1
2,8,499,414,1
0,5,1023,893,1
0,4,221,259,1
0,5,350,345,1
1,6,29,256,1
0,6,477,718,1
13,19,1023,1020,1
0,6,560,48,1
2,8,1023,417,1
0,6,774,792,1
2,7,1023,488,1
0,4,365,821,1
10,16,1023,378,1
0,5,963,210,1
0,5,405,247,1
3,9,1023,67,1
0,5,609,617,1
2,7,580,274,1
0,5,556,615,1
16,22,1023,168,1
0,6,1023,316,1
0,6,363,182,1
0,5,1023,16,1
0,6,352,573,1
0,6,580,449,1
0,6,321,187,1
14,20,1023,595,1
0,6,12,52,1
10,16,1023,694,1
1,7,316,18,1
7,13,1023,627,1
2,7,187,139,1
12,18,1023,103,1
1,7,37,161,1
9,15,1023,880,1
3,8,1023,84,1
0,5,1023,130,1
0,5,946,128,1
10,15,1023,238,1
1,7,938,286,1
12,17,1023,218,1
0,1,1023,425,1
5,10,988,19,1
5,11,1023,695,1
3,9,151,72,1
10,15,1023,237,1
2,8,831,564,1
6,12,1023,428,1
0,3,1023,611,1
0,6,202,4,1
4,10,1023,1023,1
2,7,559,87,1
5,10,1023,822,1
0,5,760,176,1
0,5,636,674,1
9,13,1023,289,1
0,1,1023,320,1
0,6,221,188,1
3,9,1023,590,1
3,9,844,481,1
1,6,795,35,1
0,6,1023,803,1
0,5,505,197,1
15,20,1023,791,1
2,7,779,128,1
0,5,541,782,1
9,15,1023,175,1
0,5,567,341,1
21,27,1023,1023,1
0,6,1023,310,1
0,6,870,694,1
0,6,23,18,1
0,5,815,719,1
24,31,1023,1023,1
0,0,1023,1023,1
5,12,192,194,1
16,22,1023,1023,1
6,11,1023,340,1
9,15,1023,1023,1
0,6,1023,959,1
4,9,978,43,1
0,5,636,931,1
0,5,1023,926,1
0,6,94,887,1
1,7,41,390,1
1,7,98,125,1
0,6,553,222,1
1,7,25,36,1
1,6,289,152,1
1,6,244,342,1
1,6,452,640,1
16,22,1023,693,1
6,11,1023,332,1
0,6,596,1023,1
7,13,1023,1023,1
1,7,701,35,1
4,9,1023,977,1
4,9,299,272,1
0,6,1023,294,1
0,6,783,249,1
0,5,303,297,1
0,6,457,108,1
15,21,1023,778,1
0,5,23,871,1
13,20,1023,1023,1
3,9,445,231,1
17,23,1023,1023,1
0,5,1023,904,1
1,7,304,711,1
0,6,663,77,1
11,16,1023,368,1
0,5,1023,325,1
0,6,605,320,1
12,18,1023,299,1
0,4,23,161,1
0,5,443,598,1
0,6,608,10,1
0,6,311,470,1
0,6,229,619,1
1,7,201,464,1
1,7,481,182,1
1,7,522,145,1
0,6,613,161,1
0,6,973,536,1
0,3,1023,234,1
0,5,265,535,1
0,5,525,672,1
1,7,116,14,1
1,6,85,34,1
8,14,1023,391,1
0,5,987,102,1
0,5,479,736,1
0,6,483,173,1
0,6,2,616,1
0,6,582,349,1
1,6,430,109,1
0,6,412,1,1
1,6,0,51,1
0,5,725,116,1
1,7,25,127,1
0,5,683,453,1
2,7,131,51,1
1,6,546,85,1
0,6,418,12,1
0,6,599,56,1
1,6,425,1,1
1,6,393,7,1
1,6,121,398,1
0,6,541,556,1
1,7,138,240,1
1,6,235,201,1
0,6,238,210,1
1,7,64,116,1
1,6,307,1,1
1,6,51,51,1
0,6,502,361,1
1,7,40,200,1
0,6,400,207,1
1,6,182,128,1
1,6,53,56,1
1,6,30,207,1
0,6,583,328,1
1,7,275,111,1
1,6,164,105,1
1,6,92,42,1
1,6,272,7,1
0,6,31,4,1
0,7,40,123,1
0,6,123,291,1
1,6,33,87,1
0,6,551,216,1
1,7,54,69,1
0,5,694,449,1
1,7,289,31,1
1,6,139,101,1
1,6,271,117,1
1,6,158,184,1
1,6,57,47,1
0,6,508,254,1
1,6,154,184,1
0,6,176,277,1
0,6,548,233,1
1,7,72,219,1
1,6,267,40,1
0,6,353,187,1
0,6,316,628,1
1,6,381,235,1
0,6,580,514,1
1,7,152,62,1
0,6,629,383,1
1,7,2,4,1
0,6,260,216,1
0,6,349,799,1
0,7,256,130,1
1,7,148,27,1
0,6,177,343,1
0,6,522,146,1
1,7,11,81,1
1,6,224,127,1
0,6,377,347,1
1,6,219,0,1
1,6,24,118,1
0,6,275,237,1
1,6,246,221,1
1,6,263,22,1
0,6,368,44,1
0,5,579,68,1
1,7,378,253,1
1,6,196,3,1
1,6,378,115,1
1,6,310,235,1
1,6,42,25,1
0,6,235,210,1
0,6,422,519,2
1,7,124,49,2
0,5,855,642,2
1,7,108,336,2
1,6,185,94,2
1,6,39,7,2
0,6,519,219,2
1,6,335,42,2
0,6,468,45,2
0,6,475,131,2
1,7,0,86,2
1,6,267,289,2
1,6,33,57,2
0,5,33,1009,2
1,6,578,165,2
1,7,390,137,2
1,7,3,144,2
0,6,208,468,2
1,6,111,78,2
0,6,416,167,2
1,7,192,309,2
0,5,726,724,2
1,7,3,414,2
1,6,474,228,2
1,7,1,65,2
1,6,43,1,2
0,6,495,168,2
1,6,67,17,2
0,5,682,108,2
1,7,104,282,2
0,6,310,883,2
1,7,140,6,2
1,7,108,48,2
0,6,325,267,2
0,6,427,214,2
0,6,100,534,2
0,6,124,702,2
0,6,606,558,2
1,7,280,226,2
1,6,430,160,2
1,6,263,257,2
1,6,35,70,2
0,6,283,211,2
1,6,30,97,2
0,6,182,231,2
0,6,194,225,2
0,6,377,78,2
0,7,25,422,2
1,6,297,158,2
0,5,352,807,2
2,7,154,156,2
0,6,496,802,2
2,7,238,62,2
0,6,285,258,2
0,6,279,452,2
0,6,441,410,2
1,7,3,11,2
0,6,110,243,2
0,6,255,227,2
1,6,2,107,2
1,6,38,123,2
1,6,54,10,2
0,5,65,664,2
1,6,111,326,2
1,6,0,107,2
1,6,86,5,2
0,6,356,433,2
1,6,144,68,2
0,6,184,80,2
0,6,267,249,2
0,6,464,130,2
0,5,886,386,2
1,7,154,197,2
0,6,536,272,2
0,6,401,406,2
1,6,51,91,2
1,6,120,22,2
0,6,0,412,2
1,6,176,259,2
0,5,251,679,2
1,7,86,85,2
0,6,201,312,2
0,6,503,143,2
0,6,394,149,2
0,6,494,90,2
0,6,118,466,2
1,6,521,12,2
0,6,206,253,2
0,6,357,525,2
2,7,60,8,2
0,6,130,405,2
0,6,384,216,2
0,5,135,778,2
14,19,107,1023,2
0,5,232,172,2
0,6,0,251,2
1,6,78,2,2
0,6,104,0,2
0,6,18,251,2
1,7,28,106,2
1,6,124,44,2
0,6,39,108,2
1,6,53,135,2
0,6,111,71,2
1,6,205,51,2
1,6,91,81,2
0,6,221,62,2
1,6,4,183,2
1,7,0,64,2
1,6,174,36,2
0,6,111,142,2
1,7,60,244,2
1,6,39,28,2
0,6,50,34,2
0,5,56,124,2
3,9,3,57,2
1,7,1,5,2
0,5,139,164,2
2,7,107,87,2
1,6,46,441,2
0,5,112,154,2
0,6,624,12,2
3,8,359,66,2
0,5,235,71,2
0,6,335,170,2
0,6,135,126,2
0,6,186,162,2
0,6,1,81,2
0,6,29,48,2
1,6,36,131,2
0,6,0,205,2
0,6,54,468,2
1,6,76,121,2
1,6,89,215,2
2,7,43,101,2
1,7,0,144,2
4,9,279,121,2
2,7,53,62,2
2,7,160,185,2
0,6,392,71,2
0,6,101,37,2
0,5,194,99,2
2,7,27,136,2
0,5,99,94,2
0,5,1,1,2
0,6,15,118,2
0,6,261,170,2
0,6,21,155,2
5,10,41,147,2
2,7,86,59,2
0,5,296,271,2
4,9,86,153,2
2,7,247,138,2
1,6,95,78,2
1,6,54,286,2
1,6,175,161,2
0,6,226,546,2
1,7,0,130,2
1,6,118,400,2
1,6,263,49,2
0,6,167,272,2
0,6,199,219,2
1,6,11,271,2
1,6,20,32,2
1,6,81,112,2
0,6,83,223,2
0,6,142,65,2
0,6,456,350,2
1,6,269,162,2
1,6,451,32,2
0,6,260,542,2
1,7,188,48,2
0,6,201,683,2
1,7,64,247,2
0,6,70,462,2
0,6,0,348,2
1,6,195,25,2
0,6,145,207,2
0,6,12,454,2
0,6,428,43,2
0,6,146,709,2
1,6,123,302,2
1,6,207,420,2
1,6,340,241,2
1,6,201,205,2
0,6,319,439,2
0,5,601,527,2
1,7,248,521,2
1,6,676,62,2
0,6,107,1023,2
0,5,361,585,2
0,5,44,685,2
0,6,567,277,2
1,7,201,203,2
0,6,520,424,2
1,6,402,259,2
1,6,1023,50,2
0,6,81,754,2
0,5,1023,34,2
1,7,258,654,2
0,6,775,119,2
1,7,200,332,2
1,6,287,198,2
0,5,677,637,2
1,6,729,157,2
2,7,739,789,2
0,5,910,14,2
0,6,497,288,2
1,6,479,173,2
1,7,290,119,2
0,6,568,387,2
1,7,270,221,2
1,6,561,57,2
1,6,476,223,2
0,6,436,138,2
1,6,282,20,2
1,6,159,114,2
0,6,262,696,2
0,6,277,728,2
0,6,146,471,2
0,6,148,746,2
1,6,640,52,2
1,6,172,606,2
0,5,971,138,2
2,8,313,509,2
0,6,813,489,2
1,7,315,48,2
0,5,875,292,2
1,7,26,584,2
0,6,616,282,2
1,7,294,183,2
0,6,0,463,2
1,6,353,264,2
0,5,923,372,2
2,7,309,147,2
0,5,1023,420,2
0,4,953,664,2
0,6,896,635,2
0,5,857,105,2
0,4,563,634,2
15,20,1023,229,2
0,2,1023,72,2
0,5,162,227,2
11,17,1023,903,2
1,6,176,133,2
0,5,993,397,2
17,23,589,1023,2
1,7,267,74,2
12,18,447,1023,2
0,5,696,276,2
0,2,1023,653,2
3,8,1023,331,2
0,5,754,863,2
6,11,1004,125,2
0,5,571,172,2
0,5,17,919,2
1,6,928,209,2
0,6,799,225,2
1,6,535,27,2
0,6,613,301,2
1,7,445,395,2
15,21,1023,45,2
0,5,451,369,2
0,5,243,480,2
0,6,343,471,2
0,6,618,80,2
0,6,528,511,2
1,7,57,320,2
0,6,615,631,2
3,8,1023,488,2
14,21,1023,892,2
1,6,680,21,2
6,12,1023,865,2
0,5,145,113,2
13,18,1023,172,2
0,5,53,352,2
0,5,325,341,2
0,6,66,184,2
0,6,265,616,2
0,6,28,220,2
1,6,63,26,2
0,5,859,1023,2
2,8,192,158,2
0,5,1023,539,2
2,7,13,43,2
0,5,849,301,2
2,7,218,56,2
11,15,975,725,2
0,5,58,577,2
1,6,111,24,2
0,6,600,129,2
0,5,654,989,2
17,23,1023,1023,2
2,7,1023,56,2
0,4,626,775,2
6,12,1023,913,2
0,2,1023,532,2
5,11,494,1023,2
0,0,1023,1023,2
0,6,372,616,2
0,2,749,1023,2
10,15,1023,441,2
1,7,669,349,2
8,14,1023,828,2
0,5,49,168,2
14,20,1023,768,2
1,6,748,139,2
0,5,1023,825,2
0,5,753,683,2
1,7,143,153,2
1,6,132,631,2
1,7,1023,537,2
0,6,686,83,2
10,16,1023,852,2
0,6,197,526,2
0,5,1023,617,2
1,7,11,178,2
0,6,435,540,2
1,6,771,374,2
0,6,446,376,2
5,11,1023,625,2
0,1,1023,228,2
0,5,628,383,2
0,3,1023,517,2
0,1,1023,713,2
0,5,239,933,2
0,2,1023,761,2
0,4,209,23,2
0,5,557,482,2
0,5,1023,500,2
0,6,374,868,2
0,4,1013,827,2
9,14,16,1016,2
3,9,1023,927,2
0,6,845,259,2
12,18,1023,548,2
0,5,701,286,2
0,5,428,545,2
0,6,284,160,2
0,6,432,232,2
1,7,185,296,2
0,7,44,248,2
1,6,87,41,2
0,6,113,101,2
1,6,118,350,2
0,5,858,848,2
2,7,491,126,2
0,6,445,721,2
1,7,1023,638,2
1,7,1023,113,2
0,5,805,185,2
0,6,594,224,2
1,6,630,810,2
0,5,678,240,2
0,6,485,310,2
1,7,145,2,2
0,6,859,1023,2
4,11,1023,540,2
0,6,898,260,2
0,5,117,147,2
0,6,713,190,2
1,7,142,280,2
1,7,329,187,2
1,7,325,554,2
1,7,365,44,2
0,5,1023,511,2
0,5,884,403,2
2,7,960,1023,2
5,12,1023,699,2
1,6,24,686,2
0,5,1023,518,2
0,4,223,448,2
0,5,150,191,2
0,3,1023,283,2
0,5,501,207,2
0,6,354,59,2
1,6,175,105,2
1,6,606,61,2
1,6,87,77,2
0,6,733,647,2
1,7,47,31,2
1,6,196,44,2
1,7,133,35,2
1,6,152,47,2
0,5,1023,250,2
12,18,1023,332,2
0,5,118,89,2
0,5,460,621,2
0,6,400,450,2
1,7,84,143,2
0,6,346,373,2
0,6,157,139,2
1,6,69,53,2
0,5,482,451,2
1,7,237,211,2
0,5,1023,1023,2
0,5,43,82,2
0,5,1023,525,2
1,6,724,42,2
1,7,0,248,2
1,7,131,139,2
0,6,484,344,2
1,7,77,26,2
0,6,276,15,2
1,6,333,33,2
0,6,367,183,2
1,6,204,77,2
0,6,246,275,2
1,7,2,21,2
0,6,27,193,2
0,6,222,221,2
1,7,141,238,2
0,6,823,298,2
1,7,302,106,2
0,6,678,26,2
1,7,8,116,2
1,6,0,10,2
1,6,277,0,2
0,7,160,50,2
0,6,258,441,2
0,6,30,460,2
1,7,66,247,2
1,6,255,3,2
1,6,163,89,2
0,5,606,670,2
1,7,35,3,2
1,7,148,21,2
0,6,189,401,2
0,6,308,507,2
1,6,118,185,2
1,6,55,415,2
1,6,0,13,2
1,6,235,48,2
1,6,290,46,2
0,6,194,373,2
0,6,1,398,2
1,6,76,10,2
1,6,157,68,2
1,6,111,155,2
1,6,129,178,2
1,6,32,138,2
0,6,189,154,2
0,6,408,26,2
0,7,177,306,2
0,6,602,672,2
1,7,7,117,2
0,6,330,244,2
0,6,684,123,2
2,7,92,24,2
7,12,870,36,2
0,5,113,44,2
0,6,8,105,2
0,6,189,6,2
0,6,487,170,2
1,6,0,138,2
1,6,365,168,2
0,6,275,347,2
1,6,261,19,2
1,6,249,173,2
0,6,786,345,2
1,6,552,372,2
0,6,574,527,2
1,6,210,607,2
1,7,350,383,2
1,7,86,196,2
0,6,152,258,2
1,6,168,183,2
0,6,280,354,2
1,6,286,200,2
1,6,8,7,2
1,6,30,90,2
0,6,164,181,2
1,6,314,98,2
0,6,223,114,2
0,6,25,189,2
0,6,72,5,2
1,7,132,178,2
0,5,596,674,2
1,7,0,365,2
0,4,452,1023,2
1,6,243,13,2
1,6,12,228,2
1,6,256,105,2
1,6,103,92,2
1,6,68,49,2
0,6,67,162,2
0,6,0,369,2
1,6,59,68,2
0,5,585,709,2
1,7,219,157,2
0,6,185,314,2
1,6,49,281,2
0,6,81,137,2
1,6,106,81,2
0,6,762,43,2
0,6,658,115,2
0,6,130,579,2
1,6,60,303,2
1,7,59,31,2
0,6,399,121,2
0,6,237,699,2
1,6,130,243,2
1,6,296,19,2
1,6,0,162,2
0,5,772,280,2
1,7,429,153,2
0,5,912,447,2
0,6,516,783,2
1,7,8,500,2
0,6,904,97,2
1,7,305,258,2
1,6,195,192,2
1,6,121,203,2
1,6,87,22,2
0,6,289,75,2
1,6,193,71,2
1,6,155,115,2
0,6,478,544,2
1,7,78,251,2
0,6,663,362,2
1,6,51,181,2
0,6,459,408,2
1,6,319,54,2
1,6,82,135,2
1,6,105,2,2
0,6,125,428,2
0,6,63,348,2
0,6,20,99,2
0,6,324,196,2
1,6,193,25,2
1,6,140,60,2
1,6,209,72,2
0,6,132,215,2
0,6,62,0,2
0,6,255,0,2
0,6,326,236,2
1,7,42,144,2
0,6,618,281,2
1,6,459,100,2
1,6,312,96,2
1,6,315,157,2
1,6,280,117,2
1,6,10,365,2
0,6,460,428,2
1,6,537,6,2
0,5,885,320,2
1,7,124,403,2
1,7,1,214,2
0,6,26,596,2
0,6,677,86,2
1,7,116,151,2
0,6,715,104,2
1,7,280,146,2
1,7,4,12,2
1,6,189,24,2
1,6,59,176,2
0,6,47,866,2
1,6,43,81,2
0,5,981,596,2
1,7,397,428,2
0,6,458,712,2
1,6,525,336,2
1,6,81,124,2
1,7,379,78,2
0,6,528,199,2
1,6,453,0,2
1,6,437,201,2
1,7,10,7,2
1,6,85,76,2
0,6,101,139,2
0,6,0,82,2
0,6,3,53,2
1,6,11,21,2
1,6,129,126,2
0,6,407,23,2
0,6,523,63,2
0,6,347,162,2
0,6,150,316,2
1,7,109,37,2
1,6,217,50,2
0,6,175,257,2
0,6,130,33,2
1,6,81,136,2
1,6,235,67,2
1,6,154,2,2
1,6,167,276,2
1,6,247,5,2
1,6,112,51,2
0,6,291,253,2
1,6,212,82,2
1,6,39,233,2
1,7,11,1,2
1,6,101,104,2
0,6,66,357,2
0,5,215,7,2
0,5,0,785,2
1,7,320,231,2
1,7,111,354,2
0,6,123,289,2
0,6,159,246,2
0,6,22,280,2
1,6,98,183,2
1,7,18,41,2
1,7,172,33,2
1,7,54,194,2
4,10,60,547,2
1,7,117,679,2
1,7,47,151,2
1,7,171,301,2
1,6,60,143,2
1,7,35,66,2
0,6,0,669,2
0,5,43,508,2
0,5,16,71,2
1,6,38,34,2
0,6,77,206,2
1,6,190,47,2
1,7,12,183,2
0,6,355,138,2
1,6,93,57,2
1,7,131,56,2
1,7,51,65,2
0,6,123,161,2
1,6,0,43,2
0,6,101,159,2
1,6,218,229,2
2,7,31,3,2
2,8,69,10,2
0,6,35,156,2
4,10,50,31,2
2,7,67,269,2
1,7,117,156,2
0,6,121,213,2
1,6,84,104,2
0,6,145,310,2
1,6,64,167,2
1,6,45,190,2
0,6,142,430,2
1,6,0,539,2
1,6,0,349,2
0,6,103,680,2
1,7,17,119,2
1,7,12,145,2
0,6,250,201,2
1,6,95,11,2
0,6,6,220,2
0,6,456,264,2
1,6,86,83,2
0,6,485,184,2
0,7,163,211,2
1,6,358,96,2
0,6,84,87,2
0,5,174,666,2
0,6,192,313,2
0,6,49,769,2
1,6,422,11,2
0,6,161,775,2
1,6,392,171,2
1,6,50,596,2
1,7,506,18,2
0,5,166,647,2
1,6,234,246,2
1,7,155,512,2
0,6,508,426,2
0,6,513,81,2
0,5,266,1023,2
1,7,143,677,2
1,7,107,32,2
1,6,68,12,2
0,6,191,182,2
0,5,558,116,2
0,6,544,164,2
0,6,319,419,2
1,7,5,201,2
0,6,371,522,2
0,6,622,60,2
1,6,108,537,2
0,5,1023,728,2
1,7,141,767,2
1,6,726,184,2
0,6,436,423,2
0,6,223,460,2
1,6,501,323,2
1,6,436,86,2
0,3,1023,79,2
0,5,34,828,2
4,10,1023,305,2
0,5,20,132,2
6,12,1023,462,2
0,5,213,76,2
0,5,534,206,2
0,5,998,161,2
1,7,36,380,2
0,5,942,58,2
2,7,3,108,2
6,12,1023,493,2
0,5,13,231,2
0,5,1023,389,2
0,5,675,1023,2
0,6,854,327,2
4,9,533,1023,2
0,5,515,196,2
1,7,13,612,2
0,6,608,94,2
0,5,730,176,2
1,7,356,36,2
0,6,227,826,2
0,3,1023,25,2
0,5,731,761,2
0,5,1023,223,2
0,6,794,237,2
0,4,1023,295,2
0,5,772,229,2
0,5,940,413,2
9,14,1023,149,2
0,2,1023,533,2
0,5,406,149,2
0,5,445,91,2
0,6,47,312,2
1,6,0,57,2
2,8,1023,255,2
1,7,705,158,2
0,5,778,32,2
0,6,1023,869,2
0,4,1023,998,2
9,15,1023,815,2
0,2,793,1023,2
0,6,672,40,2
0,5,405,770,2
6,10,906,116,2
0,5,38,417,2
0,4,1023,127,2
0,5,312,70,2
7,12,1023,38,2
0,5,125,26,2
0,5,1023,377,2
0,6,54,363,2
0,6,591,224,2
0,5,689,826,2
0,5,960,553,2
2,7,164,123,2
0,6,822,468,2
2,9,1023,526,2
0,5,850,5,2
10,16,1023,376,2
2,7,21,459,2
0,1,1023,135,2
0,5,70,468,2
4,9,728,4,2
0,5,8,17,2
0,5,15,238,2
0,6,532,214,2
0,6,306,587,2
0,6,487,250,2
1,7,268,280,2
0,5,1023,435,2
0,5,210,173,2
6,12,1023,144,2
0,5,477,209,2
0,6,264,37,2
0,6,510,181,2
0,5,955,822,2
2,7,670,168,2
1,6,289,684,2
11,18,1023,1023,2
1,7,1023,157,2
0,2,1023,1023,2
0,5,205,247,2
8,15,1023,730,2
0,5,261,820,2
1,6,26,258,2
0,5,978,241,2
1,6,497,163,2
2,8,1023,563,2
2,9,1023,1023,2
0,6,173,475,2
0,4,797,1023,2
0,4,689,75,2
0,5,468,79,2
0,6,660,342,2
8,15,1023,607,2
0,5,497,691,2
8,14,1023,1023,2
3,9,1023,483,2
3,9,139,765,2
5,11,1023,1023,2
0,6,25,145,2
0,2,1023,801,2
5,10,671,146,2
3,8,1023,852,2
4,9,204,252,2
0,5,446,585,2
14,20,1023,1023,2
0,6,17,215,2
10,15,1023,819,2
0,6,1023,670,2
3,9,381,917,2
0,4,1023,400,2
8,13,1023,414,2
0,5,1023,1023,2
6,10,654,1023,2
0,4,1023,838,2
2,7,578,186,2
3,8,1023,630,2
0,5,242,51,2
0,6,795,313,2
15,21,1023,63,2
0,5,652,135,2
0,6,352,106,2
0,6,155,273,2
0,5,595,233,2
0,5,971,140,2
5,11,974,560,2
0,5,101,861,2
0,1,1023,909,2
0,1,1023,215,2
2,7,259,748,2
3,9,1023,1023,2
1,7,225,134,2
6,13,1023,913,2
7,13,1023,702,2
0,5,1023,606,2
0,5,380,239,2
0,6,1023,342,2
0,5,583,706,2
0,2,1023,1023,2
0,5,822,27,2
8,14,1023,748,2
3,9,241,172,2
14,19,1023,935,2
3,9,1023,806,2
1,7,1023,20,2
2,8,1023,1023,2
6,12,1023,594,2
0,2,1023,227,2
1,7,798,1023,2
0,5,657,475,2
1,7,488,141,2
1,7,165,583,2
4,10,741,886,2
0,4,826,469,2
1,7,55,602,2
11,17,1023,528,2
0,5,254,746,2
24,30,1023,1023,2
3,9,261,78,2
0,5,915,315,2
0,5,342,256,2
0,5,632,173,2
1,6,423,126,2
0,6,597,182,2
1,6,197,60,2
0,5,422,38,2
1,6,16,3,2
0,6,351,243,2
1,6,23,5,2
1,6,55,237,2
0,6,373,322,2
0,5,482,656,2
1,7,44,85,2
0,6,532,388,2
1,6,368,261,2
0,5,962,1003,2
1,7,535,186,2
1,6,348,116,2
0,6,96,499,2
0,5,995,356,2
0,5,744,466,2
1,7,199,373,2
0,6,736,49,2
1,7,15,8,2
0,6,480,345,2
1,6,68,151,2
0,6,322,281,2
0,6,112,174,2
1,6,108,123,2
1,6,81,25,2
0,6,105,237,2
1,6,63,126,2
0,2,1023,577,2
0,5,429,308,2
0,5,857,733,2
1,7,214,315,2
0,6,451,377,2
1,6,196,436,2
1,7,17,59,2
1,6,117,258,2
1,6,41,2,2
1,6,99,7,2
0,6,124,176,2
0,6,53,318,2
0,5,712,430,2
2,7,36,8,2
1,6,79,389,2
0,5,644,221,2
0,6,317,543,2
0,6,245,103,2
0,5,428,699,2
1,6,476,76,2
1,6,137,75,2
1,7,47,42,2
1,6,384,3,2
0,6,112,162,2
0,6,105,436,2
0,6,302,55,2
1,6,0,183,2
0,6,184,170,2
0,6,201,63,2
0,6,250,475,2
0,5,675,670,2
1,7,207,357,2
1,6,251,229,2
1,7,3,63,2
0,6,178,290,2
1,6,177,81,2
0,6,611,248,2
1,7,345,7,2
1,7,35,100,2
0,6,232,206,2
1,6,403,220,2
0,6,566,348,2
0,6,707,82,2
1,6,505,306,2
1,6,104,260,2
1,6,352,245,2
1,6,101,310,2
1,6,163,137,2
0,6,190,334,2
1,6,277,108,2
1,6,319,9,2
1,6,127,24,2
0,6,89,317,2
0,6,23,60,2
0,6,311,353,2
1,6,212,185,2
1,6,115,110,2
0,5,319,870,2
1,7,91,73,2
1,7,61,67,2
1,6,98,126,2
1,6,296,11,2
0,6,464,249,2
0,6,500,241,2
1,7,326,108,2
1,6,113,176,2
1,6,150,259,2
1,7,135,137,2
1,6,114,218,2
1,6,0,80,2
1,6,400,207,2
0,6,0,166,2
1,7,87,37,2
1,6,271,31,2
0,6,0,414,2
0,6,350,178,2
1,7,138,286,2
0,6,479,354,2
1,6,0,42,2
1,7,5,63,2
0,6,618,184,2
1,7,162,120,2
0,5,917,749,2
2,7,53,45,2
1,7,252,67,2
0,6,298,112,2
0,6,249,501,2
1,6,115,429,2
1,6,138,128,2
1,6,104,3,2
0,6,131,277,2
0,5,605,553,2
0,6,23,537,2
0,6,245,226,2
0,6,195,223,2
1,6,288,137,2
1,6,79,336,2
1,6,345,26,2
0,6,158,408,2
0,6,101,286,2
1,6,344,101,2
1,6,422,47,2
1,6,302,204,2
1,6,358,108,2
1,6,13,15,2
0,6,0,308,2
0,6,117,212,2
1,6,43,180,2
1,6,196,93,2
1,6,420,59,2
1,6,29,18,2
0,6,464,139,2
0,6,541,728,2
1,7,0,133,2
1,6,359,194,2
1,6,0,35,2
0,5,260,698,2
1,7,56,31,2
0,6,67,425,2
1,6,293,3,2
1,7,51,92,2
1,6,106,149,2
0,6,22,25,2
1,6,95,133,2
1,6,130,141,2
0,6,449,92,2
0,6,576,414,2
1,6,249,360,2
1,6,80,144,2
1,6,346,20,2
0,6,50,189,2
0,5,748,26,2
2,7,0,86,2
0,6,523,147,2
0,6,311,348,2
0,6,332,182,2
1,7,168,6,2
1,6,146,113,2
1,6,110,428,2
1,6,243,242,2
1,6,9,258,2
1,6,234,150,2
1,6,147,82,2
0,6,0,40,2
0,5,729,49,2
1,7,173,267,2
1,6,210,180,2
1,6,0,348,2
0,6,97,755,2
1,6,194,430,2
0,6,245,475,2
0,6,318,248,2
1,6,65,182,2
1,6,162,3,2
1,6,27,13,2
1,6,93,96,2
1,6,91,52,2
0,6,84,55,2
1,6,35,12,2
1,6,19,113,2
0,6,361,37,2
0,6,644,42,2
0,6,11,417,2
0,6,79,41,2
1,6,147,2,2
0,6,9,137,2
1,6,69,1,2
1,6,110,7,2
1,6,37,139,2
1,6,25,44,2
0,6,62,72,2
1,6,46,42,2
1,6,13,70,2
0,6,347,164,2
1,6,14,50,2
0,6,319,248,2
1,7,162,58,2
1,6,260,181,2
1,6,69,101,2
1,7,4,82,2
0,6,34,306,2
1,6,17,97,2
0,5,1,304,2
0,6,45,122,2
0,5,57,77,2
0,5,63,52,2
0,5,15,419,2
0,6,9,170,2
1,6,172,27,2
1,7,58,36,2
6,11,194,233,2
2,8,58,236,2
1,6,480,83,2
1,6,17,127,2
0,6,413,317,2
1,6,184,273,2
1,7,0,223,2
0,6,306,227,2
1,7,57,157,2
0,6,279,310,2
0,6,73,611,2
0,5,26,223,2
0,6,45,20,2
0,6,83,64,2
0,6,0,207,2
0,6,49,9,2
1,6,223,7,2
1,6,158,10,2
0,6,342,248,2
1,6,186,151,2
1,7,0,130,2
0,6,110,188,2
1,6,129,170,2
0,6,213,380,2
0,6,48,215,2
1,6,96,6,2
4,10,82,13,2
1,7,0,185,2
1,6,13,21,2
1,6,53,255,2
0,6,427,6,2
0,6,107,541,2
0,6,499,41,2
0,6,341,487,2
1,7,131,108,2
1,6,230,60,2
1,6,0,22,2
0,6,127,164,2
1,6,7,68,2
1,6,0,183,2
0,6,138,176,2
1,6,274,54,2
1,6,10,70,2
1,6,82,119,2
0,6,146,203,2
0,6,612,16,2
0,6,265,449,2
0,6,524,105,2
1,6,617,76,2
0,6,100,731,2
1,7,330,167,2
0,6,449,649,2
1,6,1,336,2
1,6,107,143,2
1,6,303,102,2
0,6,369,125,2
0,6,519,66,2
1,6,271,181,2
1,7,316,350,2
0,6,537,341,2
0,6,232,571,2
0,6,472,281,2
0,7,188,434,2
0,6,131,631,2
1,6,157,313,2
0,6,473,385,2
0,6,403,496,2
0,6,531,669,2
1,7,112,16,2
0,6,652,464,2
0,6,598,73,2
1,6,629,63,2
0,5,360,854,2
1,7,283,553,2
1,7,574,12,2
0,5,705,692,2
0,6,692,16,2
0,5,620,909,2
1,6,831,316,2
1,7,160,246,2
0,6,373,708,2
1,6,357,51,2
0,5,389,978,2
2,8,1023,246,2
1,7,374,524,2
10,16,1023,369,2
0,5,24,645,2
5,10,1023,64,2
0,5,171,394,2
0,5,743,9,2
1,6,712,76,2
1,7,218,118,2
0,5,1023,4,2
2,7,504,4,2
9,15,1023,3,2
0,5,230,818,2
0,3,1023,498,2
0,6,49,558,2
1,7,962,31,2
0,6,470,13,2
0,6,451,595,2
0,6,506,525,2
0,3,1014,1023,2
0,6,464,632,2
1,7,112,172,2
0,5,513,711,2
1,7,104,508,2
1,7,219,173,2
1,7,167,69,2
0,6,292,553,2
1,7,540,47,2
1,7,337,238,2
1,7,62,64,2
1,7,368,30,2
0,6,1023,8,2
1,7,262,50,2
0,6,117,582,2
0,6,498,591,2
1,6,302,295,2
0,6,310,598,2
2,7,262,43,2
0,6,790,514,2
0,6,1023,480,2
5,11,1023,804,2
0,5,671,1023,2
10,15,1023,278,2
0,6,176,93,2
0,5,207,114,2
0,3,1023,1023,2
1,7,401,426,2
0,5,804,656,2
8,15,1023,869,2
0,5,358,762,2
7,12,1023,1023,2
7,12,651,100,2
0,5,703,665,2
0,5,953,366,2
0,5,426,133,2
8,14,1023,444,2
0,5,894,755,2
0,5,905,288,2
10,15,616,1023,2
0,4,881,202,2
0,6,312,203,2
0,6,413,215,2
0,6,604,128,2
0,5,915,873,2
1,7,272,62,2
0,6,132,596,2
1,6,0,136,2
0,6,626,263,2
0,5,824,646,2
0,6,1023,618,2
6,11,1023,884,2
0,5,588,22,2
20,25,1023,1023,2
2,9,313,757,2
11,17,1023,397,2
0,5,480,452,2
9,14,1023,865,2
0,6,951,877,2
0,5,671,444,2
0,1,679,1023,2
0,5,658,259,2
0,2,1023,41,2
0,5,340,1023,2
0,5,40,216,2
0,5,802,839,2
1,7,283,97,2
0,5,1023,300,2
2,7,131,375,2
8,13,1023,384,2
3,10,1023,461,2
0,6,101,105,2
0,5,761,263,2
0,5,621,452,2
1,6,264,70,2
7,12,1023,537,2
0,4,1023,764,2
0,5,361,423,2
0,5,596,240,2
0,6,740,193,2
1,7,293,165,2
1,6,140,30,2
9,15,1023,687,2
0,1,1023,167,2
0,5,148,456,2
0,5,425,700,2
0,6,339,175,2
1,6,233,223,2
0,5,725,515,2
1,7,325,137,2
5,11,576,614,2
0,5,128,2,2
0,6,470,179,2
0,5,991,365,2
0,6,959,197,2
0,5,235,854,2
1,7,372,39,2
0,6,396,123,2
0,5,943,732,2
0,6,302,484,2
0,5,206,129,2
0,6,166,406,2
4,11,1023,561,2
0,3,1023,161,2
0,5,584,481,2
0,7,26,803,2
15,20,1023,867,2
0,5,971,31,2
0,5,972,338,2
0,6,344,461,2
11,18,1023,836,2
4,10,1023,184,2
0,5,77,663,2
0,6,45,8,2
0,6,216,88,2
1,7,466,43,2
0,5,1023,448,2
0,5,984,628,2
0,5,667,875,2
0,5,230,152,2
0,4,623,634,2
1,6,398,471,2
1,6,451,383,2
1,7,29,254,2
15,20,304,938,2
0,5,697,559,2
0,5,608,245,2
10,15,811,847,2
5,10,863,505,2
0,5,171,263,2
0,5,917,1023,2
2,8,124,61,2
0,5,1023,623,2
2,7,0,274,2
0,6,163,1023,2
5,10,986,384,2
0,6,11,191,2
0,6,530,435,2
1,7,259,196,2
1,7,740,708,2
0,5,1023,456,2
0,5,62,511,2
0,5,255,377,2
0,5,825,500,2
2,7,21,125,2
15,21,1023,660,2
0,5,97,66,2
0,5,912,776,2
1,7,23,352,2
0,6,674,36,2
1,7,93,114,2
1,6,109,16,2
0,5,900,755,2
2,7,157,88,2
0,6,549,149,2
1,6,317,9,2
0,6,562,759,2
1,7,468,92,2
1,7,306,130,2
0,6,539,41,2
0,6,42,77,2
1,7,188,185,2
0,6,435,400,2
1,7,89,370,2
1,7,134,302,2
0,6,898,110,2
2,7,103,163,2
1,6,297,225,2
0,6,304,190,2
0,5,526,563,2
1,7,24,17,2
3,8,1023,572,2
1,7,95,161,2
1,6,352,140,2
0,6,713,282,2
1,6,309,3,2
1,6,2,198,2
1,6,136,98,2
0,6,416,75,2
1,6,378,39,2
0,6,342,150,2
1,7,267,172,2
1,7,0,115,2
0,6,279,342,2
1,6,336,40,2
1,6,235,266,2
0,6,72,345,2
0,6,509,486,2
1,7,282,260,2
0,6,800,254,2
1,7,387,315,2
0,6,507,595,2
0,5,1023,319,2
0,5,561,166,2
0,6,690,160,2
0,6,535,524,2
0,5,846,453,2
1,7,261,227,2
1,7,7,221,2
0,6,339,84,2
1,6,29,50,2
0,5,424,675,2
1,7,24,264,2
1,6,35,106,2
1,6,37,18,2
1,6,157,32,2
1,6,295,156,2
1,6,252,45,2
1,6,133,20,2
0,6,506,273,2
1,7,27,95,2
0,5,646,653,2
1,7,91,377,2
1,7,231,206,2
1,6,294,188,2
1,6,119,222,2
0,6,194,206,2
0,5,638,373,2
1,7,125,65,2
1,6,495,118,2
1,6,616,412,2
0,6,750,382,2
0,6,784,691,2
0,6,231,361,2
0,6,259,302,2
1,6,203,104,2
0,6,46,10,2
1,6,86,105,2
0,6,301,251,2
1,6,145,109,2
1,6,56,30,2
0,6,575,229,2
1,6,48,146,2
0,6,484,338,2
1,7,12,220,2
1,6,262,113,2
0,6,0,252,2
0,6,557,459,2
1,6,324,167,2
1,6,174,195,2
1,6,9,24,2
1,6,52,164,2
0,6,31,196,2
1,6,51,182,2
0,6,0,46,2
1,6,153,25,2
1,6,199,208,2
1,6,47,16,2
1,6,178,81,2
1,6,86,45,2
0,6,291,94,2
0,6,101,296,2
1,6,147,137,2
0,6,479,444,2
0,6,184,459,2
0,6,552,204,2
0,5,251,1023,2
1,7,494,387,2
1,7,194,325,2
1,6,231,55,2
0,6,525,523,2
0,6,529,397,2
1,7,41,220,2
1,6,91,299,2
1,6,149,137,2
0,6,182,426,2
0,6,527,426,2
1,7,511,51,2
0,6,49,525,2
0,6,595,263,2
1,7,145,147,2
0,6,59,501,2
1,6,34,323,2
1,6,122,199,2
1,6,376,115,2
1,6,375,49,2
0,5,697,744,2
1,7,374,691,2
1,7,561,226,2
1,7,40,277,2
0,6,362,67,2
0,6,341,40,2
1,6,115,68,2
0,6,487,234,2
1,7,123,174,2
0,6,438,474,2
1,6,88,233,2
0,6,7,355,2
0,6,84,383,2
1,6,43,80,2
1,6,59,138,2
1,6,121,52,2
1,6,45,1,2
0,6,40,15,2
0,6,27,142,2
1,6,65,24,2
0,6,389,10,2
1,6,205,54,2
0,6,205,736,2
0,5,707,214,2
0,7,307,397,2
1,7,447,96,2
1,6,45,195,2
1,6,4,13,2
0,6,51,453,3
1,6,9,25,3
1,6,104,3,3
1,6,128,82,3
1,6,247,18,3
1,6,63,108,3
0,6,319,416,3
1,7,9,314,3
1,6,347,175,3
1,7,106,57,3
1,6,85,231,3
0,6,348,176,3
0,6,383,84,3
1,6,215,26,3
1,6,262,12,3
0,6,428,82,3
1,6,116,29,3
0,6,622,236,3
1,6,140,455,3
0,6,644,78,3
1,7,266,48,3
1,6,100,43,3
0,6,187,94,3
0,6,194,234,3
0,5,27,1023,3
1,6,296,35,3
0,6,29,133,3
1,6,345,2,3
1,6,238,208,3
1,6,317,82,3
0,6,207,400,3
0,6,294,17,3
1,6,425,238,3
0,6,219,8,3
1,7,255,120,3
0,6,72,243,3
1,6,22,182,3
1,6,214,180,3
0,5,157,85,3
0,5,86,231,3
0,6,67,361,3
1,6,176,229,3
1,6,35,261,3
1,7,242,366,3
4,10,72,6,3
1,7,115,379,3
1,7,0,10,3
1,7,159,10,3
0,6,9,15,3
1,6,88,117,3
1,6,91,146,3
0,6,37,122,3
0,6,54,95,3
0,5,113,90,3
2,8,176,222,3
0,6,23,208,3
0,6,339,233,3
0,5,186,128,3
1,7,41,126,3
1,7,90,143,3
0,4,50,161,3
0,5,150,5,3
0,6,252,355,3
1,6,133,429,3
0,6,315,664,3
1,7,5,323,3
1,6,102,41,3
0,6,126,257,3
0,6,80,185,3
1,6,41,75,3
1,7,6,99,3
0,6,176,180,3
0,6,97,185,3
1,7,45,95,3
1,6,39,87,3
1,7,16,69,3
0,6,112,108,3
1,7,82,43,3
0,6,27,4,3
0,5,100,46,3
3,9,315,62,3
2,7,82,97,3
0,5,249,91,3
2,7,109,0,3
1,7,97,213,3
0,6,227,248,3
1,6,111,196,3
0,6,326,163,3
1,6,0,153,3
1,7,241,70,3
1,7,259,85,3
0,6,537,264,3
1,6,200,83,3
0,6,592,54,3
0,6,315,372,3
1,6,338,214,3
1,6,122,137,3
0,5,85,610,3
0,6,285,536,3
0,6,437,408,3
0,6,8,782,3
1,7,257,68,3
0,5,399,893,3
1,7,46,422,3
1,7,210,85,3
0,6,181,513,3
0,6,846,436,3
1,6,623,299,3
1,6,720,244,3
0,6,37,639,3
0,6,539,882,3
1,6,724,112,3
0,6,249,882,3
1,7,677,143,3
0,6,431,973,3
1,6,399,500,3
0,6,338,1023,3
1,6,392,565,3
1,7,430,202,3
1,6,322,652,3
0,6,825,116,3
1,7,0,378,3
1,6,234,68,3
0,6,238,74,3
0,6,386,454,3
2,8,1023,331,3
0,6,710,271,3
5,11,1023,24,3
0,5,786,867,3
0,5,1023,113,3
4,10,1023,556,3
0,5,515,977,3
1,7,1023,397,3
0,4,1023,258,3
3,8,1023,464,3
0,2,1023,346,3
1,7,1023,594,3
0,1,1023,615,3
3,8,1023,701,3
1,7,1023,849,3
3,9,1023,117,3
0,5,773,895,3
6,11,1023,214,3
0,6,639,325,3
3,9,1023,85,3
0,6,219,712,3
14,20,1023,313,3
0,2,258,1023,3
0,2,1023,640,3
0,5,398,1023,3
13,18,1023,360,3
1,6,831,80,3
6,12,1023,619,3
0,5,288,817,3
0,6,718,176,3
1,6,218,82,3
1,7,254,490,3
1,7,566,232,3
0,5,678,1023,3
11,17,348,1023,3
1,6,766,834,3
21,25,1023,964,3
4,10,879,156,3
5,10,1023,955,3
0,2,1023,14,3
3,9,1023,324,3
5,11,1023,483,3
2,7,168,257,3
5,10,1023,523,3
0,3,1023,1023,3
0,5,402,675,3
21,27,1023,1023,3
0,0,1023,1023,3
6,12,89,417,3
1,6,1023,987,3
2,8,557,593,3
7,12,1023,489,3
0,3,1023,1023,3
0,6,130,152,3
6,11,1023,857,3
3,8,804,2,3
0,5,584,418,3
0,5,598,713,3
0,5,437,943,3
1,6,491,161,3
0,6,96,454,3
5,11,1023,764,3
3,9,1023,450,3
0,5,158,105,3
0,3,1023,692,3
0,5,444,592,3
5,11,1023,830,3
2,7,174,102,3
0,4,1007,530,3
1,7,0,118,3
1,6,11,155,3
0,5,955,81,3
2,7,350,128,3
1,6,45,396,3
0,5,286,564,3
0,6,301,358,3
0,6,505,520,3
0,5,1023,887,3
2,7,336,121,3
0,6,404,956,3
0,5,1023,581,3
0,5,440,643,3
0,5,1023,960,3
0,3,1023,517,3
0,5,265,201,3
0,5,484,410,3
0,5,402,417,3
0,6,142,357,3
0,5,304,445,3
2,8,747,248,3
0,2,1023,17,3
0,5,306,961,3
0,5,917,502,3
0,6,391,568,3
0,5,482,820,3
1,6,607,99,3
1,7,28,146,3
1,6,324,96,3
1,7,104,67,3
1,7,81,21,3
1,7,194,333,3
0,6,812,4,3
2,7,418,100,3
2,7,522,164,3
4,10,1023,401,3
0,5,594,18,3
0,5,127,398,3
0,5,179,80,3
0,5,825,472,3
0,5,957,1017,3
0,6,967,314,3
0,6,257,673,3
0,2,1023,1023,3
1,6,507,880,3
0,5,1023,538,3
0,5,604,141,3
0,6,152,521,3
0,6,233,201,3
0,6,190,433,3
0,6,413,219,3
0,5,653,796,3
2,7,214,230,3
0,5,1023,783,3
12,18,1023,3,3
0,5,626,514,3
0,5,1023,700,3
12,18,1023,85,3
0,6,510,1010,3
0,5,389,436,3
1,7,274,148,3
9,14,906,552,3
7,13,1023,541,3
0,1,1023,322,3
0,5,241,378,3
0,5,899,946,3
9,15,1023,416,3
0,5,222,532,3
0,2,1023,774,3
0,5,407,47,3
0,5,412,469,3
1,6,209,256,3
0,5,567,99,3
0,5,732,110,3
1,6,273,457,3
0,5,1023,507,3
0,5,429,355,3
0,5,502,178,3
0,6,336,519,3
0,6,849,78,3
1,7,522,19,3
0,6,754,94,3
7,14,1023,679,3
0,6,914,4,3
0,5,874,565,3
1,6,629,71,3
0,6,360,341,3
2,7,593,425,3
1,6,634,77,3
1,7,253,117,3
0,6,413,284,3
0,6,806,197,3
0,6,382,793,3
0,5,906,496,3
1,7,267,370,3
1,6,487,66,3
0,5,918,324,3
1,7,97,13,3
0,6,217,378,3
1,7,232,95,3
0,5,1023,172,3
2,7,3,59,3
0,6,403,130,3
1,6,214,192,3
1,6,575,235,3
1,7,39,84,3
0,6,526,404,3
1,7,313,95,3
1,6,365,126,3
0,6,488,349,3
0,5,891,768,3
1,6,67,422,3
0,6,108,134,3
0,5,408,285,3
1,6,217,73,3
1,6,757,27,3
1,6,309,65,3
1,6,184,67,3
1,6,231,38,3
0,7,121,121,3
0,6,159,117,3
1,7,221,193,3
1,7,202,125,3
0,6,399,262,3
1,6,197,36,3
0,6,212,8,3
0,6,137,525,3
1,7,157,17,3
0,6,688,164,3
1,6,105,26,3
0,6,115,558,3
1,6,0,65,3
1,6,53,89,3
0,6,625,439,3
1,7,263,2,3
0,6,370,341,3
1,6,0,192,3
1,6,442,167,3
1,6,290,126,3
0,6,505,356,3
1,7,104,245,3
0,6,103,185,3
1,6,9,8,3
0,6,221,161,3
1,6,216,75,3
0,6,286,421,3
1,7,15,104,3
0,6,524,7,3
0,6,595,439,3
0,6,539,61,3
0,5,910,850,3
2,7,135,189,3
1,7,120,45,3
1,7,185,42,3
1,6,211,162,3
1,6,41,54,3
0,6,147,444,3
1,6,2,80,3
1,6,25,232,3
0,6,390,266,3
1,7,122,138,3
0,6,420,220,3
1,6,59,98,3
1,6,169,116,3
1,6,191,114,3
1,6,110,196,3
1,6,336,11,3
0,5,755,219,3
1,7,217,430,3
1,7,60,140,3
0,6,7,232,3
1,6,73,107,3
1,6,305,82,3
1,6,209,44,3
0,6,22,494,3
0,6,508,36,3
1,6,84,149,3
0,6,814,192,3
1,7,149,163,3
0,6,576,241,3
1,7,283,311,3
1,6,14,37,3
1,6,108,56,3
1,7,363,41,3
0,6,158,316,3
0,6,116,363,3
0,6,455,242,3
1,6,453,154,3
1,7,102,154,3
0,6,521,312,3
1,7,175,96,3
1,6,159,113,3
0,6,452,14,3
1,7,48,74,3
1,6,137,309,3
1,6,62,50,3
1,6,82,64,3
0,6,135,244,3
1,6,303,14,3
1,6,193,240,3
0,6,274,463,3
0,6,288,488,3
1,7,151,77,3
1,6,218,3,3
0,6,152,682,3
1,7,110,138,3
0,7,116,275,3
0,6,175,287,3
1,7,60,2,3
0,6,144,325,3
1,6,165,1,3
1,6,147,139,3
0,6,899,127,3
1,7,360,195,3
0,6,449,64,3
0,6,284,216,3
0,6,142,430,3
0,6,601,287,3
1,7,225,175,3
0,6,549,743,3
1,7,176,233,3
0,5,860,347,3
1,7,48,400,3
0,6,423,561,3
1,6,399,238,3
1,7,129,113,3
1,6,619,56,3
1,6,47,183,3
0,5,250,524,3
1,6,125,135,3
1,6,17,127,3
0,6,54,13,3
0,6,106,53,3
1,6,82,8,3
1,6,48,134,3
1,6,85,21,3
0,6,616,100,3
1,6,282,60,3
1,6,207,98,3
0,5,788,574,3
0,6,1023,357,3
0,5,9,391,3
0,5,966,40,3
1,7,176,436,3
1,7,70,36,3
1,6,363,143,3
1,6,123,162,3
1,6,85,186,3
0,6,12,65,3
1,6,6,388,3
1,6,75,238,3
1,7,11,244,3
1,7,29,216,3
1,6,0,282,3
0,6,91,211,3
1,6,375,40,3
1,6,174,195,3
0,5,1023,255,3
2,7,20,201,3
1,7,674,342,3
0,6,221,302,3
0,5,674,406,3
0,6,321,313,3
1,6,51,337,3
0,6,145,389,3
1,6,103,139,3
0,6,50,4,3
1,6,20,95,3
0,6,0,80,3
1,6,57,27,3
0,6,0,187,3
0,6,70,51,3
0,5,311,775,3
0,5,328,579,3
0,5,133,215,3
0,6,62,152,3
0,6,608,405,3
1,6,192,441,3
1,7,81,140,3
0,6,39,428,3
0,6,101,228,3
1,6,206,67,3
1,7,110,156,3
2,8,19,288,3
0,6,0,155,3
1,6,10,81,3
4,10,24,35,3
0,5,22,172,3
0,5,14,232,3
0,6,0,354,3
0,6,140,183,3
1,6,0,62,3
1,6,0,1,3
1,7,0,14,3
0,6,94,143,3
0,6,92,185,3
0,6,214,481,3
1,6,8,185,3
1,6,206,105,3
0,6,169,383,3
1,7,161,1,3
0,6,182,18,3
0,5,274,96,3
1,7,137,21,3
1,6,110,174,3
0,6,29,104,3
0,6,79,267,3
1,6,7,108,3
0,6,6,593,3
0,6,171,56,3
0,6,177,469,3
1,7,0,208,3
0,6,256,131,3
1,6,64,25,3
4,9,483,80,3
1,7,121,31,3
2,8,68,275,3
2,7,132,84,3
1,7,23,29,3
1,6,192,1,3
1,6,63,150,3
1,6,103,38,3
0,6,160,366,3
1,6,466,5,3
0,6,113,480,3
0,6,573,147,3
0,6,104,754,3
1,6,579,230,3
1,7,6,140,3
0,6,197,572,3
1,7,159,84,3
0,7,27,270,3
0,6,122,251,3
1,7,283,13,3
0,6,168,437,3
0,6,90,336,3
1,6,32,147,3
1,7,0,71,3
1,6,75,127,3
0,6,149,349,3
1,6,116,190,3
0,6,161,323,3
0,6,67,459,3
1,6,226,219,3
1,7,142,135,3
1,6,333,129,3
0,6,305,308,3
0,6,934,386,3
1,7,503,317,3
4,10,1023,809,3
0,5,179,210,3
0,6,441,478,3
0,6,306,724,3
8,14,79,1023,3
0,5,203,292,3
0,6,386,167,3
0,5,438,404,3
0,6,583,342,3
1,6,82,513,3
5,11,1023,201,3
0,5,231,735,3
0,5,1011,815,3
1,7,6,517,3
0,6,737,517,3
1,7,264,16,3
0,6,643,101,3
1,7,121,315,3
0,6,563,30,3
0,6,269,718,3
0,6,257,693,3
0,6,211,832,3
0,5,370,366,3
0,6,378,193,3
0,6,112,625,3
3,9,460,73,3
0,5,81,667,3
0,5,685,627,3
5,11,323,125,3
0,5,363,324,3
0,6,99,635,3
4,9,141,16,3
4,11,1023,439,3
0,5,16,660,3
0,4,1023,27,3
1,7,177,1023,3
0,5,1023,547,3
0,6,238,931,3
7,13,1023,117,3
1,7,1023,1023,3
0,1,1023,436,3
3,9,1023,64,3
1,7,434,812,3
3,9,1023,143,3
0,5,251,290,3
0,6,329,106,3
1,6,837,47,3
1,7,264,112,3
1,6,297,171,3
0,5,1023,650,3
1,6,719,36,3
3,9,1023,634,3
0,5,63,402,3
0,5,257,348,3
1,7,236,342,3
1,7,262,80,3
1,7,282,73,3
3,8,979,356,3
0,3,1023,105,3
8,14,1023,328,3
0,5,953,131,3
0,6,365,238,3
0,5,995,464,3
13,18,1023,412,3
0,2,1023,848,3
0,6,51,730,3
9,15,1023,282,3
0,5,787,345,3
8,13,1023,628,3
2,8,1023,912,3
0,5,560,267,3
7,13,1023,301,3
4,10,518,104,3
0,3,1023,154,3
4,9,1023,690,3
0,5,1023,556,3
1,7,1023,515,3
0,4,1023,481,3
1,6,1005,566,3
0,5,315,71,3
12,18,1023,502,3
0,3,1023,613,3
0,5,721,54,3
0,4,1023,530,3
1,7,788,586,3
13,18,1023,644,3
3,9,803,310,3
4,10,1023,984,3
2,7,965,22,3
0,5,369,674,3
0,5,0,215,3
0,6,491,4,3
1,6,450,27,3
11,16,1023,428,3
0,5,771,148,3
0,3,1023,641,3
0,5,673,231,3
11,17,1023,1023,3
0,1,1023,569,3
11,17,1023,1023,3
12,18,1006,453,3
9,14,1023,892,3
1,6,1023,24,3
1,7,1023,801,3
0,2,1023,308,3
0,5,156,374,3
0,5,41,353,3
0,5,427,848,3
1,6,166,289,3
0,6,124,500,3
1,6,543,93,3
1,6,493,329,3
0,5,699,322,3
0,5,844,312,3
1,6,433,332,3
2,7,98,26,3
0,6,613,156,3
0,6,749,311,3
1,7,342,61,3
1,6,0,78,3
0,5,848,356,3
0,6,945,270,3
0,6,181,302,3
0,5,783,83,3
0,7,171,603,3
1,6,311,317,3
1,7,49,181,3
0,6,827,32,3
0,5,835,6,3
0,6,723,532,3
1,7,1012,189,3
8,13,1023,456,3
2,7,1023,137,3
0,5,307,714,3
4,9,1023,633,3
0,6,1023,129,3
0,5,850,838,3
18,23,1023,491,3
2,7,830,694,3
0,5,362,446,3
1,7,76,370,3
0,6,242,226,3
10,17,1023,602,3
0,6,347,465,3
10,15,1023,689,3
0,6,108,475,3
14,20,1023,449,3
0,2,1023,65,3
0,6,79,521,3
1,5,542,121,3
0,2,1023,31,3
0,5,395,449,3
16,22,1023,740,3
0,6,1023,666,3
1,7,581,65,3
0,5,225,622,3
0,6,0,470,3
0,6,140,566,3
16,22,1023,468,3
0,1,1023,511,3
0,6,641,725,3
9,15,1023,920,3
0,5,264,592,3
3,9,1023,826,3
7,13,1023,550,3
2,7,626,374,3
0,5,1023,434,3
0,5,935,54,3
0,6,61,821,3
1,7,560,49,3
0,6,513,600,3
0,6,769,229,3
1,7,205,181,3
1,7,37,73,3
0,5,820,329,3
0,6,637,518,3
1,7,167,210,3
0,6,245,335,3
0,6,572,222,3
0,6,714,532,3
0,6,684,518,3
16,20,823,367,3
0,3,1023,49,3
0,6,179,645,3
0,5,841,425,3
1,6,507,15,3
0,6,485,25,3
0,5,840,65,3
1,7,133,336,3
0,6,866,102,3
0,6,500,855,3
0,5,1023,344,3
0,6,640,61,3
0,6,642,217,3
0,4,1023,15,3
0,5,680,345,3
0,5,96,258,3
0,6,382,69,3
0,6,12,159,3
0,6,549,109,3
0,5,999,227,3
1,7,140,234,3
1,6,244,16,3
0,6,83,687,3
1,7,126,57,3
9,15,911,553,3
0,5,384,24,3
0,6,830,204,3
0,7,254,79,3
1,7,95,283,3
0,2,1023,329,3
5,10,873,444,3
9,14,1023,29,3
0,6,203,321,3
0,5,592,172,3
0,5,583,376,3
1,7,35,545,3
0,5,815,512,3
0,6,960,506,3
1,6,388,352,3
0,6,704,468,3
1,7,1023,366,3
0,5,759,478,3
0,5,173,216,3
0,5,437,761,3
1,7,419,122,3
12,18,1023,434,3
0,7,662,690,3
0,5,1023,324,3
2,7,18,193,3
0,6,653,202,3
14,18,1023,70,3
0,5,610,36,3
10,16,1023,934,3
0,5,117,278,3
5,11,1023,482,3
0,6,740,290,3
0,5,732,89,3
0,5,87,29,3
0,6,638,267,3
0,6,424,157,3
1,6,418,228,3
1,6,219,156,3
1,6,251,71,3
1,6,207,80,3
0,5,645,109,3
1,7,205,306,3
1,6,181,81,3
0,5,921,103,3
0,5,243,110,3
0,6,64,362,3
0,6,359,62,3
1,7,52,218,3
1,6,52,143,3
0,6,379,233,3
0,6,238,301,3
1,6,219,215,3
1,6,149,173,3
0,6,117,81,3
1,6,349,4,3
0,6,1023,514,3
1,6,773,82,3
0,5,874,453,3
1,7,324,460,3
1,7,240,23,3
0,6,582,259,3
1,6,87,191,3
1,6,77,119,3
0,6,210,220,3
0,6,505,350,3
1,7,147,367,3
1,6,243,318,3
1,6,174,191,3
0,6,480,172,3
1,7,235,40,3
1,6,188,341,3
0,5,794,578,3
1,7,242,70,3
1,7,98,100,3
1,6,347,12,3
1,6,276,183,3
0,6,149,366,3
1,6,211,32,3
0,6,202,497,3
1,6,220,97,3
1,6,416,185,3
0,6,308,554,3
1,6,400,85,3
0,6,374,616,3
1,7,204,182,3
1,6,30,135,3
0,6,325,134,3
0,6,725,442,3
0,6,522,143,3
1,6,129,359,3
1,6,399,229,3
0,6,113,26,3
0,6,375,617,3
0,6,275,572,3
1,6,288,21,3
1,6,60,434,3
1,6,196,245,3
1,6,387,139,3
1,6,120,99,3
0,6,468,177,3
1,6,83,120,3
0,5,951,806,3
2,8,112,280,3
0,6,707,726,3
1,7,629,587,3
2,7,156,92,3
0,5,1023,317,3
0,5,654,785,3
0,6,278,555,3
1,6,312,468,3
1,7,0,260,3
1,6,261,92,3
0,6,483,327,3
0,6,46,644,3
0,6,460,388,3
1,7,142,9,3
0,6,704,117,3
1,6,504,19,3
0,5,796,390,3
1,7,215,31,3
1,7,6,14,3
0,6,753,244,3
0,6,446,591,3
0,6,202,685,3
1,6,199,36,3
0,6,94,456,3
0,6,92,676,3
1,7,91,43,3
1,6,142,199,3
0,6,393,489,3
1,7,222,42,3
1,6,0,221,3
1,6,433,14,3
1,6,59,27,3
1,7,48,276,3
1,6,5,103,3
0,6,92,131,3
0,5,876,58,3
0,6,533,224,3
1,7,228,2,3
1,6,86,322,3
0,6,528,43,3
1,6,175,80,3
0,6,386,311,3
1,7,89,172,3
1,6,351,106,3
1,6,265,186,3
0,6,365,241,3
0,6,235,341,3
1,7,0,30,3
1,6,328,50,3
0,6,55,155,3
1,6,83,12,3
0,6,69,423,3
0,6,53,194,3
0,6,509,284,3
0,6,207,412,3
1,6,56,109,3
0,6,452,307,3
0,5,923,334,3
1,7,376,176,3
0,6,570,358,3
1,7,95,4,3
0,6,124,329,3
1,6,263,286,3
1,7,136,45,3
0,6,223,111,3
1,6,209,236,3
1,6,75,5,3
0,6,351,176,3
0,6,383,164,3
0,6,327,241,3
1,6,422,127,3
1,7,147,284,3
1,7,78,203,3
1,6,446,216,3
1,7,95,224,3
0,5,486,332,3
0,6,489,52,3
1,6,0,243,3
0,6,272,147,3
0,6,203,249,3
0,6,27,595,3
0,6,79,674,3
1,7,118,12,3
1,6,243,35,3
1,6,211,191,3
0,6,245,467,3
0,6,323,3,3
1,6,103,279,3
0,6,12,230,3
1,6,0,218,3
0,6,5,276,3
0,6,77,326,3
0,6,60,510,3
1,7,408,7,3
0,6,374,655,3
0,5,238,890,3
1,7,297,100,3
1,7,43,369,3
0,6,474,151,3
0,5,57,119,3
1,7,561,406,3
1,7,293,87,3
0,6,306,281,3
0,5,345,229,3
0,5,129,258,3
0,6,110,326,3
0,6,133,211,3
1,6,25,179,3
1,6,37,72,3
1,6,122,245,3
4,10,109,562,3
3,8,50,4,3
1,6,120,125,3
1,6,22,363,3
1,6,285,172,3
1,6,25,152,3
0,7,22,359,3
0,6,0,232,3
1,7,29,127,3
0,5,32,113,3
0,5,24,153,3
0,6,81,56,3
0,6,0,16,3
1,7,0,123,3
1,6,0,2,3
0,6,7,54,3
0,6,23,30,3
1,6,34,30,3
5,11,114,3,3
0,5,372,77,3
1,6,44,45,3
1,6,56,30,3
0,5,21,150,3
0,6,56,195,3
1,6,100,13,3
0,6,59,225,3
1,6,6,51,3
0,6,22,217,3
1,6,0,87,3
1,7,3,153,3
0,6,26,177,3
1,6,43,62,3
3,8,0,1,3
1,7,94,38,3
0,5,41,62,3
0,5,163,64,3
0,6,33,24,3
2,8,94,149,3
1,7,162,58,3
1,6,22,102,3
1,6,277,172,3
1,6,222,70,3
0,6,89,277,3
1,6,50,37,3
1,7,33,72,3
0,6,140,168,3
0,6,293,182,3
0,6,58,364,3
1,6,191,112,3
1,6,119,235,3
1,6,295,109,3
1,6,138,51,3
0,6,184,208,3
1,6,46,2,3
0,6,77,222,3
0,6,615,169,3
0,6,402,691,3
0,5,834,750,3
1,7,591,227,3
0,6,114,1023,3
1,7,560,175,3
1,7,16,94,3
0,6,351,165,3
1,7,39,151,3
0,6,683,76,3
1,6,391,427,3
0,6,687,97,3
0,6,675,73,3
1,7,24,381,3
0,6,732,140,3
0,6,715,605,3
0,6,379,705,3
0,6,672,688,3
9,14,24,1023,3
0,5,441,200,3
0,5,3,1023,3
1,6,270,200,3
0,6,474,812,3
1,7,326,188,3
0,6,617,290,3
1,7,365,163,3
1,6,649,310,3
4,9,1023,604,3
0,5,292,843,3
3,9,1023,585,3
0,6,187,222,3
0,6,809,286,3
1,7,213,439,3
0,5,1023,184,3
0,5,940,426,3
0,5,854,630,3
0,6,960,393,3
0,6,593,715,3
1,6,1012,9,3
0,6,675,686,3
9,15,1023,18,3
0,5,233,182,3
3,9,1023,262,3
0,5,905,537,3
0,4,975,312,3
6,12,1023,566,3
0,6,706,988,3
4,10,1023,265,3
0,5,445,567,3
6,11,1023,622,3
0,6,163,655,3
4,10,1023,531,3
0,6,743,749,3
3,9,1023,369,3
2,7,1023,585,3
3,8,1023,107,3
0,6,682,685,3
7,12,1023,136,3
0,6,65,790,3
5,11,1023,340,3
0,6,218,188,3
5,10,1023,152,3
2,8,107,644,3
9,14,1023,370,3
4,10,298,206,3
6,11,1023,42,3
6,12,458,811,3
11,17,1023,779,3
0,6,670,518,3
3,8,1023,549,3
6,12,785,269,3
8,13,1023,208,3
5,11,169,449,3
9,15,1023,109,3
5,11,103,469,3
3,9,1023,136,3
1,7,970,72,3
0,5,1023,1023,3
4,9,1023,74,3
0,3,1023,286,3
1,7,483,834,3
0,5,825,394,3
0,5,1,1023,3
0,5,418,112,3
0,5,716,33,3
0,6,420,495,3
3,9,958,172,3
0,5,841,293,3
13,19,1023,349,3
1,6,377,666,3
14,20,1023,103,3
1,7,17,385,3
0,5,818,376,3
0,6,759,582,3
1,6,598,22,3
0,5,920,279,3
1,7,39,245,3
1,7,130,60,3
1,6,133,11,3
0,6,485,203,3
1,6,285,161,3
0,5,969,275,3
0,6,901,183,3
0,5,438,387,3
0,5,546,341,3
0,6,0,422,3
0,6,474,183,3
1,6,7,369,3
1,6,122,349,3
0,6,85,302,3
1,6,0,248,3
0,6,459,98,3
1,7,426,170,3
3,8,645,402,3
0,5,918,471,3
0,6,363,168,3
1,6,65,237,3
0,6,644,313,3
1,6,208,4,3
0,5,1023,601,3
1,7,346,577,3
3,8,646,227,3
1,7,153,220,3
0,5,702,161,3
1,7,312,223,3
1,6,303,124,3
1,6,196,30,3
1,7,53,7,3
0,6,294,463,3
1,6,278,272,3
3,8,957,658,3
0,5,219,207,3
4,10,1023,1023,3
0,5,329,573,3
4,10,1023,714,3
0,5,386,303,3
0,5,849,422,3
4,9,1014,803,3
0,5,765,241,3
4,11,1023,1005,3
0,2,1023,439,3
0,5,200,542,3
0,4,695,25,3
0,6,173,478,3
1,6,762,24,3
0,5,628,298,3
1,7,553,401,3
7,12,421,233,3
0,5,1023,496,3
1,7,34,243,3
0,6,493,711,3
1,7,107,25,3
1,7,409,11,3
2,7,140,223,3
0,5,1023,144,3
1,7,407,312,3
1,7,321,112,3
0,5,952,632,3
2,7,416,298,3
1,6,381,92,3
7,13,1023,842,3
0,4,847,38,3
0,6,465,122,3
0,5,1023,29,3
2,7,449,3,3
1,6,323,207,3
0,6,365,549,3
1,6,360,261,3
0,6,0,326,3
0,6,361,332,3
0,6,1023,77,3
1,7,53,287,3
14,19,1023,687,3
0,5,763,293,3
0,5,897,549,3
13,19,1023,699,3
1,6,147,759,3
0,5,951,284,3
0,5,1007,237,3
0,5,305,709,3
0,5,350,32,3
0,5,663,679,3
1,6,602,105,3
0,6,161,348,3
1,6,307,187,3
0,6,353,148,3
0,5,677,815,3
3,10,1023,226,3
0,6,289,727,3
9,15,1023,593,3
0,5,612,171,3
0,5,484,354,3
0,5,599,462,3
1,7,547,147,3
0,5,451,890,3
1,6,206,186,3
1,7,182,280,3
0,5,774,139,3
1,6,446,227,3
0,6,625,317,3
1,6,833,91,3
0,5,570,543,3
0,5,661,509,3
14,19,1023,406,3
2,8,1023,348,3
0,6,59,48,3
9,15,1023,307,3
0,5,425,404,3
5,11,1023,77,3
0,5,403,698,3
15,20,1023,496,3
1,6,1023,127,3
0,5,698,585,3
0,5,62,137,3
0,5,865,831,3
2,7,269,171,3
1,7,155,198,3
1,7,290,95,3
0,6,443,411,3
1,7,18,58,3
1,7,258,107,3
1,6,177,50,3
0,6,460,436,3
0,5,1023,112,3
2,7,422,176,3
14,19,1023,510,3
0,1,1023,347,3
0,5,862,588,3
0,5,13,232,3
0,5,1023,1023,3
7,13,1023,722,3
3,9,1023,1023,3
0,5,702,635,3
0,5,701,158,3
10,16,1023,698,3
0,5,23,622,3
0,5,540,263,3
0,6,214,319,3
1,7,1023,539,3
0,5,227,409,3
13,19,1023,834,3
0,5,105,436,3
2,7,284,171,3
0,5,688,146,3
0,6,170,234,3
0,6,294,240,3
0,5,777,227,3
0,6,461,761,3
1,7,44,83,3
0,6,326,473,3
0,6,338,431,3
1,6,225,135,3
0,6,278,268,3
1,6,0,15,3
0,6,109,272,3
0,7,75,211,3
0,6,355,183,3
0,5,920,363,3
0,4,1023,341,3
0,5,75,183,3
0,5,184,217,3
0,6,180,317,3
0,6,550,428,3
0,6,0,578,3
0,6,620,533,3
1,7,272,422,3
1,7,259,6,3
1,6,311,98,3
0,6,136,337,3
1,6,101,112,3
0,6,227,44,3
0,6,663,257,3
0,6,858,260,3
3,9,1023,660,3
0,5,646,71,3
0,4,395,7,3
0,6,353,4,3
0,6,83,182,3
1,6,50,18,3
0,6,354,294,3
1,6,275,310,3
0,6,399,373,3
0,6,190,207,3
1,6,0,135,3
0,6,309,208,3
1,6,316,31,3
1,6,59,77,3
1,6,193,48,3
0,6,5,89,3
1,6,274,116,3
1,6,283,142,3
0,6,159,265,3
1,6,24,5,3
0,6,246,226,3
0,6,310,151,3
1,6,80,256,3
0,6,140,49,3
0,6,223,390,3
0,6,53,361,3
1,6,96,14,3
0,6,225,191,3
1,6,9,2,3
0,5,767,750,3
2,7,137,118,3
1,6,336,13,3
0,5,1023,21,3
1,6,843,171,3
1,6,568,382,3
2,6,128,142,3
1,6,300,97,3
1,6,492,96,3
1,7,0,274,3
1,6,39,39,3
0,6,160,436,3
1,7,0,140,3
0,5,660,433,3
1,7,21,257,3
0,6,685,621,3
1,7,427,329,3
1,6,0,31,3
1,6,22,100,3
1,6,142,99,3
1,6,226,18,3
1,6,101,140,3
0,6,64,231,3
1,6,155,45,3
0,6,456,177,3
0,6,65,396,3
0,6,237,440,3
1,6,77,151,3
1,6,13,136,3
0,6,72,258,3
0,6,54,660,3
0,6,465,145,3
0,6,342,326,3
1,6,20,111,3
0,6,444,185,3
0,6,0,149,3
1,6,43,118,3
0,6,55,259,3
0,6,611,199,3
1,7,190,148,3
0,6,475,123,3
0,6,179,103,3
0,5,237,568,3
1,7,16,169,3
1,6,341,16,3
1,6,167,311,3
1,6,182,227,3
1,6,74,177,3
1,6,156,93,3
1,6,5,117,3
0,6,477,514,3
1,7,46,334,3
0,6,138,165,3
1,6,35,97,3
0,5,236,790,3
0,6,314,441,3
1,6,202,34,3
1,6,527,7,3
0,6,246,341,3
0,6,144,252,3
1,6,144,311,3
0,6,469,421,3
1,6,159,276,3
1,6,303,263,3
0,6,397,236,3
1,6,8,107,3
0,6,320,191,3
1,6,95,150,3
1,6,80,41,3
0,6,245,225,3
1,6,340,41,3
1,6,253,392,3
0,6,404,325,3
0,6,580,121,3
1,7,80,16,3
1,7,314,222,3
1,6,460,176,3
1,7,10,53,3
0,6,332,134,3
1,6,97,263,3
1,6,25,383,3
0,6,237,532,3
1,7,103,153,3
1,7,62,49,3
0,6,107,228,3
0,6,450,206,3
1,6,160,38,3
0,5,644,357,3
1,6,285,157,3
0,5,291,802,3
0,6,91,873,3
0,6,87,711,3
1,7,206,133,3
1,6,148,9,3
1,6,161,8,3
1,6,47,137,3
1,6,148,186,3
1,6,46,116,3
0,6,478,236,3
1,6,83,4,3
0,6,552,552,3
1,7,78,240,3
1,6,426,134,3
1,7,92,141,3
0,6,43,277,3
1,6,132,278,3
0,6,36,110,3
1,6,10,175,3
1,6,104,92,3
1,6,143,20,3
1,6,11,64,3
1,6,16,5,3
0,6,236,56,3
0,5,32,25,3
1,7,109,297,3
0,6,42,698,3
1,6,32,246,3
1,6,0,21,3
1,6,48,148,3
1,6,0,18,3
1,6,44,182,3
1,6,1,29,3
0,6,691,159,3
1,7,65,28,3
1,6,422,50,3
0,6,409,158,3
0,5,8,301,3
0,5,364,321,3
0,6,174,136,3
1,6,244,219,3
1,7,235,15,3
6,11,21,85,3
2,8,89,333,3
1,7,143,282,3
1,6,9,225,3
1,7,5,143,3
1,6,28,30,3
0,6,45,39,3
0,6,10,57,3
1,6,1,44,3
0,6,0,126,3
0,6,0,302,3
0,6,0,367,3
1,6,36,111,3
0,5,20,284,3
0,6,154,334,3
0,6,79,26,3
0,6,89,134,3
0,5,121,21,3
0,6,278,334,3
1,7,0,8,3
1,6,133,105,3
0,6,23,53,3
1,7,34,70,3
0,6,45,170,3
0,6,116,3,3
1,7,32,110,3
2,7,127,215,3
1,7,160,234,3
1,6,183,83,3
1,7,109,63,3
1,6,193,94,3
1,6,167,103,3
1,6,54,136,3
1,6,57,50,3
1,6,86,83,3
1,6,175,23,3
1,6,159,309,3
1,6,53,47,3
1,6,72,39,3
0,6,75,98,3
0,6,516,572,3
1,7,48,134,3
1,6,100,258,3
1,6,212,98,3
0,6,192,461,3
0,6,35,443,3
1,7,0,402,3
1,6,13,62,3
0,6,96,128,3
1,6,1,205,3
1,6,355,109,3
1,6,0,133,3
0,6,511,268,3
1,7,251,3,3
1,6,227,126,3
1,6,270,10,3
1,6,38,25,3
0,6,312,348,3
1,6,175,158,3
0,6,552,797,3
0,6,416,536,3
0,6,362,621,3
1,6,424,530,3
1,7,243,53,3
1,6,0,10,3
0,6,648,246,3
1,6,634,60,3
0,6,430,721,3
0,6,789,511,3
2,7,245,134,3
0,6,554,221,3
0,6,622,151,3
1,7,229,152,3
0,5,629,571,3
1,7,113,64,3
0,6,511,426,3
0,5,486,856,3
1,7,79,440,3
1,6,478,86,3
1,6,130,193,3
0,6,308,45,3
1,6,189,333,3
1,6,47,192,3
0,5,711,314,3
0,6,568,574,3
0,6,988,357,3
4,10,1023,379,3
0,5,734,663,3
3,9,1023,277,3
0,4,143,983,3
0,5,765,167,3
0,6,95,886,3
0,6,378,700,3
1,6,320,357,3
0,5,1023,267,3
0,6,762,349,3
0,5,1023,149,3
6,12,1023,663,3
1,7,307,1023,3
0,5,1023,299,3
0,3,446,1023,3
0,5,709,835,3
0,5,739,910,3
5,10,1023,137,3
0,5,485,949,3
8,13,1023,85,3
0,5,433,632,3
6,12,1023,187,3
0,6,330,432,3
5,10,1023,34,3
0,5,243,412,3
6,12,1023,212,3
0,5,559,448,3
3,8,1023,36,3
0,5,1023,430,3
0,5,1023,155,3
0,6,1023,363,3
0,1,1023,202,3
2,8,1023,346,3
1,7,1023,554,3
4,9,1023,536,3
2,7,504,942,3
7,13,1023,401,3
0,5,743,1023,3
4,9,1023,100,3
0,5,1023,863,3
1,7,1002,655,3
10,15,1023,351,3
2,8,784,857,3
10,15,1023,259,3
2,7,514,246,3
0,5,1023,231,3
0,6,656,706,3
14,18,1023,14,3
0,1,1023,0,3
0,5,198,445,3
0,5,1023,78,3
0,4,342,10,3
6,11,999,466,3
0,4,550,438,3
1,6,0,71,3
0,5,643,25,3
0,6,139,561,3
0,6,800,265,3
1,7,412,699,3
1,6,832,389,3
0,6,836,461,3
12,17,1023,589,3
3,9,1023,227,3
0,5,730,286,3
6,12,1023,609,3
1,7,87,595,3
8,14,1023,224,3
3,9,695,445,3
7,12,879,167,3
0,5,1016,771,3
1,7,87,203,4
0,6,566,254,4
1,6,112,390,4
0,5,749,771,4
1,6,1023,49,4
0,6,311,57,4
0,2,1023,166,4
2,7,1009,343,4
0,3,1023,852,4
5,11,1023,222,4
0,2,1023,838,4
0,5,46,40,4
0,5,905,166,4
0,5,625,709,4
2,7,191,145,4
18,24,1023,1023,4
0,5,429,654,4
0,5,727,569,4
1,7,350,351,4
0,5,234,704,4
1,6,0,160,4
1,7,69,163,4
1,6,283,224,4
0,6,374,47,4
0,5,657,174,4
12,19,1023,422,4
0,5,433,494,4
13,19,1023,564,4
0,1,1023,391,4
0,5,25,12,4
0,5,686,33,4
0,6,143,430,4
1,6,131,187,4
0,6,343,183,4
0,6,367,156,4
0,6,495,225,4
1,6,10,37,4
0,6,639,237,4
3,9,1023,366,4
0,5,524,522,4
4,10,1023,283,4
0,4,464,360,4
1,7,1023,457,4
0,6,868,174,4
4,10,1023,701,4
0,4,1023,159,4
0,5,419,498,4
0,5,741,135,4
1,6,514,75,4
1,7,361,150,4
0,6,1023,177,4
1,6,509,108,4
4,9,589,485,4
0,5,1023,227,4
0,5,73,430,4
0,5,431,95,4
1,6,35,170,4
1,6,313,249,4
1,7,0,107,4
0,5,852,37,4
1,7,393,259,4
12,18,1023,110,4
0,5,611,286,4
0,5,882,215,4
0,5,293,105,4
0,6,180,523,4
1,6,15,210,4
0,5,1023,65,4
0,6,891,216,4
2,8,1023,1021,4
0,5,818,67,4
5,9,916,752,4
7,13,1023,255,4
0,6,562,624,4
0,4,1023,672,4
0,5,361,250,4
0,5,690,212,4
0,6,398,218,4
1,6,0,63,4
0,6,704,220,4
0,6,702,595,4
0,5,771,665,4
1,7,741,282,4
1,7,333,273,4
0,6,421,116,4
6,12,1023,194,4
0,4,1023,203,4
0,6,27,63,4
11,17,1023,46,4
0,6,1018,248,4
0,6,67,243,4
0,4,1023,347,4
0,5,1008,151,4
0,6,718,37,4
0,2,1023,29,4
0,5,387,411,4
0,5,1023,556,4
1,7,100,264,4
3,8,749,153,4
0,4,892,17,4
2,7,233,101,4
1,6,486,404,4
1,6,64,72,4
1,7,208,379,4
0,6,473,111,4
1,6,31,204,4
9,14,902,13,4
0,5,929,536,4
0,6,273,244,4
0,6,362,613,4
0,5,970,101,4
2,7,199,133,4
14,20,1023,362,4
0,5,889,39,4
0,6,15,16,4
0,5,683,489,4
1,7,190,49,4
1,7,310,194,4
1,7,52,47,4
0,6,343,549,4
1,6,608,53,4
0,6,600,830,4
3,10,1023,732,4
0,5,347,96,4
0,5,966,1023,4
2,7,180,239,4
0,6,606,563,4
1,6,759,4,4
0,6,728,295,4
2,7,122,160,4
1,6,201,21,4
0,6,573,58,4
0,5,1023,304,4
2,7,531,14,4
1,7,409,76,4
0,6,566,192,4
1,6,346,122,4
12,18,1023,685,4
0,6,841,520,4
0,5,852,753,4
0,5,785,55,4
0,6,642,439,4
1,6,382,144,4
0,6,544,232,4
0,6,630,4,4
1,7,581,119,4
1,7,21,519,4
1,6,412,12,4
10,17,1023,863,4
0,5,902,32,4
0,4,975,99,4
0,5,1002,664,4
7,13,1023,85,4
0,5,335,200,4
0,6,384,14,4
1,6,57,300,4
0,6,336,179,4
0,6,586,291,4
1,7,125,203,4
0,5,570,513,4
1,7,246,26,4
7,12,724,110,4
2,8,1023,600,4
0,5,225,15,4
0,4,498,516,4
1,6,508,179,4
0,5,446,134,4
0,6,18,69,4
0,6,421,535,4
1,7,56,95,4
0,6,343,351,4
1,7,52,278,4
1,7,208,11,4
1,6,320,96,4
1,6,63,113,4
1,6,34,154,4
1,6,143,111,4
0,6,292,525,4
0,6,736,28,4
0,6,282,800,4
1,6,623,43,4
1,7,310,107,4
1,6,570,294,4
1,7,104,5,4
0,6,381,323,4
0,6,309,311,4
1,6,115,321,4
1,6,235,169,4
1,6,238,140,4
1,6,173,159,4
1,6,237,159,4
1,7,32,64,4
0,6,251,286,4
1,6,211,218,4
1,6,20,4,4
0,6,601,168,4
1,6,243,117,4
0,6,394,555,4
1,6,517,324,4
1,7,50,267,4
1,6,199,124,4
0,6,271,316,4
0,6,335,480,4
0,7,7,425,4
0,6,775,536,4
0,6,539,607,4
1,7,1,219,4
1,6,217,129,4
1,6,183,4,4
1,6,224,17,4
1,6,36,82,4
1,6,207,7,4
1,6,48,122,4
1,7,113,81,4
0,6,499,176,4
0,6,261,353,4
1,6,51,9,4
0,6,276,502,4
1,7,28,147,4
0,6,633,636,4
1,7,362,134,4
0,6,217,229,4
0,7,41,374,4
1,6,236,171,4
0,6,375,547,4
1,7,237,124,4
1,6,214,137,4
0,6,103,105,4
1,6,77,43,4
0,6,322,110,4
1,6,87,267,4
0,6,22,277,4
1,6,118,159,4
1,6,169,166,4
0,6,186,152,4
1,7,17,92,4
0,5,1007,585,4
1,7,506,407,4
1,7,165,160,4
1,6,248,199,4
1,6,345,98,4
0,6,87,489,4
1,6,394,362,4
1,7,215,380,4
1,6,375,25,4
8,15,1023,674,4
0,5,694,678,4
0,5,1023,256,4
2,7,173,269,4
1,7,60,423,4
0,6,199,366,4
1,6,208,131,4
0,6,183,307,4
1,6,22,498,4
1,6,90,192,4
1,7,19,39,4
0,6,354,455,4
1,7,28,115,4
0,6,443,172,4
1,7,0,11,4
1,7,45,67,4
0,6,42,365,4
0,6,0,306,4
0,6,393,391,4
0,6,695,303,4
1,7,219,135,4
0,5,1023,500,4
1,7,342,370,4
0,6,671,246,4
1,6,231,24,4
1,7,287,73,4
1,6,120,37,4
1,6,1,15,4
0,6,638,183,4
0,6,582,376,4
0,6,369,483,4
0,5,718,588,4
2,7,218,19,4
1,6,507,1,4
1,7,106,6,4
0,6,28,554,4
0,6,516,100,4
1,7,0,250,4
1,6,535,69,4
1,6,581,29,4
1,7,247,364,4
0,5,877,680,4
2,7,70,365,4
1,7,424,194,4
2,7,192,118,4
0,6,315,41,4
0,6,140,162,4
0,6,224,93,4
1,6,50,221,4
0,6,194,333,4
0,6,10,279,4
0,6,106,247,4
0,6,301,441,4
0,6,239,611,4
1,6,67,273,4
1,6,279,38,4
0,6,358,327,4
1,6,0,40,4
1,6,165,130,4
1,6,0,42,4
1,6,104,44,4
0,6,115,270,4
1,6,110,19,4
0,6,43,89,4
1,6,94,120,4
0,6,134,20,4
1,6,88,67,4
0,6,54,87,4
0,6,134,138,4
1,6,83,159,4
0,6,97,6,4
0,6,175,163,4
1,6,0,143,4
0,6,361,72,4
1,6,19,239,4
0,6,374,231,4
1,6,212,48,4
0,6,33,63,4
1,6,269,61,4
0,5,53,296,4
0,5,0,473,4
3,8,121,18,4
1,6,0,206,4
0,5,50,113,4
0,5,43,141,4
0,6,17,102,4
0,6,35,318,4
1,7,65,106,4
1,7,77,13,4
3,9,43,196,4
2,8,0,290,4
1,7,17,152,4
1,7,64,100,4
1,6,49,42,4
1,6,2,14,4
1,6,0,307,4
1,6,103,28,4
1,6,23,283,4
0,6,0,300,4
0,6,42,137,4
0,6,37,80,4
1,6,14,101,4
0,6,12,12,4
0,4,40,111,4
0,5,220,41,4
0,5,200,114,4
0,5,106,214,4
0,5,427,3,4
4,9,123,246,4
1,7,64,1,4
0,5,95,108,4
0,5,38,26,4
2,7,30,3,4
0,4,14,17,4
0,6,59,56,4
2,8,2,85,4
1,6,2,27,4
0,5,0,87,4
3,9,0,164,4
1,7,0,67,4
0,5,28,106,4
2,8,139,1,4
1,7,160,137,4
0,6,187,319,4
0,6,66,323,4
0,6,522,304,4
1,6,214,24,4
1,6,78,45,4
1,6,102,87,4
1,6,21,145,4
0,6,28,39,4
1,7,30,74,4
1,6,33,48,4
1,6,0,134,4
0,6,45,166,4
1,6,127,40,4
0,6,29,234,4
1,7,92,296,4
0,6,15,331,4
0,6,67,5,4
0,6,17,156,4
0,6,56,132,4
1,6,21,1,4
0,4,0,18,4
1,7,18,96,4
2,7,88,124,4
1,6,238,217,4
0,6,135,380,4
1,6,232,133,4
0,6,308,261,4
1,6,68,112,4
1,6,246,45,4
1,6,111,29,4
0,6,171,248,4
1,6,12,150,4
1,6,228,55,4
0,6,334,178,4
1,6,105,242,4
1,6,416,69,4
1,6,110,34,4
0,5,870,291,4
1,7,252,235,4
0,6,679,71,4
0,6,721,88,4
1,7,107,87,4
1,6,570,168,4
0,6,380,489,4
1,6,340,44,4
1,7,65,147,4
0,6,521,101,4
1,6,175,172,4
0,6,678,130,4
1,7,16,288,4
0,5,233,541,4
0,6,251,567,4
1,7,34,56,4
0,5,584,935,4
1,7,164,356,4
1,6,676,125,4
1,7,468,29,4
1,7,134,113,4
0,6,190,539,4
1,6,461,250,4
1,6,19,163,4
0,5,862,102,4
0,6,759,521,4
1,7,1,385,4
0,5,1023,436,4
1,6,757,102,4
0,5,930,290,4
6,11,1023,833,4
0,6,331,166,4
0,1,1023,708,4
0,5,259,673,4
0,5,1009,343,4
2,8,63,272,4
5,11,1023,267,4
0,5,74,248,4
9,14,1023,506,4
0,5,122,33,4
0,5,366,237,4
0,5,5,252,4
3,9,130,168,4
0,5,53,104,4
0,6,73,75,4
0,6,224,566,4
1,7,328,16,4
1,6,297,341,4
1,6,476,156,4
1,6,584,111,4
1,7,81,581,4
0,5,1011,224,4
2,8,140,437,4
1,7,443,66,4
0,5,811,532,4
0,6,745,644,4
0,5,1023,32,4
6,11,1023,453,4
0,5,886,15,4
0,5,536,7,4
0,3,1023,425,4
0,5,102,121,4
3,10,1023,834,4
0,5,62,360,4
6,12,1023,390,4
0,5,944,869,4
0,6,1023,237,4
0,5,681,293,4
0,5,727,364,4
0,5,1023,24,4
1,6,471,306,4
0,6,714,239,4
0,6,424,597,4
1,7,3,343,4
1,7,0,12,4
0,6,245,196,4
1,6,467,125,4
1,6,407,382,4
1,6,309,3,4
1,6,180,329,4
1,6,143,299,4
0,6,368,214,4
1,6,35,411,4
0,6,694,481,4
1,7,244,179,4
0,5,754,890,4
2,7,563,26,4
0,6,762,771,4
0,6,38,851,4
6,12,1023,741,4
2,8,198,1023,4
8,13,1023,710,4
4,10,45,878,4
9,15,1023,115,4
1,7,512,584,4
0,5,1023,72,4
0,5,939,55,4
0,5,466,699,4
12,18,1023,193,4
0,6,259,447,4
6,11,1023,396,4
1,6,850,128,4
0,4,198,185,4
16,22,1023,118,4
3,9,39,527,4
7,13,1023,604,4
0,5,496,133,4
10,15,1023,115,4
3,9,125,104,4
7,14,1023,568,4
0,6,519,274,4
0,5,1023,849,4
1,6,614,130,4
0,5,841,89,4
1,7,540,359,4
0,6,932,472,4
0,5,600,490,4
0,5,989,159,4
2,7,238,162,4
0,5,1023,928,4
2,8,92,155,4
0,6,517,292,4
0,6,746,282,4
0,6,587,459,4
17,23,1023,512,4
2,8,320,959,4
0,5,263,100,4
0,5,436,608,4
1,6,20,53,4
1,6,67,120,4
0,6,646,87,4
0,5,879,270,4
0,6,688,290,4
0,6,788,248,4
1,7,13,353,4
1,6,10,306,4
1,6,0,305,4
0,5,746,154,4
1,6,315,472,4
7,13,1023,287,4
0,4,305,318,4
0,5,1023,81,4
1,7,175,286,4
0,5,815,53,4
0,6,493,68,4
7,13,1023,486,4
0,4,1023,270,4
6,12,1023,353,4
0,4,1023,466,4
0,5,1023,507,4
0,5,988,441,4
0,5,779,30,4
0,6,811,431,4
1,6,331,96,4
1,7,153,142,4
1,7,30,89,4
1,6,716,62,4
1,7,79,305,4
1,7,0,73,4
0,6,404,59,4
0,5,757,575,4
1,6,476,546,4
10,16,1023,1023,4
0,5,504,19,4
2,7,1023,180,4
0,5,782,933,4
11,17,1023,539,4
1,7,35,396,4
0,5,1023,54,4
1,6,0,238,4
0,6,540,218,4
0,6,300,240,4
0,5,938,521,4
0,6,493,382,4
1,6,25,142,4
1,6,91,247,4
1,6,69,213,4
1,6,568,58,4
1,6,429,58,4
0,6,74,337,4
1,6,251,41,4
0,6,628,521,4
0,6,262,442,4
0,6,620,289,4
1,7,167,437,4
0,6,872,109,4
1,7,330,269,4
0,5,883,327,4
1,7,624,191,4
0,6,614,549,4
1,7,528,134,4
0,5,1023,886,4
1,7,817,265,4
2,7,176,76,4
1,7,316,437,4
0,3,1023,120,4
0,5,561,323,4
0,6,497,422,4
1,6,357,34,4
1,6,329,66,4
0,6,781,287,4
0,5,36,33,4
0,5,1023,142,4
0,5,174,243,4
0,5,215,230,4
0,5,37,690,4
1,6,174,496,4
12,17,1023,185,4
0,5,569,390,4
1,7,111,25,4
0,6,807,360,4
0,6,782,778,4
0,6,741,676,4
1,7,332,488,4
0,5,1023,670,4
1,7,583,10,4
0,6,643,85,4
0,5,851,906,4
1,6,971,77,4
1,7,53,404,4
0,6,167,340,4
1,6,39,153,4
0,6,675,77,4
0,6,841,176,4
1,6,631,208,4
4,10,1023,297,4
0,6,157,331,4
0,5,950,43,4
0,6,571,568,4
1,7,215,415,4
0,6,622,99,4
1,6,503,505,4
0,5,1023,249,4
0,6,871,565,4
0,5,651,26,4
0,5,862,556,4
2,7,242,180,4
0,5,1023,326,4
1,7,235,124,4
0,5,1023,185,4
2,7,632,48,4
1,6,536,180,4
1,7,437,39,4
1,6,382,14,4
1,7,178,49,4
0,5,966,9,4
2,7,203,117,4
0,6,1023,230,4
1,6,549,371,4
10,17,1023,446,4
0,5,121,458,4
0,5,786,78,4
1,6,0,87,4
0,6,318,176,4
0,5,1023,727,4
0,5,630,310,4
0,6,510,185,4
1,7,35,168,4
0,3,1023,61,4
0,5,129,360,4
0,5,992,185,4
1,7,0,641,4
1,6,14,208,4
0,6,922,133,4
0,6,838,411,4
1,7,311,207,4
1,7,46,63,4
0,6,600,97,4
1,6,618,127,4
0,6,563,372,4
1,7,229,11,4
8,13,1023,550,4
0,5,737,275,4
0,5,651,343,4
9,15,1023,466,4
0,6,20,372,4
0,5,997,11,4
6,11,1023,633,4
0,5,415,82,4
0,6,233,112,4
0,6,730,180,4
1,7,550,157,4
1,7,39,12,4
0,6,599,173,4
1,7,0,60,4
0,6,218,44,4
1,6,25,87,4
1,6,129,23,4
1,7,100,9,4
1,6,223,134,4
1,6,113,24,4
0,6,4,8,4
1,6,49,95,4
0,6,15,99,4
0,6,17,26,4
1,6,0,75,4
1,6,0,52,4
1,6,51,82,4
1,6,38,165,4
1,6,17,1,4
0,6,19,8,4
1,6,219,92,4
1,6,593,86,4
1,7,0,213,4
0,5,684,469,4
1,6,498,158,4
1,7,30,1,4
1,6,77,109,4
0,6,355,204,4
1,6,119,66,4
0,6,273,314,4
1,6,200,274,4
1,6,78,37,4
0,4,1023,324,4
0,5,17,446,4
0,5,547,187,4
1,6,418,159,4
1,6,248,311,4
1,6,179,13,4
1,6,119,39,4
0,6,115,362,4
0,6,37,253,4
0,6,369,344,4
1,6,348,136,4
0,6,473,355,4
1,7,139,152,4
1,7,65,4,4
0,6,409,161,4
1,6,145,67,4
0,6,147,200,4
0,6,270,80,4
0,6,40,576,4
0,6,107,393,4
1,6,94,285,4
1,6,0,61,4
1,6,283,37,4
0,6,83,512,4
1,6,145,379,4
0,6,181,599,4
1,6,3,26,4
1,6,174,133,4
0,6,72,425,4
1,6,318,80,4
1,6,290,1,4
1,6,12,181,4
0,6,249,240,4
0,6,59,8,4
0,6,154,148,4
1,6,0,93,4
0,6,553,284,4
1,7,169,243,4
0,5,752,316,4
2,7,225,64,4
0,6,343,504,4
1,6,90,441,4
0,6,398,365,4
1,7,6,381,4
1,7,108,208,4
1,6,275,52,4
1,6,419,33,4
1,6,64,231,4
0,6,524,150,4
0,6,421,37,4
1,6,5,138,4
1,6,6,146,4
1,6,148,89,4
0,6,20,782,4
1,6,483,88,4
0,6,1002,257,4
0,6,274,278,4
0,5,1023,128,4
0,5,921,740,4
2,8,48,163,4
0,6,369,277,4
1,6,262,107,4
1,6,150,35,4
0,6,89,253,4
0,6,32,184,4
1,6,46,45,4
0,6,257,361,4
0,6,286,606,4
0,6,622,95,4
0,6,248,154,4
0,6,343,6,4
0,7,13,157,4
0,6,136,134,4
0,6,97,189,4
1,6,0,53,4
1,6,282,14,4
1,6,139,144,4
1,7,111,92,4
0,6,252,314,4
1,7,0,106,4
1,6,119,98,4
1,7,14,27,4
1,6,6,76,4
0,6,46,76,4
1,6,103,28,4
1,6,6,198,4
1,6,22,22,4
1,6,0,152,4
1,6,33,65,4
1,6,0,115,4
1,6,0,194,4
0,6,26,477,4
1,6,125,127,4
1,6,83,219,4
1,6,0,22,4
1,6,21,187,4
1,6,7,374,4
0,6,0,345,4
1,7,27,308,4
1,6,178,280,4
1,6,12,27,4
0,6,138,113,4
1,6,0,102,4
1,6,103,7,4
1,6,0,90,4
1,6,0,129,4
1,6,0,31,4
0,6,33,13,4
0,6,0,48,4
1,6,36,2,4
1,6,9,7,4
0,4,153,97,4
2,8,0,57,4
1,7,22,24,4
0,6,4,74,4
1,6,16,79,4
1,6,0,24,4
1,6,0,2,4
0,6,20,33,4
1,6,0,43,4
1,6,3,98,4
0,6,14,111,4
3,8,8,82,4
1,7,0,41,4
1,6,0,125,4
0,6,0,266,4
1,7,43,91,4
0,6,117,87,4
1,6,6,62,4
1,6,124,99,4
0,6,40,191,4
0,6,79,157,4
1,6,0,163,4
1,6,172,22,4
0,6,22,143,4
1,6,49,168,4
1,6,38,142,4
1,6,217,58,4
1,7,0,4,4
0,6,461,212,4
1,6,141,8,4
1,6,185,17,4
0,6,229,50,4
1,6,330,34,4
1,6,347,55,4
1,6,123,122,4
0,6,273,219,4
1,7,36,258,4
1,6,195,128,4
1,7,16,76,4
0,6,292,82,4
1,6,84,206,4
1,6,190,52,4
0,6,267,195,4
0,6,92,239,4
1,6,109,147,4
1,6,207,6,4
1,6,125,329,4
1,6,305,78,4
1,7,59,54,4
1,6,348,0,4
0,6,217,162,4
1,6,410,22,4
1,7,65,127,4
0,6,423,176,4
1,6,199,296,4
1,6,563,231,4
0,5,918,633,4
0,5,207,1023,4
0,6,809,168,4
0,6,494,1023,4
1,7,1023,60,4
0,5,682,506,4
0,4,981,858,4
4,10,1023,292,4
0,5,21,837,4
0,5,1023,343,4
0,5,733,474,4
0,6,657,183,4
5,10,1023,812,4
0,5,884,241,4
0,5,987,465,4
1,7,86,363,4
2,8,1023,344,4
0,5,104,213,4
4,10,1023,495,4
0,5,462,1023,4
0,4,1023,19,4
4,9,538,1023,4
1,7,1023,115,4
1,7,570,1023,4
0,1,1023,142,4
5,11,450,1023,4
1,6,1023,57,4
0,1,371,1023,4
2,8,1023,98,4
7,13,796,1023,4
0,2,1023,297,4
3,9,625,1023,4
0,5,1023,676,4
0,5,857,762,4
2,7,395,972,4
4,10,1023,503,4
5,11,505,1023,4
0,5,895,138,4
0,5,240,978,4
0,5,509,50,4
0,5,482,491,4
1,7,333,138,4
9,15,1023,406,4
0,5,20,3,4
5,11,1023,185,4
0,5,260,492,4
0,5,779,596,4
0,6,149,538,4
0,5,887,10,4
1,6,1023,25,4
0,5,606,82,4
0,5,234,410,4
1,7,866,59,4
2,8,51,636,4
0,5,1023,389,4
4,10,651,590,4
0,5,814,194,4
2,7,809,193,4
0,5,722,369,4
1,6,385,286,4
1,6,364,69,4
0,6,420,536,4
1,7,551,179,4
1,7,1023,44,4
2,7,38,44,4
0,6,409,582,4
1,6,268,59,4
0,6,307,411,4
1,7,306,144,4
1,6,423,76,4
1,6,263,4,4
1,6,105,87,4
0,6,326,35,4
0,6,493,13,4
1,6,620,216,4
0,5,917,127,4
1,6,541,206,4
0,5,969,96,4
0,6,1023,106,4
0,5,550,91,4
0,5,786,43,4
1,6,64,96,4
0,6,190,595,4
1,6,451,224,4
1,6,383,360,4
0,6,578,421,4
0,5,862,610,4
2,7,78,190,4
0,5,806,645,4
0,5,994,214,4
1,7,160,487,4
0,6,921,12,4
1,6,609,153,4
1,6,86,247,4
1,6,20,177,4
1,6,66,261,4
1,6,88,63,4
0,6,397,171,4
0,6,244,520,4
0,6,554,584,4
0,6,404,557,4
0,5,1023,504,4
0,6,853,360,4
2,7,67,355,4
1,6,506,278,4
1,7,30,118,4
16,22,1023,367,4
2,7,320,25,4
9,15,1023,203,4
2,8,897,37,4
0,5,598,504,4
0,5,680,19,4
1,6,159,24,4
0,5,793,242,4
1,7,90,195,4
1,6,309,41,4
0,5,706,271,4
0,6,677,244,4
1,7,384,63,4
0,6,793,6,4
0,5,797,247,4
1,7,135,119,4
1,6,581,397,4
0,6,397,336,4
0,5,979,227,4
2,7,145,243,4
1,6,417,89,4
0,6,511,74,4
0,6,456,307,4
1,7,100,135,4
1,6,436,349,4
6,11,807,232,4
0,4,1023,349,4
0,4,320,230,4
0,5,756,39,4
0,5,519,60,4
0,5,914,46,4
1,7,74,116,4
1,7,592,139,4
1,6,254,159,4
1,6,161,133,4
0,6,66,359,4
1,6,137,56,4
0,5,615,421,4
1,7,212,83,4
1,6,667,126,4
2,7,483,81,4
0,6,1023,616,4
0,5,416,111,4
0,5,582,331,4
1,6,251,327,4
0,6,171,72,4
0,6,466,305,4
0,5,986,196,4
1,6,536,307,4
0,5,834,349,4
4,10,21,149,4
0,3,1023,217,4
1,6,73,28,4
0,4,1023,413,4
0,5,513,323,4
6,12,1023,245,4
0,5,934,197,4
0,6,671,59,4
0,5,687,268,4
1,6,442,203,4
1,6,66,141,4
1,6,242,478,4
1,6,462,57,4
0,6,401,453,4
1,6,761,13,4
1,7,326,131,4
0,5,990,147,4
1,7,356,240,4
0,6,886,203,4
0,6,881,309,4
1,7,198,394,4
0,5,914,744,4
2,7,556,40,4
1,7,70,284,4
1,6,424,146,4
1,7,60,86,4
0,5,714,630,4
1,7,227,17,4
0,6,717,492,4
1,6,662,442,4
2,7,103,52,4
2,8,1023,592,4
1,6,424,286,4
0,5,666,139,4
0,5,1023,617,4
1,7,651,193,4
1,7,271,305,4
1,6,220,273,4
1,7,209,75,4
1,6,77,313,4
0,6,275,295,4
1,6,149,185,4
0,6,387,546,4
1,6,26,96,4
0,6,45,356,4
0,6,179,76,4
1,6,285,262,4
0,6,1023,474,4
1,7,321,2,4
0,6,563,47,4
0,6,506,365,4
1,7,157,158,4
0,5,1018,165,4
1,6,605,109,4
1,6,701,387,4
1,7,114,370,4
0,6,1023,112,4
6,12,1023,342,4
1,6,1023,37,4
3,8,1023,166,4
0,6,958,514,4
0,5,186,53,4
0,5,502,70,4
1,6,275,188,4
1,6,443,279,4
0,7,169,267,4
1,6,233,5,4
1,6,691,19,4
1,7,168,234,4
0,6,867,7,4
0,6,730,415,4
1,7,498,128,4
1,6,201,147,4
0,6,490,213,4
1,6,507,118,4
3,9,1023,269,4
1,6,98,235,4
5,11,1023,497,4
0,6,115,425,4
0,6,686,87,4
0,5,970,718,4
2,7,171,190,4
0,5,925,455,4
0,6,931,345,4
2,7,0,61,4
1,6,349,4,4
0,5,1021,393,4
2,7,161,53,4
1,6,33,12,4
1,6,400,55,4
1,6,243,42,4
1,6,245,75,4
0,6,220,277,4
0,5,876,249,4
1,6,836,81,4
2,7,0,122,4
0,6,621,323,4
1,7,239,287,4
0,6,322,330,4
1,6,209,111,4
1,7,1,67,4
0,6,221,145,4
0,6,449,127,4
0,6,513,175,4
1,6,361,138,4
1,7,21,102,4
1,7,286,87,4
0,6,231,114,4
0,6,442,26,4
0,6,402,110,4
1,6,140,149,4
1,6,184,36,4
0,6,265,31,4
1,6,52,27,4
0,6,156,123,4
1,6,86,88,4
1,6,32,14,4
0,6,126,213,4
1,6,218,355,4
1,6,36,46,4
0,6,253,55,4
0,5,708,159,4
1,7,261,11,4
0,6,528,302,4
1,6,479,199,4
1,6,127,117,4
1,6,113,101,4
1,6,288,73,4
0,6,100,129,4
0,6,127,336,4
0,6,10,394,4
1,6,30,339,4
1,6,9,286,4
1,6,225,29,4
0,6,265,320,4
1,7,8,14,4
0,6,269,243,4
1,6,143,102,4
0,6,349,158,4
