Ch1,Ch2,Ch3,Ch4,label
200,377,21,25,1
197,219,10,43,1
0,59,0,1,1
98,31,15,22,1
128,127,29,4,1
61,9,35,16,1
22,96,9,6,1
45,75,102,3,1
5,15,30,8,1
148,181,65,32,1
329,138,13,7,1
317,68,105,56,1
178,9,34,13,1
133,209,44,53,1
291,68,13,1,1
207,156,0,1,1
150,43,72,23,1
0,11,28,26,1
52,46,0,71,1
136,26,19,1,1
125,18,158,16,1
52,59,110,66,1
146,5,6,44,1
53,83,90,2,1
22,37,41,19,1
159,175,99,1,1
107,12,7,87,1
83,48,0,32,1
69,76,0,31,1
89,9,79,6,1
88,95,0,21,1
21,117,30,6,1
77,30,0,5,1
65,52,13,10,1
94,82,130,102,1
30,10,258,100,1
202,35,135,22,1
217,46,396,177,1
81,12,13,2,1
29,111,140,40,1
181,211,161,114,1
144,116,6,15,1
280,162,55,67,1
357,53,20,4,1
49,10,0,12,1
72,92,27,28,1
61,6,46,9,1
105,68,18,1,1
270,153,0,22,1
32,13,29,7,1
154,108,115,8,1
109,49,38,8,1
86,79,58,10,1
126,103,147,2,1
33,82,76,1,1
51,23,28,9,1
208,193,51,79,1
457,272,13,7,1
144,141,137,79,1
160,223,0,14,1
94,15,12,34,1
127,160,19,22,1
244,53,50,9,1
260,82,4,131,1
7,53,14,15,1
0,7,0,23,1
72,77,20,1,1
127,16,19,10,1
49,54,29,32,1
6,99,49,27,1
15,40,141,44,1
63,99,40,3,1
113,105,253,62,1
62,22,24,54,1
132,84,0,1,1
66,137,54,16,1
431,247,20,10,1
227,19,0,34,1
51,53,71,36,1
36,21,15,38,1
31,135,33,7,1
36,43,26,1,1
9,17,34,4,1
67,7,111,31,1
68,27,91,44,1
1,15,0,30,1
22,61,100,88,1
183,115,25,25,1
183,8,12,18,1
210,16,37,34,1
94,49,161,11,1
194,142,0,1,1
488,128,28,7,1
97,105,79,124,1
110,65,45,34,1
22,37,52,50,1
130,28,72,5,1
52,41,108,28,1
91,66,0,80,1
35,80,100,17,1
19,29,0,27,1
134,96,33,126,1
278,41,313,95,1
123,76,109,51,1
141,58,93,88,1
11,102,67,48,1
39,7,140,38,1
135,75,81,44,1
302,221,267,95,1
142,42,39,58,1
150,56,131,138,1
217,73,10,120,1
187,239,296,60,1
198,19,262,130,1
21,114,175,150,1
11,12,179,83,1
75,74,89,52,1
85,48,77,182,1
80,118,150,56,1
212,108,336,80,1
0,15,206,16,1
67,8,87,8,1
12,45,45,378,1
153,6,298,157,1
244,19,466,418,1
54,191,417,389,1
19,97,34,52,1
106,11,445,299,1
245,97,287,113,1
318,185,122,9,1
80,124,131,73,1
145,93,0,61,1
511,344,739,442,1
162,42,72,239,1
409,91,611,385,1
272,214,237,307,1
162,290,0,319,1
243,166,60,41,1
272,312,53,104,1
10,95,138,197,1
64,71,193,50,1
100,84,276,26,1
50,21,0,186,1
2,185,332,152,1
188,143,287,190,1
530,397,52,160,1
89,53,312,401,1
268,81,428,418,1
35,104,206,124,1
178,120,26,112,1
253,158,243,516,1
56,22,54,69,1
402,55,477,211,1
180,348,341,339,1
125,112,237,90,1
137,71,372,483,1
170,133,136,214,1
26,34,259,80,1
331,28,70,192,1
97,29,106,104,1
319,358,77,291,1
120,47,549,167,1
511,590,405,47,1
471,515,317,301,1
236,115,756,511,1
168,104,178,79,1
353,206,190,90,1
117,195,308,79,1
27,36,293,76,1
40,163,481,811,1
100,21,432,410,1
62,244,367,259,1
11,18,413,41,1
61,119,919,65,1
83,435,127,479,1
493,424,553,492,1
197,427,124,107,1
98,346,25,72,1
115,133,3,71,1
16,132,18,470,1
55,59,768,209,1
40,83,296,723,1
201,27,408,936,1
105,167,377,553,1
104,52,28,66,1
135,16,499,72,1
263,303,658,64,1
12,188,138,85,1
258,311,378,395,1
42,28,22,146,1
10,218,80,112,1
43,17,524,251,1
88,86,231,37,1
2,120,155,310,1
201,160,5,445,1
65,27,0,241,1
115,57,647,943,1
279,151,434,421,1
279,163,183,373,1
195,29,334,111,1
83,360,224,370,1
332,18,397,133,1
369,113,217,440,1
85,145,1023,461,1
56,73,463,790,1
11,122,1023,970,1
88,36,17,183,1
467,322,180,349,1
28,101,419,247,1
209,10,310,488,1
530,468,383,151,1
507,652,156,103,1
87,165,810,38,1
399,298,509,259,1
760,384,400,365,1
21,96,1023,184,1
645,104,39,39,1
455,179,1023,873,1
291,19,484,97,1
193,57,930,1023,1
31,142,1023,960,1
109,8,1023,350,1
32,75,554,460,1
78,32,231,118,1
175,15,623,298,1
67,44,252,52,1
329,99,9,201,1
259,193,599,311,1
150,97,141,832,1
14,20,55,1002,1
102,226,1021,277,1
32,110,42,367,1
287,277,542,163,1
57,319,850,231,1
191,21,86,1023,1
631,290,374,74,1
128,201,424,168,1
222,165,661,584,1
59,54,70,165,1
121,25,246,64,1
51,103,15,90,1
149,148,224,721,1
316,42,232,431,1
201,121,640,315,1
66,117,685,679,1
133,129,424,187,1
133,11,471,392,1
250,79,322,247,1
209,47,365,209,1
398,93,372,19,1
189,242,796,378,1
222,83,958,328,1
112,81,506,1023,1
136,267,1023,1023,1
66,35,1023,610,1
290,274,300,221,1
133,121,1020,591,1
149,7,562,30,1
257,92,464,126,1
36,10,758,79,1
89,49,500,1023,1
605,135,197,289,1
71,19,1023,726,1
235,163,1023,489,1
168,19,1023,310,1
183,219,654,397,1
45,46,706,541,1
100,45,756,444,1
135,131,1,65,1
139,29,600,370,1
7,30,728,808,1
233,87,1023,1023,1
33,118,1023,1023,1
174,59,220,679,1
111,97,1023,607,1
105,83,839,429,1
140,456,111,291,1
1023,720,13,14,1
707,645,99,44,1
110,117,74,187,1
203,79,550,367,1
0,44,1023,896,1
177,16,1023,1023,1
15,118,837,290,1
214,337,107,266,1
177,243,749,167,1
20,112,72,607,1
202,238,1,136,1
300,274,1009,621,1
246,100,1023,950,1
692,337,418,158,1
354,109,367,522,1
255,283,447,484,1
45,103,378,878,1
20,105,396,603,1
554,162,250,261,1
123,122,331,167,1
219,135,319,274,1
396,146,63,570,1
324,89,644,449,1
140,92,519,58,1
6,15,110,22,1
71,29,43,28,1
127,22,204,167,1
22,103,533,520,1
29,75,344,891,1
146,174,110,76,1
129,96,477,626,1
395,97,288,51,1
13,266,0,440,1
123,131,49,306,1
117,79,1,386,1
71,97,4,482,1
407,80,163,162,1
77,198,305,69,1
272,155,83,22,1
157,89,248,264,1
233,63,61,154,1
189,177,29,59,1
75,13,166,39,1
69,72,244,110,1
32,135,307,72,1
29,54,783,940,1
94,41,857,602,1
49,129,324,7,1
183,291,229,214,1
314,346,385,347,1
453,27,96,99,1
19,111,301,155,1
245,191,109,204,1
52,48,27,42,1
466,127,55,183,1
660,35,506,173,1
22,36,316,277,1
120,62,22,192,1
392,101,105,160,1
392,208,146,467,1
247,157,428,63,1
250,89,182,121,1
580,435,171,61,1
23,72,284,20,1
20,37,1023,683,1
181,16,390,344,1
333,138,18,475,1
221,244,11,391,1
27,195,325,320,1
136,107,131,321,1
120,175,380,21,1
332,369,487,73,1
210,82,1023,389,1
1,22,183,89,1
117,18,61,9,1
57,54,58,448,1
116,151,205,248,1
130,135,9,284,1
275,322,186,319,1
66,110,494,225,1
355,242,110,165,1
45,66,486,326,1
109,123,520,417,1
3,85,49,812,1
50,51,65,434,1
18,15,136,383,1
101,48,448,750,1
174,153,464,170,1
213,30,55,48,1
195,34,267,215,1
342,347,254,218,1
41,40,898,342,1
112,105,555,2,1
0,317,91,349,1
69,270,546,53,1
54,258,345,112,1
270,78,139,158,1
382,134,54,97,1
277,265,116,109,1
129,260,23,20,1
3,33,802,253,1
214,451,165,156,1
355,298,14,94,1
760,429,226,361,1
138,19,1011,298,1
111,76,229,66,1
92,68,0,173,1
181,192,63,287,1
286,189,662,345,1
207,291,164,72,1
61,34,144,3,1
89,94,177,319,1
88,39,295,175,1
21,6,88,130,1
157,50,167,85,1
8,213,91,140,1
115,292,192,30,1
35,192,101,15,1
265,22,412,382,1
39,146,544,375,1
155,296,435,207,1
81,269,63,424,1
148,57,189,225,1
220,285,26,19,1
142,110,487,85,1
206,63,85,141,1
87,70,374,410,1
22,161,204,121,1
398,480,20,155,1
188,139,278,305,1
280,286,103,19,1
89,219,358,289,1
207,272,354,285,1
201,223,387,170,1
252,63,530,387,1
77,51,170,25,1
371,261,559,46,1
8,126,38,55,1
141,137,501,220,1
124,42,279,12,1
319,501,148,321,1
22,99,92,186,1
302,17,5,182,1
5,161,91,133,1
637,326,49,214,1
41,127,203,35,1
216,18,122,6,1
54,75,0,240,1
145,147,97,72,1
141,22,179,85,1
247,39,564,106,1
210,168,429,386,1
374,346,519,331,1
130,118,548,27,1
146,88,325,170,1
156,84,85,168,1
384,164,116,308,1
146,41,0,24,1
184,174,249,45,1
451,164,230,176,1
168,61,0,99,1
530,77,310,160,1
190,103,147,161,1
101,210,450,45,1
144,165,0,31,1
182,49,13,60,1
112,93,264,101,1
233,34,106,224,1
142,34,453,237,1
3,42,354,196,1
47,176,47,192,1
71,184,179,76,1
27,57,141,11,1
58,24,185,241,1
262,253,496,127,1
76,143,278,112,1
11,20,85,152,1
71,84,98,78,1
424,145,279,77,1
283,189,205,235,1
226,180,198,570,1
476,16,857,685,1
120,357,203,118,1
147,322,172,76,1
75,43,525,219,1
244,131,414,25,1
407,413,7,37,1
102,38,58,48,1
37,190,206,41,1
91,114,305,218,1
294,282,7,281,1
580,442,474,563,1
62,279,93,2,1
107,170,110,51,1
283,53,165,170,1
9,6,386,160,1
100,72,543,121,1
43,117,299,124,1
170,229,103,73,1
139,156,160,134,1
157,57,133,85,1
101,111,100,53,1
176,232,114,14,1
219,60,40,2,1
159,8,15,103,1
348,17,65,76,1
146,163,86,90,1
181,189,205,175,1
212,68,449,182,1
23,135,1,188,1
69,15,330,415,1
140,55,10,138,1
396,213,741,202,1
47,71,315,17,1
154,11,487,293,1
117,96,0,60,1
318,213,266,72,1
88,49,0,88,1
456,178,9,81,1
25,19,21,93,1
131,148,76,3,1
35,59,282,269,1
26,102,0,24,1
151,139,200,128,1
70,22,223,75,1
172,199,132,123,1
65,84,433,236,1
526,68,102,3,1
613,290,322,57,1
139,65,0,64,1
229,127,158,2,1
53,31,212,224,1
82,10,55,29,1
20,280,167,135,1
44,98,163,30,1
137,136,8,12,1
127,91,60,18,1
59,42,53,35,1
22,28,39,35,1
181,180,38,26,1
45,27,0,36,1
26,57,24,9,1
38,108,81,41,1
110,244,329,29,1
14,179,164,57,1
83,29,290,111,1
26,111,343,111,1
305,242,87,11,1
27,22,484,391,1
164,274,185,84,1
108,198,286,153,1
47,493,210,97,1
21,123,86,99,1
14,44,121,75,1
180,83,145,131,1
147,86,0,46,1
19,34,112,130,1
384,11,9,1,1
239,174,54,38,1
275,219,206,94,1
119,21,55,47,1
188,72,187,144,1
30,64,55,53,1
240,51,12,104,1
229,124,392,201,1
235,204,70,26,1
139,259,239,150,1
306,51,66,3,1
159,159,4,45,1
147,225,271,74,1
7,142,216,161,1
400,489,71,26,1
576,289,119,81,1
358,252,38,85,1
722,360,0,12,1
52,150,232,141,1
129,94,7,15,1
59,52,214,151,1
211,148,92,44,1
323,245,79,15,1
303,97,14,4,1
102,39,58,43,1
62,13,0,17,1
331,130,25,38,1
17,118,16,2,1
203,121,30,2,1
162,87,36,3,1
107,116,302,113,1
59,71,0,8,1
155,44,180,89,1
339,168,60,69,1
243,88,165,125,1
24,69,361,151,1
38,71,425,207,1
27,83,165,128,1
97,23,178,59,1
66,30,58,49,1
97,14,0,27,1
41,37,34,21,1
143,43,49,17,1
77,75,49,20,1
241,115,265,135,1
36,244,122,71,1
71,65,233,148,1
115,122,20,30,1
430,12,254,126,1
107,9,403,197,1
67,74,49,37,1
46,26,315,118,1
260,125,188,36,1
10,55,92,39,1
173,114,213,132,1
180,68,585,324,1
23,193,44,162,1
211,103,368,383,1
14,79,284,145,1
1,210,27,35,1
232,240,229,96,1
392,89,30,190,1
84,47,322,70,1
269,292,148,445,1
23,111,360,92,1
77,47,545,566,1
173,137,8,204,1
175,281,516,199,1
397,256,29,248,1
87,36,37,89,1
100,81,414,185,1
1,260,358,401,1
61,60,523,274,1
3,10,434,510,1
133,71,6,324,1
35,44,119,45,1
205,118,540,708,1
541,236,320,328,1
362,339,0,52,1
41,63,289,220,1
330,418,158,83,1
300,334,302,345,1
15,36,148,93,1
26,43,142,53,1
136,48,700,414,1
179,86,447,302,1
115,111,351,1,1
5,146,485,100,1
96,51,340,16,1
569,384,132,191,1
231,367,141,117,1
25,96,189,145,1
62,47,80,9,1
166,354,0,72,1
132,280,487,144,1
98,316,530,123,1
140,13,282,21,1
186,126,65,342,1
212,135,134,119,1
77,193,24,68,1
108,22,28,25,1
231,85,756,167,1
36,24,363,289,1
320,25,290,144,1
11,104,222,9,1
278,119,135,18,1
142,60,133,400,1
7,86,313,954,1
453,300,1023,1023,1
158,17,448,236,1
67,132,362,285,1
253,157,272,135,1
178,217,818,377,1
71,88,371,159,1
159,59,17,65,1
601,629,586,587,1
169,306,136,432,1
0,168,518,128,1
224,6,519,9,1
186,377,43,313,1
251,215,462,149,1
378,276,21,308,1
25,43,138,139,1
28,7,414,4,1
92,168,937,1023,1
489,242,974,628,1
407,304,224,582,1
292,183,216,407,1
113,129,67,369,1
263,110,381,15,1
176,402,103,382,1
289,220,146,61,1
21,23,48,231,1
246,59,0,7,1
81,73,739,807,1
224,128,200,149,1
257,136,898,449,1
132,29,263,134,1
357,523,567,559,1
37,113,62,78,1
302,8,1023,433,1
89,87,637,64,1
92,116,37,602,1
299,136,587,238,1
666,118,602,101,1
30,27,227,36,1
224,283,1,759,1
27,48,352,487,1
24,132,522,90,1
114,268,914,564,1
604,145,1023,121,1
180,359,53,1023,1
461,160,150,654,1
337,384,1023,989,1
35,355,438,16,1
4,109,130,582,1
0,105,248,532,1
162,129,453,69,1
353,331,5,187,1
217,84,1023,646,1
72,92,1023,1023,1
182,175,734,205,1
17,174,116,51,1
360,201,101,458,1
36,16,62,230,1
88,12,0,12,1
299,19,726,561,1
67,76,499,14,1
551,160,163,273,1
63,114,73,69,1
134,187,112,871,1
74,24,40,341,1
689,234,1023,863,1
39,289,1023,284,1
127,239,312,377,1
128,274,653,154,1
339,333,343,132,1
726,68,25,356,1
38,147,1023,675,1
399,360,345,688,1
65,89,346,122,1
212,64,315,82,1
1,56,601,6,1
176,134,1023,461,1
180,312,1023,789,1
261,60,1023,465,1
331,150,707,198,1
109,74,56,73,1
131,212,1023,749,1
26,59,1023,1023,1
358,317,616,208,1
6,148,108,28,1
49,169,210,175,1
113,75,341,12,1
271,175,165,288,1
78,144,1023,0,1
374,173,1023,370,1
261,177,775,1023,1
187,15,1023,1023,1
136,32,1023,1023,1
387,213,533,235,1
44,68,688,275,1
75,81,25,848,1
248,147,636,376,1
33,9,753,510,1
124,92,856,502,1
16,89,1023,344,1
92,159,1004,66,1
52,64,165,116,1
53,139,332,218,1
128,230,25,110,1
12,10,268,29,1
1,146,452,255,1
50,201,5,246,1
234,114,294,4,1
46,186,18,67,1
686,91,89,422,1
436,45,589,426,1
294,22,130,183,1
375,90,149,113,1
291,169,484,137,1
65,83,1023,189,1
174,150,192,170,1
55,136,11,176,1
21,546,313,86,1
68,493,313,69,1
161,135,171,79,1
84,78,733,555,1
344,487,887,736,1
205,153,616,444,1
175,99,190,169,1
363,151,34,200,1
163,69,28,51,1
740,638,553,127,1
915,1023,71,615,1
271,37,755,280,1
40,99,856,191,1
110,19,653,126,1
215,129,560,343,1
245,153,481,581,1
115,205,623,863,1
29,162,636,727,1
6,24,227,7,1
30,12,337,210,1
306,241,16,106,1
145,97,215,372,1
168,257,208,422,1
328,272,244,146,1
91,75,504,95,1
857,379,85,328,1
298,179,127,131,1
1,106,137,189,1
23,130,461,228,1
405,212,43,203,1
101,25,192,22,1
123,52,629,377,1
250,265,442,925,1
185,149,308,112,1
207,221,351,299,1
67,35,22,10,1
383,182,203,18,1
135,24,89,243,1
547,607,306,46,1
566,55,235,286,1
266,223,562,36,1
37,18,243,525,1
30,225,320,101,1
171,153,346,312,1
90,146,24,142,1
139,36,150,329,1
167,177,101,258,1
98,48,174,35,1
194,135,380,52,1
77,115,21,368,1
55,23,111,152,1
433,275,15,175,1
169,126,235,36,1
132,28,669,116,1
156,112,874,117,1
58,243,538,183,1
49,223,596,476,1
492,275,569,141,1
57,276,249,65,1
24,176,385,87,1
159,221,135,30,1
96,62,67,208,1
287,129,361,120,1
684,64,110,57,1
26,160,0,187,1
43,136,37,109,1
44,208,591,154,1
98,263,451,133,1
23,70,817,78,1
1,38,411,112,1
190,24,17,473,1
133,51,230,61,1
50,135,300,113,1
75,224,15,169,1
336,198,155,5,1
98,92,80,57,1
278,18,115,43,1
325,104,291,337,1
291,90,536,136,1
439,393,826,139,1
335,252,219,104,1
3,121,31,45,1
286,97,111,137,1
19,43,189,266,1
9,50,344,213,1
261,158,404,194,1
11,14,168,128,1
75,77,742,532,1
176,39,575,181,1
155,65,127,303,1
216,144,224,246,1
29,23,91,159,1
0,138,237,55,1
220,82,1,270,1
80,124,367,21,1
215,330,429,59,1
29,109,737,58,1
67,24,124,6,1
95,29,13,18,1
185,151,133,72,1
103,20,162,165,1
162,136,203,175,1
141,30,316,208,1
156,121,314,135,1
74,60,168,61,1
13,69,61,62,1
82,14,200,272,1
162,275,69,5,1
159,327,257,302,1
125,230,218,6,1
212,58,65,325,1
78,166,189,143,1
7,40,104,277,1
158,150,633,369,1
191,222,43,17,1
204,34,183,223,1
56,8,605,72,1
97,69,656,80,1
300,81,378,266,1
211,305,38,115,1
222,181,140,39,1
98,91,88,107,1
136,77,397,215,1
46,179,597,426,1
129,103,748,279,1
88,19,391,145,1
29,21,178,273,1
258,186,331,37,1
672,229,143,15,1
153,299,273,42,1
55,97,365,62,1
161,6,40,31,1
206,117,200,103,1
86,120,189,14,1
107,246,228,39,1
15,139,79,34,1
278,23,181,61,1
8,74,92,61,1
82,15,8,3,1
161,152,50,110,1
184,18,66,3,1
179,107,150,17,1
30,73,177,180,1
235,57,66,135,1
9,44,0,102,1
261,11,352,124,1
42,112,157,43,1
33,34,426,74,1
126,154,149,151,1
240,135,101,3,1
34,57,136,46,1
29,116,312,199,1
251,156,146,120,1
119,95,99,56,1
256,444,23,70,1
23,214,73,75,1
265,174,300,123,1
24,25,263,259,1
115,42,73,293,1
352,37,157,152,1
50,28,153,164,1
114,14,241,19,1
17,159,170,14,1
144,118,410,46,1
3,28,58,307,1
89,93,513,199,1
192,21,35,69,1
6,14,297,252,1
86,84,48,22,1
175,26,158,85,1
152,28,122,39,1
192,150,169,47,1
218,316,144,88,1
117,236,423,435,1
193,396,656,131,1
62,84,259,345,1
42,172,518,88,1
4,75,121,140,1
17,288,22,14,1
20,6,248,82,1
174,51,331,254,1
90,137,61,103,1
123,39,372,246,1
132,81,298,87,1
48,6,0,21,1
15,24,231,160,1
36,141,115,10,1
98,14,153,174,1
2,14,96,4,1
121,175,147,22,1
140,32,0,59,1
151,102,249,107,1
8,8,268,85,1
70,20,320,385,1
141,37,218,57,1
213,89,156,84,1
126,60,302,33,1
67,109,283,2,1
50,20,189,159,1
217,118,84,110,1
31,105,18,84,1
127,259,75,49,1
31,142,116,27,1
154,51,15,33,1
44,43,15,8,1
458,12,113,22,1
57,83,195,143,1
159,124,47,129,1
293,281,20,142,1
54,179,28,30,1
10,182,111,59,1
38,143,2,83,1
270,222,208,187,1
143,59,200,261,1
10,14,217,71,1
75,106,171,96,1
19,70,28,45,1
199,299,80,3,1
121,215,0,9,1
96,56,29,133,1
33,116,0,25,1
38,171,263,1,1
47,47,145,77,1
147,136,133,11,1
0,122,15,41,1
50,257,0,17,1
27,9,53,61,1
69,50,158,142,1
121,210,433,111,1
60,95,347,28,1
45,157,144,108,1
60,156,368,324,1
21,95,0,48,1
148,260,385,288,1
226,197,64,1,1
457,353,133,43,1
18,21,510,108,1
130,42,503,53,1
206,50,165,141,1
150,41,2,4,1
36,104,22,52,1
123,15,138,108,1
220,132,133,78,1
230,290,2,1,1
91,266,0,35,1
203,12,221,60,1
13,118,187,124,1
163,148,0,32,1
67,44,438,359,1
15,70,25,302,1
212,178,55,7,1
90,90,366,19,1
198,22,0,5,1
128,120,74,56,1
7,56,2,78,1
223,106,206,8,1
12,246,239,62,1
303,153,100,69,1
206,29,25,59,1
42,28,293,3,1
3,188,322,94,1
31,121,20,74,1
81,57,101,100,1
27,65,0,113,1
214,99,435,241,1
237,172,153,25,1
24,169,413,338,1
88,81,394,126,1
227,126,32,290,1
150,179,169,86,1
39,47,182,416,1
6,142,202,73,1
22,138,467,356,1
40,157,414,839,1
251,275,1023,1023,1
409,459,246,546,1
251,93,396,204,1
325,211,162,239,1
127,130,229,135,1
115,83,204,47,1
90,127,226,40,1
422,340,318,216,1
109,26,345,105,1
142,42,333,183,1
120,104,38,378,1
360,292,280,343,1
25,14,0,66,1
139,122,68,88,1
63,27,288,180,1
138,80,66,11,1
267,53,344,64,1
143,235,162,44,1
331,331,34,22,1
66,9,146,181,1
112,59,1023,613,1
261,133,230,141,1
40,90,796,1023,1
49,29,43,179,1
183,161,271,66,1
185,436,252,125,1
118,213,308,282,1
177,236,421,331,1
102,8,533,67,1
66,171,265,432,1
21,43,868,225,1
153,34,143,200,1
510,403,345,415,1
65,72,78,16,1
50,27,486,92,1
340,147,1023,193,1
221,106,202,178,1
104,27,424,614,1
248,30,5,113,1
143,114,129,15,1
268,59,400,50,1
81,119,226,128,1
129,35,710,450,1
396,174,43,190,1
87,62,834,321,1
219,129,149,381,1
225,87,216,227,1
7,115,213,35,1
552,150,242,270,1
138,287,782,117,1
156,9,269,340,1
51,289,41,514,1
145,215,666,483,1
205,137,849,452,1
210,144,274,249,1
635,444,481,68,1
110,96,425,122,1
187,178,291,117,1
28,24,674,57,1
115,99,1023,446,1
453,305,973,7,1
4,153,1023,619,1
494,259,732,83,1
22,52,666,864,1
154,183,558,539,1
93,161,398,126,1
78,131,259,38,1
443,465,149,55,1
101,353,963,229,1
231,62,101,798,1
251,199,1023,772,1
103,114,615,850,1
270,85,936,670,1
64,119,697,625,1
130,179,871,742,1
70,137,152,165,1
380,19,834,570,1
78,47,678,192,1
266,65,595,222,1
190,26,357,1023,1
870,367,1023,1023,1
164,11,576,132,1
367,16,940,1023,1
89,46,141,102,1
304,233,834,258,1
91,190,406,370,1
235,296,1023,208,1
96,224,636,181,1
166,231,0,377,1
125,57,81,12,1
364,474,546,683,1
57,212,888,783,1
369,342,209,30,1
84,209,66,203,1
100,79,108,113,1
67,69,725,284,1
87,186,1023,110,1
356,185,361,156,1
464,588,870,1023,1
167,409,1023,1023,1
24,254,1023,1003,1
188,75,963,738,1
12,86,121,543,1
370,267,114,221,1
268,335,493,31,1
171,144,601,43,1
42,93,1023,68,1
71,458,409,556,1
266,75,940,168,1
22,80,503,154,1
117,170,70,120,1
216,290,537,92,1
35,92,624,671,1
420,15,651,268,1
66,177,874,372,1
20,22,114,211,1
254,124,59,284,1
139,54,1023,339,1
274,159,663,621,1
94,33,695,135,1
824,372,399,100,1
409,208,343,460,1
316,244,630,89,1
200,49,349,141,1
93,363,228,229,1
21,109,1023,123,1
138,64,93,12,1
491,39,131,446,1
151,304,79,330,1
501,241,393,401,1
113,131,830,694,1
231,121,273,79,1
123,131,966,235,1
567,574,172,324,1
349,594,97,458,1
577,565,565,410,1
140,377,353,95,1
182,20,518,411,1
318,29,389,302,1
190,39,122,28,1
182,36,771,121,1
139,81,402,174,1
37,175,298,65,1
41,122,442,104,1
39,128,346,561,1
25,95,665,176,1
31,18,125,308,1
37,54,595,539,1
142,131,473,600,1
113,328,56,133,1
24,91,145,212,1
89,343,344,242,1
49,83,325,9,1
285,169,332,1,1
423,273,398,35,1
218,179,180,322,1
316,32,555,415,1
390,209,135,19,1
347,11,61,251,1
29,113,259,306,1
112,27,276,137,1
171,24,120,164,1
43,60,150,131,1
97,101,567,12,1
5,20,315,69,1
223,70,55,163,1
299,19,306,388,1
540,449,586,534,1
204,125,0,50,1
14,184,35,72,1
241,62,442,231,1
160,61,655,121,1
19,33,917,94,1
167,7,579,235,1
261,87,45,51,1
96,198,862,361,1
226,99,0,198,1
73,17,207,417,1
66,138,8,20,1
373,386,376,364,1
197,204,218,309,1
197,265,41,6,1
93,356,410,337,1
174,234,147,244,1
73,57,564,469,1
17,66,238,351,1
233,291,596,39,1
52,121,598,705,1
18,29,486,145,1
290,174,348,117,1
170,168,140,23,1
22,65,610,109,1
44,82,393,209,1
38,7,329,774,1
376,343,187,615,1
10,58,418,720,1
30,60,904,559,1
20,151,131,94,1
132,50,205,66,1
214,12,71,66,1
205,368,5,245,1
728,373,372,77,1
72,62,354,226,1
51,40,342,125,1
151,10,162,34,1
274,102,112,68,1
260,229,572,197,1
160,298,65,179,1
240,129,97,258,1
234,196,159,690,1
103,138,663,964,1
69,245,673,109,1
338,261,21,936,1
66,133,28,39,1
9,126,468,145,1
327,203,400,369,1
426,289,968,494,1
35,18,57,287,1
164,217,867,657,1
41,183,121,321,1
204,98,462,12,1
126,27,49,125,1
116,19,136,211,1
16,220,178,231,1
124,29,129,151,1
181,151,28,107,1
170,135,167,234,1
123,157,247,13,1
267,267,392,173,1
140,104,583,106,1
39,9,54,65,1
191,181,434,179,1
10,74,194,79,1
139,145,99,57,1
342,55,210,33,1
273,84,496,3,1
3,49,249,94,1
8,72,154,125,1
31,73,345,64,1
43,17,131,243,1
102,147,294,333,1
155,140,317,130,1
379,183,132,204,1
593,496,95,95,1
34,7,21,95,1
366,215,480,379,1
263,135,264,456,1
2,19,382,2,1
87,100,70,202,1
187,122,287,181,1
74,204,328,306,1
147,119,122,67,1
16,57,78,192,1
172,40,148,164,1
11,135,327,18,1
310,427,402,227,1
11,42,505,434,1
149,44,626,213,1
214,117,70,484,1
378,258,388,611,1
419,483,139,1023,1
210,218,3,13,1
214,259,268,108,1
87,83,19,138,1
150,73,206,179,1
204,23,0,39,1
51,25,83,41,1
194,29,4,81,1
225,170,272,141,1
13,92,0,4,1
151,119,35,61,1
142,28,0,237,1
91,115,452,115,1
16,31,358,211,1
208,8,480,98,1
154,7,209,312,1
67,6,37,106,1
146,131,313,1,1
8,121,87,188,1
191,192,251,55,1
105,75,276,205,1
217,31,43,6,1
3,83,177,22,1
174,187,311,309,1
99,38,104,13,1
87,26,487,534,1
142,133,148,255,1
761,275,263,115,1
303,91,465,198,1
32,53,24,48,1
425,161,653,259,1
81,100,249,25,1
154,191,101,26,1
214,11,339,181,1
287,17,77,165,1
177,31,22,84,1
11,66,246,67,1
130,136,269,197,1
39,88,362,104,1
22,49,232,176,1
110,13,128,50,1
10,236,363,277,1
315,66,57,3,1
0,27,199,137,1
23,239,28,73,1
229,18,25,109,1
17,363,746,127,1
40,34,240,98,1
138,108,494,330,1
116,120,305,281,1
204,80,319,48,1
194,302,29,64,1
157,196,84,29,1
35,34,45,24,1
305,32,23,88,1
29,122,0,192,1
71,47,1,25,1
162,19,298,128,1
185,269,57,15,1
154,16,208,18,1
82,254,143,12,1
210,133,132,13,1
38,123,344,110,1
235,116,202,204,1
109,129,63,31,1
31,6,322,194,1
19,112,107,27,1
60,77,250,150,1
108,16,38,23,1
119,148,25,80,1
153,304,121,43,1
310,39,46,28,1
11,109,29,9,1
91,83,129,224,1
339,100,68,206,1
176,52,120,12,1
265,160,481,180,1
40,21,413,143,1
17,67,457,74,1
18,28,356,304,1
143,29,219,366,1
286,142,78,115,1
91,43,41,9,1
40,174,28,48,1
149,233,155,32,1
42,41,57,76,1
102,285,52,31,1
65,171,156,162,1
16,75,0,49,1
55,47,0,205,1
204,133,0,103,1
48,41,165,26,1
51,37,162,55,1
13,36,106,19,1
191,11,81,227,1
77,49,1,29,1
150,17,50,76,1
97,31,321,94,1
417,311,12,86,1
147,207,209,5,1
234,80,360,273,1
7,118,361,263,1
10,122,10,127,1
101,14,4,11,1
310,321,51,43,1
154,73,112,107,1
205,39,66,71,1
156,109,493,291,1
254,7,483,29,1
153,44,57,228,1
47,5,25,60,1
153,33,243,42,1
162,158,199,162,1
81,76,197,303,1
415,381,599,139,1
224,133,81,135,1
74,117,392,131,1
32,25,91,24,1
128,9,69,109,1
131,146,166,117,1
1,74,139,72,1
403,207,184,45,1
333,14,98,70,1
18,69,0,12,1
264,159,263,209,1
251,194,460,141,1
149,166,132,7,1
130,12,256,145,1
135,178,244,339,1
97,191,161,56,1
14,29,118,118,1
83,178,273,214,1
43,167,495,288,1
284,190,215,70,1
210,276,258,280,1
353,119,337,310,1
14,26,374,471,1
115,112,212,100,1
58,212,420,564,1
81,108,354,202,1
41,38,343,80,1
82,184,768,181,1
391,270,118,152,1
40,75,185,270,1
1,182,67,115,1
216,225,21,35,1
102,108,221,12,1
140,216,99,34,1
19,268,69,32,1
175,115,308,438,1
7,7,162,99,1
256,110,145,242,1
122,18,203,172,1
261,211,380,91,1
451,309,715,141,1
384,197,771,60,1
125,83,565,273,1
160,134,249,92,1
174,149,909,659,1
329,40,500,70,1
186,159,180,44,1
223,217,468,232,1
165,16,275,469,1
358,97,634,32,1
22,76,3,172,1
130,35,164,179,1
40,304,838,548,1
27,181,395,214,1
203,32,79,3,1
292,179,410,52,1
121,184,10,191,1
109,293,42,34,1
4,175,282,375,1
79,31,385,9,1
167,245,296,79,1
959,417,15,287,1
203,21,8,275,1
105,105,38,145,1
65,46,184,14,1
8,104,99,140,1
69,220,489,33,1
440,507,474,332,1
122,125,637,391,1
83,372,140,44,1
213,19,973,269,1
354,201,288,21,1
356,279,247,69,1
82,19,339,52,1
498,225,179,148,1
28,15,127,308,1
53,45,550,207,1
146,14,293,16,1
157,75,488,112,1
237,89,598,219,1
128,26,184,365,1
214,172,115,155,1
120,117,64,209,1
461,279,165,422,1
441,55,380,1023,1
8,233,148,52,1
421,376,745,462,1
153,105,582,402,1
458,288,273,126,1
10,289,203,77,1
164,185,761,614,1
47,55,743,202,1
97,19,606,290,1
255,105,475,169,1
127,142,69,55,1
314,201,715,34,1
444,298,885,675,1
256,233,530,60,1
331,394,346,412,1
281,71,405,254,1
90,304,438,1023,1
205,93,574,767,1
146,168,2,217,1
21,53,111,69,1
312,42,463,767,1
9,404,293,425,1
380,182,423,433,1
258,9,0,202,1
101,30,1023,125,1
10,73,840,86,1
122,127,326,775,1
101,140,206,622,1
16,97,557,585,1
31,111,860,361,1
523,453,302,20,1
378,177,720,68,1
164,131,1023,706,1
65,103,236,490,1
188,212,917,673,1
163,163,132,420,1
109,34,43,242,1
532,31,783,805,1
76,345,1023,693,1
38,343,135,124,1
33,140,1023,390,1
32,110,1023,242,1
52,61,383,207,1
476,497,442,264,1
60,113,432,618,1
48,124,157,325,1
142,60,454,159,1
404,386,678,138,1
48,324,1023,271,1
163,233,475,116,1
213,35,75,599,1
159,186,456,461,1
159,163,1023,569,1
77,301,1023,1023,1
117,82,62,417,1
38,46,121,103,1
17,296,436,382,1
314,43,449,238,1
95,63,1023,586,1
93,148,627,302,1
304,89,277,271,1
119,39,1023,719,1
250,181,1023,1001,1
197,271,124,256,1
22,273,662,298,1
104,415,234,36,1
139,33,1023,547,1
118,239,1023,53,1
20,61,326,417,1
34,172,60,413,1
109,21,232,145,1
15,126,260,12,1
95,78,134,201,1
62,37,400,22,1
33,65,7,83,1
58,82,539,126,1
116,68,10,235,1
64,75,103,320,1
144,158,859,418,1
134,143,901,408,1
44,16,508,168,1
33,15,707,4,1
165,99,508,494,1
4,95,813,237,1
326,645,948,412,1
344,47,718,398,1
102,228,539,150,1
527,270,230,84,1
7,183,156,48,1
5,494,896,354,1
167,131,336,47,1
1,103,151,216,1
42,143,287,134,1
6,22,194,153,1
5,105,222,166,1
133,253,377,260,1
26,125,427,157,1
186,91,12,67,1
29,214,214,175,1
424,289,62,793,1
319,189,101,1023,1
91,10,226,33,1
101,55,135,38,1
153,12,171,171,1
169,9,143,190,1
160,163,628,259,1
84,91,426,302,1
450,173,4,84,1
104,24,131,50,1
31,89,815,516,1
104,353,586,74,1
33,330,622,754,1
2,81,4,355,1
32,110,96,83,1
120,60,147,97,1
241,28,658,313,1
290,142,75,79,1
304,44,44,365,1
147,337,0,120,1
516,505,97,332,1
29,26,103,40,1
266,135,433,282,1
8,410,399,159,1
226,282,384,74,1
375,218,104,190,1
20,121,163,291,1
175,99,150,423,1
139,144,22,210,1
3,35,152,28,1
77,16,325,273,1
379,88,248,18,1
57,103,6,157,1
252,25,269,247,1
252,92,385,235,1
105,278,153,854,1
298,233,326,750,1
29,86,158,146,1
196,58,99,159,1
134,99,243,154,1
111,96,75,78,1
16,71,282,175,1
122,359,885,584,1
49,135,170,443,1
194,117,88,376,1
53,46,331,226,1
75,41,333,331,1
33,59,608,324,1
191,140,199,53,1
151,20,121,376,1
169,108,163,147,1
148,53,232,388,1
61,80,9,44,1
6,118,593,24,1
88,128,64,60,1
206,10,306,164,1
79,230,125,315,1
22,25,469,103,1
189,56,473,21,1
415,237,82,169,1
185,32,370,228,1
71,231,19,264,1
221,163,538,9,1
98,10,33,73,1
300,228,177,3,1
304,154,209,39,1
494,206,144,41,1
66,25,99,551,1
144,175,113,202,1
84,70,457,196,1
18,232,103,117,1
267,140,563,322,1
73,26,189,79,1
36,7,399,253,1
151,141,208,69,1
469,361,4,144,1
56,39,204,162,1
1,86,238,381,1
237,401,195,256,1
129,91,478,272,1
79,34,273,125,1
42,100,206,54,1
44,39,133,49,1
42,130,133,111,1
469,202,60,124,1
232,165,456,366,1
248,190,404,276,1
46,66,356,10,1
245,94,163,63,1
59,35,403,104,1
247,72,158,17,1
507,281,125,154,1
35,230,19,96,1
28,76,82,62,1
63,83,58,6,1
139,122,145,101,1
195,60,71,4,1
10,87,396,435,1
208,35,58,135,1
159,150,263,163,1
131,10,187,174,1
135,87,430,135,1
315,167,149,119,1
205,277,781,132,1
193,236,236,242,1
111,103,346,146,1
390,124,0,76,1
29,36,231,205,1
122,194,204,284,1
283,281,114,4,1
50,190,10,95,1
165,11,23,22,1
226,67,36,16,1
16,82,59,8,1
38,94,354,109,1
45,43,533,143,1
13,17,901,153,1
87,105,570,675,1
30,150,38,53,1
47,128,84,143,1
148,62,833,856,1
183,324,167,255,1
276,332,565,337,1
123,127,284,210,1
14,220,151,72,1
64,158,198,211,1
175,128,331,60,1
204,168,75,102,1
136,371,0,67,1
187,197,659,269,1
586,341,5,24,1
116,14,127,44,1
32,42,543,266,1
53,62,99,65,1
67,16,126,399,1
358,185,161,39,1
317,173,12,121,1
28,55,126,49,1
20,23,0,251,1
135,10,26,129,1
4,117,395,311,1
63,112,121,20,1
15,89,34,8,1
217,231,109,28,1
421,112,252,32,1
255,56,76,14,1
37,181,39,161,1
216,61,233,159,1
208,29,148,41,1
4,15,154,51,1
56,25,151,77,1
29,37,220,280,1
12,65,38,214,1
57,143,146,106,1
49,6,74,209,1
78,84,174,152,1
91,140,72,8,1
156,21,261,175,1
44,23,3,2,1
158,232,72,213,1
31,6,24,13,1
126,46,233,153,1
53,100,117,4,1
272,210,54,23,1
74,26,175,119,1
98,95,183,170,1
49,95,21,56,1
99,118,243,182,1
162,9,66,5,1
85,57,30,46,1
14,156,12,407,1
213,161,0,198,1
362,321,307,220,1
122,35,315,139,1
241,10,730,333,1
263,331,661,277,1
327,243,459,313,1
136,135,105,31,1
138,85,158,97,1
101,57,149,104,1
2,42,30,52,1
52,134,129,47,1
120,110,17,21,1
118,110,3,37,1
27,119,180,204,1
50,70,401,273,1
9,35,465,492,1
77,113,0,333,1
229,21,218,45,1
95,224,170,177,1
120,191,85,31,1
206,124,0,86,1
30,40,97,42,1
94,14,275,15,1
39,120,0,66,1
198,138,0,21,1
322,151,29,41,1
277,120,59,89,1
202,23,319,54,1
75,55,23,247,1
15,11,96,147,1
284,110,284,214,1
178,69,187,88,1
26,45,23,39,1
3,127,262,123,1
94,226,130,10,1
20,8,34,29,1
95,14,99,41,1
11,11,169,6,1
121,42,90,31,1
267,76,209,33,1
70,71,75,35,1
17,135,171,70,1
69,66,23,19,1
69,42,66,116,1
115,43,416,118,1
487,98,525,204,1
157,138,261,178,1
48,128,79,62,1
81,78,146,1,1
60,70,220,140,1
69,163,354,191,1
190,206,0,84,1
483,257,267,129,1
87,70,154,56,1
37,55,19,47,1
114,38,115,127,1
64,6,21,89,1
142,17,90,138,1
257,214,1,90,1
214,103,320,151,1
105,103,154,2,1
152,70,203,141,1
63,43,114,93,1
66,207,300,198,1
96,128,78,42,1
198,39,38,295,1
59,23,116,120,1
162,8,418,618,1
21,86,185,167,1
90,126,253,108,1
94,262,63,27,1
320,126,301,227,1
36,83,34,85,1
59,212,122,341,1
15,77,62,191,1
59,201,63,41,1
18,49,439,17,1
57,30,158,117,1
73,96,163,130,1
144,205,457,70,1
11,207,339,18,1
153,185,477,177,1
212,211,205,241,1
178,151,361,33,1
213,73,178,594,1
27,188,675,513,1
7,115,147,43,1
33,179,312,903,1
2,6,13,4,1
121,91,124,99,1
25,152,79,49,1
73,158,104,241,1
449,416,550,77,1
658,33,748,463,1
181,297,97,209,1
47,133,44,351,1
109,102,200,168,1
66,102,409,54,1
110,165,382,65,1
114,145,3,30,1
186,57,454,234,1
406,60,276,55,1
21,226,360,696,1
41,29,214,57,1
53,150,62,468,1
55,333,444,108,1
92,78,97,342,1
74,162,37,167,1
51,12,942,585,1
12,113,487,80,1
314,209,204,679,1
602,321,758,420,1
131,98,819,491,1
8,178,108,278,1
105,142,888,1003,1
52,18,284,546,1
127,111,265,145,1
77,40,443,33,1
38,138,324,162,1
163,178,296,352,1
44,123,377,454,1
309,123,1023,707,1
148,67,309,406,1
67,26,553,452,1
191,41,896,99,1
266,207,1023,530,1
105,320,48,121,1
39,192,742,213,1
203,66,234,453,1
51,79,466,658,1
58,171,75,252,1
15,53,178,323,1
26,54,415,72,1
53,23,299,502,1
145,44,665,321,1
51,195,298,195,1
791,282,258,155,1
9,66,310,96,1
57,258,767,406,1
463,52,1023,1023,1
61,49,1023,1023,1
41,129,207,287,1
42,7,34,418,1
194,41,61,391,1
141,35,551,548,1
156,27,34,64,1
128,170,532,549,1
20,7,366,150,1
114,117,226,483,1
192,64,29,97,1
41,39,609,16,1
206,84,23,138,1
48,84,566,674,1
295,121,1023,897,1
209,511,95,142,1
64,81,575,454,1
13,34,606,371,1
275,284,416,9,1
278,266,140,50,1
317,11,509,1023,1
314,58,853,1023,1
177,224,250,555,1
19,75,726,319,1
486,434,20,185,1
230,239,1023,260,1
106,147,437,156,1
296,18,988,761,1
137,83,1023,1023,1
31,155,718,772,1
137,131,1022,409,1
189,144,652,1023,1
74,5,1023,1023,1
180,62,178,74,1
507,377,451,379,1
327,64,638,373,1
119,24,805,530,1
23,136,270,417,1
57,121,1023,997,1
191,145,1023,1023,1
23,284,1023,133,1
50,130,619,414,1
125,57,94,223,1
263,319,686,294,1
144,301,778,294,1
380,173,506,28,1
56,60,851,825,1
62,21,1023,554,1
39,170,130,507,1
19,176,273,125,1
270,186,298,57,1
0,152,1023,666,1
225,24,701,253,1
343,178,308,314,1
251,13,175,99,1
380,477,14,104,1
215,99,834,173,1
47,210,363,325,1
290,315,774,548,1
38,31,738,201,1
541,572,587,602,1
643,487,625,883,1
127,295,608,1023,1
269,535,636,386,1
147,106,568,57,1
122,240,351,25,1
11,71,77,19,1
232,104,106,38,1
32,100,128,211,1
52,87,116,33,1
93,241,66,16,1
27,28,59,454,1
224,18,71,513,1
46,55,344,432,1
552,346,235,107,1
113,96,104,709,1
66,228,174,221,1
392,19,224,141,1
207,135,1023,340,1
4,166,719,254,1
338,186,17,39,1
0,199,366,131,1
132,110,349,197,1
46,53,176,228,1
0,40,140,166,1
98,168,370,171,1
41,101,22,14,1
153,21,360,530,1
43,135,253,795,1
55,96,213,289,1
110,201,253,3,1
113,272,7,67,1
371,224,228,135,1
399,251,196,216,1
74,29,616,74,1
476,367,219,49,1
67,155,392,384,1
123,258,717,95,1
356,103,617,179,1
360,246,300,526,1
51,18,95,171,1
156,85,239,45,1
93,218,341,234,1
38,80,656,247,1
47,57,144,195,1
251,106,93,204,1
74,60,489,489,1
104,174,360,484,1
62,38,0,258,1
33,46,231,55,1
230,9,613,263,1
114,39,3,56,1
289,99,45,35,1
28,140,554,450,1
135,121,106,72,1
41,85,76,91,1
70,10,50,2,1
8,211,204,90,1
332,148,553,134,1
102,109,445,57,1
42,205,725,17,1
62,160,81,67,1
198,23,297,90,1
226,55,32,50,1
166,9,139,4,1
107,90,54,135,1
226,92,280,132,1
125,194,2,856,1
50,56,140,236,1
288,92,206,107,1
120,176,18,404,1
137,15,38,68,1
291,213,94,12,1
505,97,191,229,1
163,23,56,177,1
389,389,586,257,1
176,26,484,368,1
185,41,168,34,1
314,20,542,113,1
536,220,236,19,1
51,38,398,113,1
24,196,217,132,1
70,13,650,269,1
226,67,219,159,1
44,15,70,82,1
195,312,722,63,1
10,105,491,166,1
19,81,244,415,1
26,144,381,141,1
17,12,2,23,1
133,254,319,62,1
145,222,115,145,1
421,35,185,81,1
307,55,103,19,1
162,53,293,223,1
267,268,534,131,1
443,281,323,432,1
381,206,24,847,1
114,111,0,788,1
328,157,0,201,1
47,41,536,386,1
150,111,535,83,1
195,45,135,62,1
84,264,225,54,1
316,313,410,289,1
81,19,228,142,1
157,187,386,159,1
159,64,137,29,1
111,7,0,36,1
108,98,124,21,1
399,114,79,66,1
4,209,35,304,1
14,59,55,222,1
194,205,421,141,1
2,17,12,83,1
61,86,240,312,1
4,10,333,182,1
114,130,378,369,1
186,233,158,603,1
218,149,383,228,1
468,510,48,138,1
56,40,758,32,1
56,33,785,128,1
565,163,309,308,1
565,36,425,107,1
32,131,106,335,1
192,85,154,337,1
139,91,47,64,1
117,178,225,16,1
427,213,231,96,1
149,275,242,46,1
40,229,257,91,1
130,14,156,8,1
7,242,94,159,1
23,82,230,124,1
40,119,118,149,1
178,135,50,295,1
251,76,53,205,1
111,194,197,254,1
143,153,494,350,1
75,107,98,96,1
216,92,9,66,1
52,89,281,243,1
315,299,385,14,1
65,48,373,98,1
37,243,239,155,1
59,10,251,94,1
129,20,662,93,1
34,170,344,264,1
2,101,192,284,1
103,154,395,331,1
321,239,234,4,1
28,113,27,97,1
53,7,332,538,1
10,61,26,383,1
198,153,0,85,1
306,190,327,316,1
100,228,16,114,1
66,17,417,436,1
24,30,29,161,1
213,168,46,48,1
423,374,197,7,1
41,33,501,293,1
24,63,19,218,1
8,62,499,902,1
65,110,265,218,1
7,122,444,429,1
288,194,0,17,1
288,175,207,259,1
418,320,192,178,1
174,37,0,25,1
176,210,53,26,1
40,117,35,30,1
239,105,58,76,1
483,257,199,43,1
78,85,218,114,1
148,18,309,382,1
233,174,33,90,1
26,54,626,247,1
217,194,149,323,1
8,51,549,415,1
62,116,272,245,1
241,106,94,91,1
7,33,586,409,1
144,200,424,9,1
22,57,175,241,1
118,51,63,53,1
44,150,169,149,1
134,41,194,14,1
51,17,210,24,1
150,164,52,21,1
118,17,222,71,1
98,377,287,145,1
60,55,180,276,1
80,82,43,437,1
254,57,78,46,1
106,119,129,286,1
39,49,4,71,1
55,29,267,32,1
92,193,425,28,1
123,264,272,367,1
20,79,169,14,1
126,47,138,65,1
237,162,91,10,1
37,100,0,33,1
81,7,24,54,1
46,28,307,176,1
70,15,18,149,1
347,168,230,148,1
255,26,94,85,1
327,191,515,284,1
10,48,249,162,1
21,101,573,431,1
107,70,52,9,1
172,101,57,39,1
29,52,131,23,1
54,112,203,29,1
238,150,147,43,1
38,42,0,88,1
307,216,54,1,1
177,63,25,83,1
271,218,267,157,1
145,68,168,305,1
108,117,265,157,1
25,13,342,285,1
198,270,182,123,1
80,14,175,41,1
69,52,183,237,1
365,335,71,31,1
31,118,1,138,1
63,73,96,29,1
6,43,6,79,1
324,41,41,88,1
91,122,294,116,1
322,247,238,140,1
294,82,176,24,1
15,57,44,149,1
68,171,325,70,1
49,19,339,156,1
11,49,86,151,1
19,23,30,13,1
94,13,229,146,1
87,37,477,176,1
153,72,522,131,1
184,258,171,64,1
213,161,163,134,1
220,142,413,283,1
179,254,76,9,1
239,392,349,412,1
413,460,10,30,1
55,133,94,111,1
183,33,165,85,1
56,123,239,151,1
166,78,216,92,1
4,64,172,111,1
10,133,19,3,1
113,125,292,188,1
54,142,43,6,1
33,40,0,113,1
108,137,80,58,1
250,91,11,114,1
78,11,135,108,1
162,114,177,176,1
18,23,119,82,1
15,51,356,133,1
70,66,224,139,1
30,170,115,1,1
74,69,204,390,1
123,132,116,108,1
218,100,371,197,1
244,249,21,10,1
86,11,16,69,1
121,197,567,260,1
171,390,480,1,1
43,227,291,120,1
24,104,74,45,1
76,251,145,16,1
133,66,150,26,1
42,54,222,76,1
138,57,343,56,1
84,70,20,49,1
108,10,84,4,1
22,13,23,34,1
159,131,263,154,1
237,204,254,260,1
172,15,9,255,1
88,19,163,49,1
465,446,194,570,1
154,93,6,19,1
91,88,410,224,1
1,181,207,191,1
130,46,138,107,1
51,148,153,91,1
33,207,250,131,1
154,158,136,15,1
119,200,127,21,1
45,79,388,126,1
202,111,17,48,1
79,28,43,139,1
50,62,436,215,1
147,69,379,286,1
417,156,394,259,1
2,265,159,21,1
43,32,9,100,1
65,48,873,347,1
156,27,529,47,1
227,267,81,412,1
240,356,598,492,1
379,496,27,47,1
513,371,96,118,1
350,294,7,120,1
438,207,87,107,1
101,385,40,21,1
268,236,120,90,1
230,108,26,252,1
422,267,0,302,1
121,111,555,298,1
33,45,193,29,1
173,77,125,101,1
12,34,174,26,1
59,112,454,168,1
104,121,3,20,1
226,25,62,44,1
8,11,29,159,1
40,97,158,189,1
60,45,225,133,1
120,33,122,258,1
118,25,380,270,1
439,460,332,136,1
41,22,464,244,1
281,252,428,52,1
129,239,558,298,1
324,363,463,57,1
324,216,495,769,1
67,76,634,313,1
230,102,123,491,1
291,178,785,820,1
714,275,787,117,1
17,16,215,218,1
108,86,482,45,1
140,55,477,94,1
162,504,64,23,1
33,49,359,83,1
466,105,43,169,1
262,23,0,79,1
145,103,107,421,1
211,128,436,561,1
194,40,408,234,1
305,142,146,193,1
51,116,854,1023,1
145,28,734,136,1
173,156,621,394,1
72,109,684,166,1
70,26,291,275,1
32,21,819,368,1
99,280,901,994,1
133,214,174,335,1
330,291,1023,1023,1
238,103,15,36,1
59,16,1023,506,1
90,26,250,47,1
1,42,82,308,1
302,146,310,47,1
476,101,334,725,1
161,51,151,593,1
64,26,654,786,1
90,31,1023,862,1
354,151,770,58,1
301,238,18,442,1
187,62,171,75,1
398,377,620,313,1
468,321,868,226,1
64,35,291,171,1
66,111,574,482,1
25,15,25,251,1
193,170,808,580,1
359,84,11,593,1
60,39,254,414,1
138,296,459,261,1
204,46,458,366,1
57,35,11,242,1
222,175,605,231,1
59,22,171,65,1
296,150,306,302,1
365,187,980,517,1
201,359,422,49,1
147,228,1023,212,1
139,246,559,547,1
12,92,1023,715,1
161,168,208,204,1
330,203,597,290,1
178,220,13,179,1
41,93,569,652,1
330,67,630,412,1
127,78,1023,568,1
277,581,143,626,1
175,118,1023,1023,1
102,52,821,386,1
446,339,458,8,1
87,80,6,428,1
153,100,311,643,1
253,206,478,183,1
180,11,1023,594,1
110,191,551,568,1
103,77,1023,803,1
408,272,726,514,1
341,375,1023,807,1
719,566,541,201,1
409,132,1023,744,1
223,247,1023,676,1
456,435,348,205,1
97,171,202,72,1
51,89,1023,734,1
53,47,276,132,1
432,112,499,531,1
203,122,178,259,1
375,434,20,75,1
262,462,438,173,1
114,72,1023,222,1
174,101,946,197,1
241,200,1005,312,1
806,588,417,492,1
188,90,186,141,1
158,101,747,146,1
132,99,1023,1018,1
462,527,1023,1023,1
565,396,173,20,1
148,199,1023,167,1
215,495,1023,288,1
154,122,900,523,1
321,268,24,319,1
25,116,284,126,1
107,150,158,347,1
88,262,276,382,1
40,153,102,10,1
499,195,587,377,1
139,369,8,48,1
150,61,901,544,1
422,395,527,1023,1
275,281,1023,544,1
154,231,836,294,1
29,185,1023,24,1
169,26,988,363,1
93,308,276,43,1
13,7,217,20,1
134,168,51,69,1
91,166,288,135,1
340,441,741,761,1
148,114,113,177,1
184,122,74,17,1
294,20,617,296,1
121,165,1023,167,1
323,181,667,203,1
41,19,21,231,1
125,132,354,58,1
79,101,266,203,1
123,235,36,7,1
18,138,470,234,1
225,50,69,49,1
448,87,1023,311,1
141,17,1023,164,1
93,28,47,142,1
362,458,229,226,1
158,159,137,184,1
739,308,263,404,1
576,265,191,179,1
308,148,318,296,1
74,137,449,43,1
248,203,45,11,1
66,41,489,212,1
64,41,191,295,1
132,40,121,61,1
282,113,477,483,1
49,214,193,152,1
38,138,510,87,1
58,100,852,712,1
460,83,236,39,1
0,179,1023,846,1
364,197,296,25,1
168,79,141,228,1
7,61,34,29,1
166,44,946,442,1
168,125,48,60,1
271,6,4,3,1
19,39,339,44,1
42,16,77,67,1
150,18,0,100,1
292,224,118,236,1
98,455,1023,297,1
12,83,503,20,1
311,63,114,727,1
153,18,212,25,1
63,136,516,194,1
168,49,147,211,1
173,66,380,758,1
1,77,414,98,1
209,180,508,158,1
12,147,400,149,1
123,266,942,234,1
82,16,494,126,1
178,447,426,171,1
28,90,650,476,1
40,13,445,218,1
230,154,571,63,1
134,208,164,393,1
202,345,241,273,1
248,154,256,464,1
153,23,223,45,1
133,228,64,374,1
231,8,394,81,1
9,40,568,34,1
42,82,539,120,1
256,200,169,66,1
108,50,53,410,1
289,176,475,320,1
67,173,276,208,1
29,46,281,183,1
317,183,202,318,1
283,294,741,241,1
101,15,247,66,1
176,10,0,66,1
241,257,59,78,1
209,89,1023,360,1
187,9,63,47,1
258,252,656,341,1
30,19,259,17,1
39,77,112,163,1
33,110,323,7,1
48,56,386,93,1
49,25,10,39,1
113,33,558,333,1
478,171,223,42,1
255,21,71,33,1
359,231,238,396,1
189,87,224,503,1
94,156,10,158,1
246,89,122,24,1
340,16,485,206,1
377,404,16,58,1
105,82,214,284,1
34,99,0,60,1
274,79,41,38,1
17,10,32,4,1
66,183,257,214,1
254,206,694,100,1
15,66,266,213,1
27,45,409,351,1
158,70,5,251,1
452,110,332,257,1
104,173,287,200,1
125,6,509,215,1
31,13,243,659,1
34,30,314,203,1
151,24,377,185,1
129,156,45,2,1
72,79,140,308,1
42,34,70,27,1
223,45,274,51,1
18,53,141,55,1
177,38,151,254,1
307,51,81,289,1
205,373,419,455,1
172,137,410,383,1
114,189,343,252,1
224,312,116,136,1
153,233,13,33,1
46,31,15,10,1
14,26,276,216,1
275,362,87,4,1
2,120,98,86,1
331,239,504,1,1
446,254,868,31,1
198,52,45,63,1
103,12,96,17,1
105,76,25,27,1
251,128,20,29,1
21,135,420,12,1
27,72,260,42,1
170,23,354,47,1
124,48,177,76,1
48,14,140,98,1
279,186,121,92,1
3,45,148,235,1
25,15,371,381,1
145,37,173,218,1
346,279,166,240,1
457,295,434,55,1
100,16,159,345,1
177,127,291,30,1
196,46,213,34,1
84,40,197,132,1
13,73,7,110,1
224,120,703,149,1
80,68,276,82,1
83,260,0,56,1
348,272,143,216,1
50,15,489,82,1
240,19,152,179,1
258,151,74,250,1
215,367,91,77,1
301,224,388,252,1
170,131,266,65,1
258,9,350,471,1
25,145,23,165,1
11,152,341,328,1
155,42,511,275,1
57,33,146,364,1
21,111,246,210,1
97,115,165,80,1
7,117,422,364,1
252,323,45,3,1
136,8,243,158,1
220,12,217,104,1
58,173,113,231,1
3,206,144,154,1
72,265,18,32,1
134,83,50,184,1
318,223,300,3,1
102,326,76,257,1
340,90,290,74,1
178,81,89,153,1
10,15,50,8,1
110,15,4,21,1
290,40,200,123,1
92,41,200,43,1
7,86,301,214,1
167,38,215,37,1
94,21,234,389,1
39,60,137,67,1
29,174,2,112,1
32,69,115,122,1
41,38,190,97,1
198,90,44,80,1
765,505,59,1,1
68,249,4,28,1
66,361,647,76,1
57,369,448,373,1
138,111,99,255,1
351,107,211,576,1
97,109,334,51,1
112,170,507,252,1
30,78,132,313,1
29,63,0,24,1
87,38,163,11,1
556,273,303,138,1
47,36,29,12,1
81,57,43,67,1
174,139,96,241,1
736,645,42,127,1
330,372,35,93,1
284,163,41,54,1
152,23,110,18,1
6,70,209,80,1
350,174,124,144,1
52,29,416,208,1
110,107,121,247,1
59,158,253,269,1
18,19,178,99,1
22,61,105,283,1
9,76,22,139,1
320,98,26,51,1
154,165,27,87,1
10,49,61,105,1
78,22,58,110,1
84,79,145,64,1
29,119,73,52,1
48,145,21,64,1
294,408,0,5,1
26,176,404,8,1
177,273,232,151,1
65,116,1023,121,1
260,40,266,174,1
202,12,36,17,1
89,300,194,77,1
96,16,356,107,1
139,15,48,16,1
76,85,256,34,1
124,203,44,18,1
54,63,10,46,1
98,36,151,41,1
7,5,274,82,1
3,8,332,88,1
9,10,0,8,1
56,183,306,287,1
26,290,342,206,1
46,70,183,54,1
195,162,10,8,1
206,276,374,143,1
50,42,225,48,1
9,8,331,158,1
332,419,15,99,1
38,112,335,195,1
273,85,44,47,1
51,136,222,291,1
194,336,35,95,1
232,103,119,107,1
206,12,759,383,1
157,62,16,283,1
129,142,71,7,1
3,131,817,492,1
67,118,210,316,1
29,64,0,74,1
45,74,443,257,1
106,12,280,258,1
22,154,190,104,1
276,390,384,34,1
357,164,173,254,1
165,109,441,240,1
305,225,219,5,1
300,144,523,320,1
88,103,653,379,1
8,7,61,97,1
12,17,566,142,1
500,272,913,306,1
472,302,170,102,1
47,21,860,280,1
54,174,199,142,1
255,226,304,629,1
27,195,7,213,1
84,83,1023,1023,1
146,19,1023,534,1
197,219,864,235,1
176,23,1023,1023,1
53,59,103,179,1
197,20,931,462,1
78,8,277,25,1
116,257,261,28,1
227,262,0,106,1
6,90,280,15,1
238,51,279,9,1
264,27,146,33,1
19,211,50,263,1
31,281,115,105,1
30,170,9,234,1
605,331,691,439,1
76,185,879,273,1
161,36,146,587,1
77,60,54,49,1
3,157,215,16,1
63,100,10,6,1
193,24,41,70,1
142,84,187,19,1
190,28,5,269,1
56,150,1023,332,1
217,162,929,80,1
249,126,644,282,1
7,334,361,382,1
3,238,427,46,1
104,128,75,41,1
9,93,255,96,1
66,64,100,309,1
32,62,42,171,1
396,205,940,613,1
2,132,1023,388,1
146,213,428,128,1
3,159,382,451,1
99,85,92,1023,1
178,468,481,1018,1
7,205,386,383,1
38,11,614,100,1
436,249,841,333,1
208,147,162,40,1
200,173,76,107,1
17,30,193,73,1
135,42,1023,531,1
274,305,649,405,1
92,266,203,177,1
317,107,325,287,1
140,7,633,430,1
55,76,116,242,1
225,211,120,68,1
37,113,624,163,1
164,27,222,311,1
87,168,471,146,1
336,27,973,91,1
11,23,658,885,1
169,70,40,1023,1
152,214,496,825,1
175,34,701,639,1
124,198,212,645,1
89,18,299,436,1
108,61,360,197,1
41,17,56,23,1
95,35,265,289,1
59,121,239,13,1
4,47,849,562,1
3,143,585,674,1
464,139,928,500,1
205,152,676,246,1
350,295,968,743,1
198,135,147,864,1
290,94,333,181,1
239,85,1023,672,1
320,26,1023,214,1
34,99,508,177,1
655,596,205,738,1
169,234,578,1003,1
301,41,398,390,1
36,263,539,176,1
526,238,1023,840,1
8,17,151,50,1
13,18,422,304,1
116,122,53,131,1
518,150,136,536,1
455,34,657,397,1
500,479,854,548,1
404,255,345,214,1
67,31,221,13,1
117,108,102,217,1
153,203,19,318,1
208,65,1023,312,1
77,24,1017,334,1
164,16,60,282,1
441,295,384,624,1
139,55,14,117,1
136,207,585,105,1
293,282,80,155,1
443,177,86,91,1
312,104,195,462,1
416,359,476,218,1
172,139,849,494,1
67,41,820,309,1
130,386,347,139,1
8,13,1023,555,1
472,55,957,34,1
32,36,983,168,1
498,373,42,720,1
252,203,81,178,1
110,280,31,256,1
4,166,1023,766,1
81,87,493,462,1
162,193,198,193,1
209,67,104,462,1
89,48,552,404,1
534,629,469,141,1
96,65,74,141,1
585,127,289,339,1
339,456,143,229,1
223,143,58,81,1
99,90,524,435,1
45,208,305,69,1
340,296,749,66,1
546,468,52,246,1
360,65,754,109,1
22,183,235,685,1
177,76,462,835,1
147,368,847,183,1
244,265,551,356,1
853,462,256,163,1
55,201,46,39,1
441,64,71,157,1
276,246,511,36,1
438,249,358,90,1
44,383,535,212,1
143,47,259,106,1
65,32,334,75,1
190,207,112,80,1
103,213,41,214,1
28,41,708,235,1
208,223,54,115,1
13,11,298,132,1
72,154,128,87,1
322,234,0,24,1
129,204,584,266,1
304,240,267,308,1
136,423,158,276,1
236,258,186,463,1
277,169,146,81,1
202,287,9,139,1
217,48,15,84,1
77,10,421,529,1
464,269,104,86,1
115,56,708,8,1
156,105,309,40,1
156,89,228,61,1
53,59,26,105,1
60,12,198,100,1
37,187,106,131,1
425,246,205,246,1
66,139,486,176,1
189,298,386,135,1
55,7,461,915,1
99,53,100,202,1
500,132,40,84,1
220,134,143,172,1
256,36,18,247,1
113,88,210,156,1
318,278,465,2,1
156,349,436,125,1
43,91,140,240,1
442,51,790,306,1
244,221,105,314,1
142,13,532,56,1
2,50,5,221,1
105,94,225,323,1
95,191,367,131,1
79,43,787,278,1
386,52,837,679,1
280,185,90,117,1
19,107,261,394,1
240,38,107,256,1
205,17,207,44,1
25,40,38,73,1
6,116,512,240,1
37,60,54,333,1
78,118,345,369,1
229,244,269,327,1
125,56,100,158,1
16,33,616,476,1
70,36,195,15,1
28,18,1023,950,1
47,189,1023,691,1
280,28,434,392,1
107,132,309,224,1
78,63,254,21,1
336,383,458,279,1
223,40,429,410,1
37,24,604,664,1
98,257,1023,317,1
23,131,664,110,1
36,108,450,136,1
327,118,993,55,1
118,165,198,135,1
273,93,222,293,1
737,225,137,57,1
657,27,428,147,1
14,62,94,18,1
97,85,204,66,1
263,175,326,152,1
191,187,808,553,1
248,104,354,187,1
57,10,167,13,1
52,136,178,121,1
137,153,173,116,1
65,203,0,3,1
69,140,221,4,1
277,216,158,148,1
39,122,392,277,1
377,7,842,721,1
83,34,143,941,1
6,9,376,541,1
69,223,5,227,1
364,463,273,195,1
216,37,281,309,1
78,135,66,24,1
24,74,284,436,1
253,339,85,14,1
107,79,0,7,1
201,10,345,342,1
224,181,165,13,1
260,314,395,414,1
335,82,113,44,1
128,140,94,185,1
216,165,46,56,1
160,51,18,327,1
63,54,6,275,1
157,79,5,122,1
13,7,25,249,1
4,113,259,27,1
118,15,574,564,1
64,168,40,394,1
35,156,263,48,1
122,98,810,211,1
28,152,249,56,1
286,240,56,196,1
144,133,156,233,1
318,56,172,24,1
214,285,165,200,1
10,83,327,16,1
253,56,336,323,1
132,189,88,366,1
3,135,289,558,1
9,27,321,8,1
37,19,315,263,1
255,139,194,225,1
45,108,319,388,1
23,207,28,288,1
57,151,17,406,1
71,205,0,88,1
257,223,0,1,1
160,23,323,305,1
94,99,7,32,1
400,184,304,192,1
211,80,428,88,1
123,239,54,395,1
17,135,230,333,1
257,62,282,173,1
205,130,152,160,1
126,89,11,32,1
9,160,280,276,1
136,30,228,67,1
43,106,153,78,1
32,64,334,107,1
54,72,1,99,1
294,345,92,4,1
225,228,148,478,1
169,226,516,536,1
93,8,122,5,1
107,87,597,325,1
397,324,834,292,1
91,87,197,102,1
105,132,25,39,1
365,101,58,78,1
295,100,233,11,1
82,103,71,3,1
245,195,71,1,1
73,47,214,23,1
83,61,480,214,1
26,121,36,45,1
128,85,100,230,1
179,80,123,156,1
221,11,131,260,1
16,169,46,26,1
46,42,419,240,1
24,39,0,130,1
377,90,328,103,1
83,108,315,225,1
30,334,167,249,1
376,261,46,52,1
304,134,96,108,1
38,83,80,13,1
138,134,407,92,1
9,53,73,93,1
252,37,413,122,1
194,6,6,102,1
111,44,317,208,1
200,34,152,16,1
174,220,45,20,1
275,91,155,162,1
254,90,222,181,1
161,232,7,322,1
331,151,61,350,1
18,18,140,80,1
154,144,105,137,1
202,35,0,47,1
40,94,0,14,1
207,63,40,1,1
92,22,83,38,1
301,317,258,142,1
12,44,3,35,1
69,37,0,106,1
108,95,243,407,1
72,61,310,159,1
73,174,64,206,1
98,10,451,512,1
166,41,58,133,1
140,73,161,214,1
90,18,110,5,1
137,98,82,57,1
253,81,58,190,1
422,315,34,25,1
13,157,258,109,1
48,103,269,129,1
396,216,31,131,1
268,158,1,189,1
194,131,141,127,1
323,202,187,37,1
151,110,662,230,1
187,47,343,64,1
88,59,391,280,1
49,77,90,104,1
116,62,212,146,1
59,16,304,153,1
142,113,207,105,1
9,7,188,48,1
55,33,165,2,1
105,20,138,347,1
161,78,50,17,1
121,46,9,14,1
159,107,41,113,1
158,28,241,73,1
373,285,12,7,1
231,197,175,21,1
188,18,68,202,1
204,173,79,137,1
2,166,296,97,1
140,6,42,12,1
228,49,50,54,1
119,199,33,46,1
149,11,114,36,1
12,103,79,1,1
113,147,91,28,1
8,136,0,8,1
83,69,82,97,1
16,79,458,154,1
196,59,276,177,1
62,76,364,242,1
286,202,67,175,1
268,20,573,46,1
25,51,48,87,1
126,35,412,210,1
106,46,298,213,1
19,9,25,31,1
19,59,125,54,1
429,218,169,82,1
85,37,423,156,1
110,41,225,7,1
193,11,232,195,1
54,87,66,4,1
56,45,139,103,1
331,275,305,110,1
3,237,57,23,1
7,51,140,118,1
43,88,0,61,1
201,227,21,42,1
54,103,158,118,1
143,132,148,73,1
283,154,37,64,1
178,107,16,109,1
5,25,223,182,1
508,272,153,23,1
170,73,234,111,1
84,15,59,132,1
65,75,71,12,1
89,121,346,72,1
281,73,44,69,1
238,53,275,321,1
421,131,61,4,1
2,158,370,277,1
17,6,240,9,1
95,19,373,159,1
266,237,36,38,1
231,57,85,294,1
47,36,215,287,1
62,63,402,279,1
48,115,7,53,1
364,115,63,119,1
227,15,617,223,1
438,64,115,254,1
97,111,506,305,1
24,80,10,124,1
305,230,419,150,1
101,19,40,4,1
155,35,43,9,1
170,69,133,4,1
220,182,60,87,1
7,24,20,183,1
21,10,347,138,1
0,51,39,344,1
84,21,266,172,1
65,95,65,154,1
567,239,13,203,1
144,241,319,147,1
20,74,257,215,1
72,248,315,10,1
179,102,189,50,1
23,21,227,138,1
119,111,185,33,1
4,45,22,46,1
182,7,504,89,1
209,76,12,574,1
16,106,10,35,1
24,29,110,189,1
181,53,127,99,1
7,34,11,76,1
245,176,258,63,1
37,27,5,214,1
15,10,56,429,1
245,147,533,287,1
106,157,486,291,1
127,7,2,179,1
239,139,292,2,1
246,292,18,127,1
281,246,25,170,1
24,132,68,72,1
141,24,746,432,1
154,224,509,521,1
217,191,679,469,1
411,198,340,387,1
177,459,414,26,1
125,99,390,71,1
180,84,273,31,1
23,213,28,129,1
125,26,304,634,1
359,148,197,37,1
307,212,696,1023,1
36,15,35,264,1
142,67,4,60,1
164,399,3,260,1
196,362,473,299,1
283,303,327,65,1
231,235,69,43,1
191,203,365,207,1
291,458,173,95,1
124,13,479,30,1
143,69,170,70,1
241,143,967,643,1
278,24,901,199,1
122,178,619,137,1
812,750,665,26,1
341,85,364,199,1
236,468,33,329,1
178,212,199,199,1
290,178,986,790,1
278,85,965,321,1
207,186,1,166,1
397,244,112,301,1
23,289,515,399,1
518,259,453,214,1
52,107,489,416,1
193,21,751,226,1
189,147,1023,639,1
43,37,1023,293,1
67,82,84,22,1
123,236,71,119,1
81,114,248,449,1
51,71,748,693,1
376,305,418,26,1
173,130,711,421,1
162,28,1023,340,1
22,361,1023,50,1
484,355,217,170,1
122,336,211,265,1
2,80,90,26,1
108,362,4,32,1
15,303,238,47,1
76,293,356,170,1
21,125,328,36,1
328,141,484,82,1
61,113,536,339,1
198,43,370,107,1
225,164,833,542,1
241,304,1023,557,1
9,125,0,33,1
44,204,763,439,1
210,171,44,8,1
429,254,11,104,1
165,164,28,727,1
201,74,473,181,1
93,41,36,114,1
598,367,84,20,1
111,219,306,47,1
404,229,87,559,1
667,532,583,949,1
474,389,156,781,1
59,223,443,231,1
134,122,136,449,1
80,163,50,35,1
4,269,1023,615,1
136,159,1023,430,1
92,55,279,13,1
295,22,838,84,1
111,223,858,535,1
235,284,60,881,1
190,21,980,489,1
391,457,1023,634,1
118,90,774,315,1
46,67,1023,610,1
30,75,1023,784,1
318,341,330,368,1
703,526,998,521,1
74,44,1023,680,1
91,49,1023,593,1
68,10,1023,966,1
3,56,1023,645,1
66,22,491,633,1
246,110,788,158,1
39,51,615,34,1
63,83,931,400,1
378,23,241,106,1
54,206,625,479,1
186,159,1023,1023,1
96,203,1023,1023,1
272,243,12,203,1
243,223,127,117,1
444,127,1023,302,1
196,155,855,176,1
222,197,1023,621,1
119,46,0,54,1
53,126,536,124,1
338,452,830,244,1
125,182,130,642,1
362,354,525,1023,1
109,119,950,592,1
58,135,268,6,1
283,264,448,50,1
15,94,600,522,1
268,135,162,418,1
223,135,940,1023,1
121,414,990,394,1
531,199,348,441,1
1010,325,582,599,1
88,90,516,15,1
124,97,113,356,1
148,279,1023,273,1
120,126,801,204,1
211,416,438,247,1
175,44,633,617,1
55,143,223,104,1
100,228,591,482,1
38,19,779,232,1
46,84,211,41,1
572,608,402,108,1
569,230,262,80,1
8,97,10,205,1
196,6,156,485,1
220,81,353,103,1
361,126,813,724,1
14,17,233,191,1
126,197,459,121,1
16,74,1023,10,1
144,140,36,130,1
102,159,71,509,1
283,141,230,125,1
178,142,420,75,1
79,106,398,259,1
9,120,0,244,1
161,290,23,449,1
11,55,0,63,1
23,54,779,53,1
311,11,315,466,1
94,20,954,866,1
22,123,227,24,1
232,134,134,14,1
88,20,327,169,1
152,78,274,200,1
38,245,96,91,1
109,235,53,169,1
44,6,768,31,1
152,77,971,515,1
17,9,246,33,1
257,158,81,605,1
82,124,805,822,1
54,201,191,75,1
154,167,244,160,1
435,259,153,35,1
365,134,1023,373,1
337,189,983,337,1
70,95,219,344,1
178,330,202,299,1
348,75,1023,884,1
367,82,133,80,1
43,20,328,415,1
121,143,149,29,1
171,87,590,155,1
125,60,0,282,1
131,148,445,348,1
60,78,415,291,1
29,135,755,235,1
39,65,102,88,1
267,211,375,290,1
106,12,157,231,1
84,178,861,219,1
128,108,638,160,1
64,129,15,58,1
183,345,128,231,1
306,372,321,352,1
298,242,192,347,1
419,242,647,258,1
486,291,434,34,1
40,88,156,341,1
762,313,151,270,1
157,99,36,34,1
467,169,440,237,1
272,162,268,56,1
133,33,153,143,1
185,54,565,348,1
112,130,262,166,1
44,308,124,179,1
10,118,40,128,1
52,160,136,56,1
219,37,302,286,1
138,9,408,273,1
9,35,276,92,1
39,192,135,37,1
96,55,426,414,1
8,227,64,33,1
202,243,45,171,1
9,162,123,373,1
294,49,395,179,1
2,49,16,117,1
35,107,387,226,1
476,404,31,107,1
108,277,367,380,1
176,17,249,279,1
51,26,71,89,1
183,76,395,293,1
187,10,208,18,1
33,139,180,211,1
291,344,679,370,1
82,209,148,57,1
223,259,400,82,1
409,169,250,314,1
124,72,331,88,1
78,75,52,262,1
215,90,451,595,1
207,268,107,191,1
119,151,177,94,1
33,9,198,178,1
241,40,175,158,1
166,143,302,132,1
111,328,52,64,1
377,15,15,199,1
37,107,212,98,1
122,102,271,99,1
161,145,81,339,1
50,135,238,37,1
75,180,170,141,1
303,34,29,270,1
431,28,335,53,1
444,12,105,63,1
231,235,711,594,1
207,212,181,309,1
128,175,232,205,1
209,143,115,201,1
80,55,279,166,1
5,124,15,87,1
3,15,174,114,1
24,84,167,228,1
12,99,39,8,1
0,101,234,133,1
225,190,34,216,1
87,117,134,267,1
80,141,453,14,1
381,293,326,186,1
102,43,123,5,1
181,207,318,98,1
4,13,369,157,1
82,47,63,172,1
133,119,31,102,1
160,88,245,36,1
362,61,43,104,1
229,211,67,284,1
20,27,264,23,1
184,89,111,154,1
496,234,202,98,1
131,203,36,163,1
126,114,80,7,1
24,219,101,196,1
517,206,344,152,1
279,13,156,5,1
121,51,244,96,1
148,137,163,123,1
93,38,201,44,1
62,18,584,84,1
133,26,23,2,1
294,217,549,113,1
161,59,84,163,1
229,306,91,134,1
41,42,42,195,1
343,119,266,368,1
124,283,95,130,1
113,63,527,168,1
11,183,336,146,1
215,51,32,28,1
87,319,231,188,1
58,144,576,219,1
9,181,817,462,1
7,40,40,184,1
71,10,3,78,1
256,150,104,8,1
358,153,52,15,1
387,91,338,131,1
130,74,0,6,1
45,46,393,65,1
62,7,215,56,1
62,38,280,21,1
428,53,217,389,1
230,242,593,497,1
653,157,114,76,1
82,229,255,199,1
108,121,153,44,1
5,139,0,159,1
118,268,58,49,1
76,109,13,148,1
53,19,211,196,1
189,64,0,87,1
70,66,143,27,1
272,280,25,315,1
218,130,181,315,1
61,16,302,107,1
42,138,298,71,1
13,47,255,225,1
107,133,204,11,1
142,45,382,291,1
170,148,366,217,1
119,214,141,27,1
54,35,455,189,1
171,16,95,136,1
13,7,195,133,1
147,348,10,6,1
80,253,52,45,1
288,96,143,151,1
5,33,74,84,1
279,31,15,53,1
727,354,121,10,1
129,171,175,106,1
164,21,119,114,1
115,196,464,67,1
82,48,412,84,1
23,45,227,137,1
70,17,76,156,1
61,65,111,163,1
192,193,73,67,1
44,111,109,37,1
0,47,0,139,1
119,68,72,11,1
243,187,25,15,1
15,77,13,1,1
85,7,164,129,1
212,91,598,215,1
390,240,353,99,1
66,38,718,427,1
133,59,217,115,2
68,74,359,2,2
323,100,93,19,2
167,331,173,170,2
41,105,9,171,2
9,91,48,148,2
32,59,38,225,2
126,86,36,74,2
60,89,129,72,2
63,16,292,158,2
184,181,174,148,2
7,33,117,101,2
32,154,195,76,2
157,232,110,94,2
18,94,372,121,2
59,11,113,101,2
10,191,228,50,2
280,74,151,251,2
729,423,251,193,2
58,172,29,148,2
158,82,105,63,2
17,35,331,59,2
250,287,168,61,2
61,18,101,198,2
22,55,107,18,2
13,70,37,32,2
232,125,208,204,2
21,93,166,60,2
126,189,116,163,2
478,173,200,36,2
77,55,42,48,2
76,20,283,221,2
194,107,1,36,2
160,62,108,110,2
307,178,200,1,2
28,38,233,48,2
58,15,376,254,2
109,52,4,168,2
62,45,240,115,2
222,96,160,187,2
64,46,50,160,2
2,150,41,25,2
24,54,225,33,2
174,227,62,191,2
90,19,4,67,2
36,67,133,149,2
215,112,66,41,2
615,127,41,165,2
77,85,371,207,2
332,45,106,185,2
19,201,246,273,2
8,20,542,292,2
184,53,19,158,2
70,32,83,47,2
213,11,286,9,2
26,7,257,289,2
162,147,158,44,2
261,106,348,258,2
209,323,175,13,2
159,159,38,56,2
145,135,303,72,2
307,263,170,17,2
1,23,144,45,2
179,12,50,213,2
255,189,49,52,2
471,38,16,207,2
213,27,48,80,2
18,161,428,459,2
77,106,44,183,2
243,344,142,104,2
277,174,597,462,2
156,183,206,228,2
121,14,148,158,2
74,53,78,15,2
16,41,86,56,2
6,81,156,56,2
92,7,596,251,2
129,126,258,95,2
126,15,157,23,2
176,201,668,483,2
198,34,6,281,2
37,126,0,128,2
102,135,544,252,2
84,93,72,285,2
118,124,160,8,2
170,123,248,318,2
257,24,789,200,2
259,232,965,269,2
247,18,398,32,2
39,94,551,138,2
19,18,262,59,2
162,53,31,210,2
62,63,209,51,2
226,68,211,56,2
318,102,425,559,2
29,47,434,444,2
187,16,350,481,2
210,17,222,335,2
56,49,465,58,2
83,43,32,155,2
115,8,231,124,2
53,238,530,700,2
192,178,590,331,2
204,33,282,317,2
121,143,194,206,2
20,11,620,307,2
176,194,10,521,2
121,299,385,755,2
72,75,408,557,2
175,144,41,26,2
47,48,46,248,2
16,7,233,127,2
58,35,228,111,2
121,12,706,262,2
115,158,213,145,2
153,152,666,460,2
69,183,107,124,2
25,35,281,303,2
354,43,135,501,2
575,200,5,904,2
22,213,91,41,2
161,7,0,94,2
378,202,340,146,2
26,101,223,248,2
430,293,171,177,2
16,39,165,104,2
4,147,147,108,2
126,128,137,98,2
18,161,203,60,2
89,35,4,240,2
97,13,434,665,2
92,136,632,306,2
402,249,271,98,2
740,553,925,154,2
7,13,141,143,2
76,18,408,262,2
192,194,130,285,2
21,107,388,413,2
100,132,11,406,2
9,129,952,451,2
589,614,253,788,2
80,20,781,1023,2
59,28,1023,481,2
81,11,35,411,2
240,181,300,191,2
48,156,824,48,2
25,82,265,96,2
248,300,15,14,2
63,50,717,368,2
277,153,254,128,2
226,75,481,679,2
432,286,270,421,2
809,286,402,339,2
577,548,1023,936,2
88,43,136,344,2
14,200,1023,563,2
49,125,803,100,2
281,132,821,150,2
202,197,638,3,2
24,42,383,349,2
9,75,358,154,2
416,177,9,224,2
285,373,474,1023,2
365,31,860,1023,2
305,97,79,99,2
66,139,715,335,2
31,183,1023,601,2
45,123,101,338,2
251,56,542,236,2
7,140,815,86,2
38,158,208,96,2
150,89,692,280,2
154,238,570,9,2
301,348,307,173,2
192,35,263,172,2
388,533,39,94,2
256,136,159,546,2
76,313,238,1023,2
184,139,364,561,2
245,185,494,11,2
53,29,720,80,2
117,169,1023,321,2
39,107,668,238,2
6,87,17,842,2
212,246,716,1023,2
13,90,1023,1000,2
560,361,682,163,2
285,325,519,289,2
765,291,420,683,2
224,26,614,130,2
25,90,168,217,2
38,131,11,389,2
63,27,613,644,2
216,155,221,706,2
190,22,1023,1023,2
362,213,732,236,2
164,172,589,1023,2
152,120,51,101,2
72,368,774,377,2
250,25,360,359,2
105,178,113,284,2
13,70,416,321,2
263,267,556,650,2
68,138,550,285,2
55,302,28,139,2
112,171,230,170,2
412,354,427,250,2
77,19,418,187,2
139,29,505,77,2
108,83,85,145,2
160,257,494,710,2
274,192,1023,278,2
46,54,536,182,2
26,295,193,269,2
231,45,786,509,2
389,198,90,68,2
338,101,227,883,2
172,106,222,1,2
181,165,32,293,2
19,47,748,415,2
99,80,333,89,2
137,105,684,42,2
146,110,230,107,2
212,65,8,348,2
10,413,215,224,2
183,87,9,72,2
1,30,4,142,2
211,306,5,338,2
84,28,162,300,2
77,23,378,219,2
212,146,837,288,2
375,271,1023,454,2
126,249,60,78,2
227,84,434,37,2
182,112,195,138,2
15,11,311,186,2
100,67,351,106,2
104,32,379,135,2
98,52,257,47,2
49,25,372,292,2
172,101,144,178,2
454,39,64,48,2
215,137,195,314,2
13,216,175,665,2
14,165,175,592,2
71,323,187,681,2
87,427,896,766,2
11,33,365,91,2
149,188,385,74,2
22,22,6,123,2
43,73,206,172,2
20,29,9,136,2
52,130,320,125,2
61,77,227,608,2
75,131,272,219,2
220,229,578,206,2
85,112,382,175,2
59,14,301,109,2
82,259,8,93,2
193,288,872,318,2
24,352,782,327,2
30,279,547,24,2
177,156,96,381,2
276,121,267,228,2
110,162,676,530,2
59,104,762,52,2
59,91,75,307,2
14,49,67,32,2
48,97,281,184,2
177,101,54,26,2
136,44,810,499,2
131,13,1023,440,2
177,138,59,214,2
94,124,57,159,2
226,106,15,175,2
468,17,113,38,2
324,203,276,190,2
290,11,256,173,2
179,34,195,71,2
9,167,175,147,2
5,46,371,109,2
69,119,358,41,2
155,7,32,316,2
88,121,17,83,2
51,107,71,120,2
139,46,748,432,2
109,137,562,323,2
110,7,56,81,2
46,9,34,8,2
0,230,20,105,2
0,41,59,189,2
259,71,374,88,2
17,191,211,363,2
246,411,294,202,2
63,111,506,19,2
286,168,513,63,2
184,19,294,152,2
450,114,41,244,2
26,25,317,66,2
4,16,137,139,2
117,155,102,105,2
11,9,837,365,2
114,75,240,305,2
336,72,427,370,2
230,221,52,271,2
7,35,69,54,2
25,8,456,5,2
107,9,216,184,2
40,90,106,251,2
164,308,15,18,2
222,36,143,61,2
102,53,395,102,2
123,73,477,168,2
98,119,177,405,2
74,27,207,157,2
137,7,150,137,2
134,13,595,159,2
308,11,223,112,2
185,184,497,160,2
89,314,462,257,2
81,6,62,22,2
124,236,194,186,2
24,50,198,200,2
153,69,52,15,2
203,101,345,314,2
284,66,213,4,2
51,157,458,27,2
174,176,569,45,2
30,39,0,104,2
223,146,250,695,2
198,134,425,630,2
267,81,216,146,2
24,75,63,119,2
64,46,115,201,2
77,65,36,338,2
218,36,0,218,2
401,212,439,120,2
144,57,18,290,2
363,268,864,439,2
222,114,133,100,2
144,20,226,61,2
141,57,30,90,2
137,114,202,322,2
7,32,8,276,2
29,7,330,170,2
112,119,222,108,2
172,73,0,45,2
158,103,143,72,2
23,24,116,84,2
281,188,161,182,2
14,76,315,345,2
402,72,473,37,2
285,85,1023,597,2
8,46,116,231,2
115,137,199,18,2
44,58,41,76,2
213,71,72,149,2
326,152,112,27,2
129,119,30,128,2
15,87,293,84,2
131,124,320,45,2
77,87,75,136,2
242,386,230,231,2
124,174,338,145,2
194,23,32,165,2
154,75,206,199,2
71,114,251,205,2
208,180,163,63,2
51,12,473,354,2
252,284,0,90,2
215,16,8,36,2
403,76,590,49,2
13,36,418,8,2
211,10,342,138,2
87,172,225,196,2
6,77,83,148,2
167,46,25,258,2
76,20,200,77,2
95,45,26,509,2
118,134,163,415,2
136,25,100,22,2
159,118,204,23,2
303,24,157,540,2
314,170,354,476,2
13,173,216,104,2
167,249,190,18,2
340,91,12,158,2
145,99,166,9,2
81,145,254,144,2
53,44,22,122,2
112,15,428,227,2
200,123,287,56,2
92,281,1,59,2
379,66,134,168,2
25,194,3,38,2
200,95,402,260,2
20,13,219,36,2
108,144,102,411,2
53,185,661,132,2
143,26,244,141,2
132,176,757,363,2
50,179,16,26,2
8,36,235,35,2
99,18,406,240,2
157,33,377,2,2
4,15,102,97,2
88,126,7,57,2
336,216,164,129,2
53,82,64,173,2
69,79,66,56,2
37,29,297,177,2
282,225,89,37,2
348,163,636,119,2
18,122,151,72,2
51,6,125,170,2
163,113,181,308,2
166,183,147,202,2
35,24,117,316,2
91,100,72,46,2
130,194,45,99,2
11,17,247,215,2
98,114,16,207,2
148,199,123,148,2
115,219,15,35,2
192,225,41,84,2
161,166,3,140,2
388,258,79,62,2
30,18,106,70,2
390,361,334,578,2
32,49,8,79,2
88,31,392,448,2
106,13,7,86,2
8,11,217,125,2
3,40,112,54,2
29,62,30,278,2
6,26,202,335,2
124,99,232,254,2
18,8,194,193,2
103,40,72,17,2
13,28,63,7,2
10,49,72,144,2
126,55,89,138,2
15,103,29,168,2
102,227,140,121,2
356,80,365,90,2
8,82,0,10,2
213,39,48,82,2
87,49,213,223,2
56,13,218,46,2
229,19,150,48,2
270,191,226,195,2
4,113,148,8,2
312,93,168,300,2
146,58,66,192,2
270,179,256,302,2
66,56,174,205,2
15,128,0,6,2
13,168,292,152,2
55,13,169,123,2
216,245,166,97,2
143,133,99,23,2
110,37,126,58,2
3,75,89,191,2
99,67,397,322,2
89,10,175,287,2
80,47,436,305,2
70,11,0,92,2
225,147,324,131,2
92,131,104,16,2
49,36,6,1,2
66,7,1,9,2
128,172,40,70,2
113,88,60,49,2
378,228,94,117,2
173,392,64,126,2
34,106,132,137,2
7,103,32,29,2
8,88,58,204,2
123,104,501,206,2
259,7,265,285,2
255,76,349,306,2
148,50,296,151,2
182,7,130,178,2
233,177,129,74,2
19,252,64,117,2
104,7,4,50,2
170,226,90,1,2
145,123,31,27,2
65,111,0,50,2
434,243,309,207,2
79,442,0,11,2
316,67,12,17,2
16,70,200,69,2
120,102,0,59,2
6,29,504,601,2
352,263,76,33,2
102,19,884,671,2
101,47,31,14,2
71,73,49,99,2
139,14,233,112,2
26,40,321,265,2
123,77,43,12,2
61,208,78,172,2
210,46,9,61,2
173,259,308,487,2
117,19,4,112,2
127,215,422,258,2
55,99,164,100,2
8,40,122,137,2
245,240,62,89,2
110,46,213,248,2
150,25,351,86,2
127,231,198,89,2
151,123,2,276,2
166,157,306,154,2
23,66,40,74,2
111,130,267,119,2
209,113,140,260,2
156,23,175,35,2
137,52,80,33,2
211,34,436,206,2
14,126,553,591,2
232,63,691,175,2
404,402,396,441,2
17,267,334,270,2
197,315,282,69,2
149,72,658,38,2
116,89,477,34,2
605,266,78,419,2
799,423,123,105,2
261,177,236,320,2
340,86,37,24,2
423,218,60,298,2
316,144,145,81,2
421,146,10,191,2
308,168,198,158,2
101,49,108,302,2
3,87,615,159,2
22,206,128,324,2
22,41,589,392,2
29,40,926,768,2
257,172,231,117,2
66,16,1023,911,2
195,235,114,944,2
43,300,505,306,2
332,315,58,131,2
2,21,727,21,2
233,189,20,158,2
138,14,1013,249,2
3,215,291,197,2
64,34,233,261,2
303,407,638,556,2
375,340,475,577,2
58,9,1023,1023,2
168,15,27,424,2
41,54,263,111,2
523,155,9,500,2
44,33,472,104,2
302,323,1,274,2
146,80,857,188,2
324,129,871,554,2
218,88,493,811,2
203,26,111,463,2
71,133,24,517,2
54,152,854,54,2
247,88,1023,1023,2
233,69,116,19,2
152,28,923,416,2
433,158,415,85,2
62,24,164,62,2
76,113,805,653,2
18,125,123,418,2
144,21,75,447,2
299,80,575,1023,2
178,236,376,294,2
259,248,526,544,2
2,72,288,94,2
163,236,263,102,2
14,17,216,37,2
41,13,673,18,2
216,85,271,57,2
51,98,276,250,2
307,162,37,257,2
52,245,793,63,2
369,279,988,586,2
248,110,1023,1023,2
110,297,19,146,2
97,205,581,589,2
87,52,279,169,2
53,48,589,178,2
246,157,777,382,2
69,12,564,441,2
260,235,764,342,2
487,105,59,726,2
182,90,933,761,2
225,119,238,540,2
58,116,85,337,2
18,117,1023,919,2
63,130,478,443,2
300,106,127,136,2
199,123,858,926,2
79,338,1023,902,2
17,89,806,556,2
69,114,1023,397,2
286,53,1023,359,2
248,51,1023,1023,2
124,193,70,1008,2
39,200,334,611,2
63,40,861,377,2
506,21,825,765,2
239,202,1023,703,2
209,160,288,45,2
34,116,1023,388,2
461,305,393,127,2
215,235,1023,398,2
24,142,694,80,2
407,28,745,850,2
342,12,1023,590,2
465,583,533,151,2
547,188,963,541,2
21,67,338,302,2
507,109,413,312,2
28,89,489,40,2
62,53,207,230,2
77,17,174,356,2
104,176,841,259,2
55,143,724,474,2
147,117,290,236,2
138,15,171,276,2
446,411,1023,634,2
150,103,590,124,2
138,42,463,409,2
182,56,586,230,2
41,171,481,221,2
451,122,51,353,2
315,289,355,465,2
553,446,31,498,2
211,65,695,135,2
54,35,686,143,2
238,17,245,378,2
51,25,740,870,2
165,12,1023,486,2
190,132,682,118,2
187,93,127,27,2
27,27,419,415,2
115,208,660,523,2
682,310,587,178,2
188,277,185,231,2
214,404,92,341,2
824,37,403,459,2
1023,222,141,600,2
58,39,139,97,2
120,260,1023,238,2
140,301,987,105,2
208,25,485,225,2
107,145,1023,930,2
182,80,1023,734,2
129,21,376,94,2
127,155,369,105,2
286,228,263,126,2
342,132,1023,658,2
44,145,167,262,2
29,144,158,96,2
25,156,1023,251,2
13,108,1023,380,2
404,98,383,545,2
1,101,763,252,2
243,445,54,371,2
116,5,1013,602,2
197,164,406,74,2
462,21,1023,542,2
91,16,1023,409,2
250,284,483,241,2
241,233,432,93,2
12,97,39,55,2
117,41,408,237,2
325,156,539,313,2
24,25,41,34,2
251,156,148,119,2
195,241,1023,408,2
299,61,906,454,2
146,51,158,147,2
35,7,1023,70,2
257,58,1023,169,2
173,44,2,241,2
114,132,138,214,2
60,117,35,163,2
210,139,292,150,2
35,35,753,203,2
119,153,198,403,2
204,22,33,172,2
356,119,692,332,2
254,97,538,530,2
365,115,136,177,2
198,88,154,78,2
115,29,258,236,2
1,139,1023,391,2
157,84,788,274,2
110,63,96,203,2
193,134,281,316,2
26,123,214,73,2
27,43,343,242,2
0,16,151,86,2
61,35,637,228,2
8,147,154,148,2
211,171,335,101,2
27,241,620,265,2
155,140,46,32,2
166,55,524,345,2
139,87,284,216,2
107,245,340,158,2
160,57,558,116,2
249,202,65,29,2
257,95,676,296,2
140,229,752,776,2
197,202,361,261,2
141,132,238,283,2
26,45,143,453,2
47,5,148,94,2
375,147,283,159,2
185,92,610,242,2
85,188,457,188,2
88,9,181,5,2
25,53,344,87,2
78,59,719,266,2
287,407,613,279,2
196,27,492,407,2
46,102,70,133,2
4,53,392,33,2
373,235,264,274,2
252,172,410,248,2
33,29,435,122,2
64,9,57,178,2
12,38,417,264,2
173,49,225,238,2
285,67,160,81,2
17,34,106,62,2
42,82,511,265,2
209,143,131,149,2
219,40,495,4,2
55,78,216,364,2
98,23,599,204,2
112,32,191,85,2
1,37,54,14,2
88,103,525,354,2
64,61,84,370,2
46,180,246,31,2
333,76,120,32,2
46,13,129,310,2
20,55,107,163,2
18,30,167,195,2
201,41,781,320,2
199,50,298,105,2
161,7,531,263,2
14,111,504,288,2
136,107,484,378,2
254,93,8,322,2
209,115,259,629,2
215,182,425,502,2
25,147,263,664,2
102,7,141,427,2
66,38,365,354,2
64,183,174,215,2
13,108,63,2,2
39,66,166,60,2
124,251,16,2,2
164,218,33,10,2
86,164,256,53,2
6,30,822,304,2
191,235,543,283,2
72,70,222,85,2
250,119,29,42,2
14,207,70,147,2
127,73,95,47,2
205,53,157,44,2
37,60,453,182,2
149,34,116,167,2
170,118,239,132,2
182,93,100,23,2
340,237,301,111,2
113,179,51,61,2
10,22,358,192,2
116,51,391,284,2
72,108,633,336,2
245,43,143,14,2
106,27,88,5,2
139,53,285,160,2
32,16,11,292,2
244,25,262,868,2
138,67,477,410,2
35,170,156,231,2
39,183,101,62,2
258,266,221,61,2
19,16,120,186,2
93,279,184,101,2
155,173,31,104,2
49,89,393,8,2
254,137,61,252,2
99,28,130,396,2
73,34,36,68,2
20,122,231,65,2
41,106,149,198,2
170,171,131,4,2
6,67,392,331,2
122,258,411,6,2
52,141,481,46,2
177,113,241,403,2
73,114,72,50,2
227,200,311,196,2
123,83,0,67,2
206,240,9,32,2
16,25,130,109,2
274,198,22,132,2
53,154,21,140,2
92,142,235,290,2
94,72,508,303,2
76,40,156,53,2
313,175,186,39,2
197,91,241,178,2
154,37,33,7,2
103,89,52,80,2
218,28,235,27,2
1,96,244,66,2
27,244,272,63,2
54,368,237,151,2
179,115,276,155,2
436,62,276,141,2
83,321,183,74,2
249,36,107,170,2
111,190,133,29,2
204,212,75,138,2
181,31,268,179,2
33,64,130,127,2
137,81,328,177,2
193,53,144,1,2
7,51,14,93,2
4,107,403,274,2
8,48,43,203,2
186,73,446,193,2
230,69,254,102,2
90,198,11,100,2
128,203,52,91,2
33,86,44,9,2
63,188,23,75,2
89,166,0,49,2
81,18,47,2,2
22,71,171,136,2
112,97,22,114,2
52,89,20,5,2
127,104,241,272,2
19,36,223,113,2
105,181,179,181,2
185,158,474,267,2
7,163,45,92,2
126,62,386,17,2
197,243,113,26,2
145,106,80,241,2
34,78,37,173,2
91,159,43,197,2
226,210,153,61,2
177,53,5,106,2
280,111,103,18,2
294,85,8,6,2
25,24,134,62,2
198,27,63,30,2
290,9,295,133,2
21,11,400,37,2
6,14,322,387,2
5,7,317,282,2
187,70,378,264,2
14,28,100,81,2
160,17,193,499,2
339,231,427,359,2
37,177,0,16,2
59,79,220,141,2
147,24,0,55,2
140,32,106,11,2
72,119,52,97,2
54,53,87,59,2
102,215,100,2,2
21,51,87,1,2
75,153,53,51,2
106,89,197,80,2
163,137,69,83,2
175,7,22,32,2
107,121,424,200,2
73,76,403,74,2
128,142,264,205,2
175,137,228,213,2
82,22,449,244,2
550,219,522,121,2
286,28,87,142,2
41,96,0,5,2
1,39,72,13,2
262,324,78,5,2
133,43,17,25,2
146,58,0,5,2
5,120,56,2,2
15,18,72,1,2
112,91,111,105,2
209,249,133,30,2
184,85,245,57,2
121,34,401,111,2
7,70,222,193,2
148,6,167,30,2
84,17,199,202,2
235,182,15,15,2
101,17,399,349,2
35,196,183,181,2
252,241,14,46,2
2,48,31,125,2
4,120,34,77,2
7,16,173,64,2
476,388,10,57,2
30,43,18,32,2
92,22,26,15,2
258,301,133,21,2
204,285,151,46,2
157,178,142,107,2
84,13,266,279,2
216,201,79,45,2
52,141,568,506,2
14,7,15,43,2
204,232,353,223,2
39,30,111,116,2
33,228,340,43,2
48,78,0,58,2
55,12,25,58,2
63,6,170,71,2
3,127,151,90,2
48,28,7,50,2
48,250,35,18,2
26,111,27,6,2
26,87,32,29,2
307,219,256,1,2
1,278,290,49,2
57,95,202,98,2
288,336,227,139,2
262,140,111,70,2
198,172,6,158,2
88,6,14,19,2
11,69,218,243,2
277,299,142,51,2
216,75,164,45,2
86,178,37,101,2
37,116,139,8,2
88,73,193,76,2
247,267,174,125,2
122,126,139,37,2
19,218,72,92,2
303,14,79,20,2
256,387,235,14,2
13,113,135,39,2
339,183,114,143,2
133,243,492,247,2
41,16,340,154,2
320,144,225,131,2
157,68,539,203,2
45,30,275,309,2
58,19,626,409,2
58,148,55,136,2
179,254,16,105,2
47,156,197,67,2
516,403,3,262,2
314,265,259,107,2
194,119,79,68,2
0,238,49,71,2
219,91,87,103,2
229,15,177,8,2
61,19,333,417,2
174,235,0,36,2
308,80,73,29,2
659,377,372,233,2
18,99,366,29,2
172,33,276,135,2
176,67,394,207,2
309,142,479,190,2
68,85,63,135,2
117,46,226,185,2
252,61,10,101,2
129,129,54,81,2
219,90,304,42,2
76,126,311,306,2
46,37,539,614,2
237,9,108,1023,2
165,15,57,155,2
72,158,21,742,2
127,42,460,1023,2
74,255,273,29,2
69,72,0,78,2
56,58,126,40,2
106,73,75,216,2
144,262,2,123,2
33,117,298,120,2
86,98,150,593,2
166,156,346,60,2
262,221,327,19,2
53,55,658,1023,2
75,120,35,37,2
12,61,201,634,2
38,223,367,13,2
363,250,97,419,2
120,310,20,215,2
335,175,342,186,2
135,469,110,244,2
74,79,195,77,2
304,49,1003,280,2
128,183,1023,357,2
11,206,952,1023,2
196,87,216,144,2
56,47,963,705,2
166,179,231,292,2
80,23,240,451,2
159,63,16,783,2
210,96,1023,772,2
232,186,1023,714,2
425,371,1006,1023,2
51,187,265,157,2
131,9,122,383,2
206,64,400,380,2
9,12,96,93,2
214,282,585,245,2
1,216,575,320,2
174,115,0,414,2
128,123,269,330,2
79,45,615,1023,2
307,343,823,311,2
239,332,869,575,2
562,111,167,246,2
31,62,653,381,2
8,69,325,157,2
329,84,642,535,2
84,111,866,540,2
20,334,541,713,2
15,113,383,408,2
101,79,363,1023,2
240,194,115,322,2
119,33,1023,392,2
142,319,957,447,2
30,21,101,62,2
38,61,1023,850,2
438,124,219,70,2
74,30,672,186,2
62,21,17,7,2
16,52,1023,256,2
134,19,226,1023,2
77,55,1023,1023,2
142,126,320,241,2
76,247,152,310,2
46,213,641,308,2
285,224,517,327,2
228,211,84,528,2
173,285,731,1023,2
89,105,766,41,2
222,397,1023,256,2
228,262,731,975,2
136,42,177,261,2
246,363,331,342,2
147,649,312,61,2
51,307,329,229,2
109,71,339,322,2
145,71,552,240,2
398,142,423,51,2
539,200,82,926,2
204,130,479,1023,2
10,100,266,638,2
244,27,24,207,2
5,22,0,99,2
31,23,255,138,2
150,378,114,85,2
327,111,511,16,2
383,87,121,348,2
43,86,1023,719,2
269,105,156,614,2
314,45,1023,1023,2
412,198,1023,1023,2
70,200,501,32,2
586,29,494,133,2
26,254,701,381,2
161,210,291,151,2
152,273,1023,598,2
13,220,537,564,2
67,53,1023,295,2
77,113,1023,108,2
253,69,764,371,2
94,219,1023,65,2
311,144,432,832,2
294,256,1023,284,2
17,173,509,279,2
316,296,877,121,2
170,451,1023,169,2
97,234,417,256,2
272,74,88,325,2
293,57,202,167,2
253,89,146,101,2
240,93,69,72,2
8,341,257,178,2
233,95,703,509,2
201,232,573,841,2
374,161,308,557,2
306,203,755,56,2
61,34,347,75,2
21,37,313,325,2
175,236,262,686,2
98,243,187,207,2
585,133,182,184,2
310,191,263,244,2
380,555,309,1023,2
1023,272,192,1023,2
1023,642,46,1023,2
200,233,114,980,2
185,70,388,523,2
88,11,430,224,2
219,190,357,62,2
142,30,344,39,2
29,46,346,260,2
204,33,91,155,2
189,68,0,32,2
236,224,57,128,2
91,46,51,106,2
64,42,147,160,2
32,51,184,123,2
132,149,11,4,2
137,92,228,60,2
291,107,130,34,2
1,8,106,13,2
52,12,275,355,2
202,13,250,454,2
73,12,124,171,2
116,48,181,905,2
27,167,164,457,2
183,247,401,347,2
123,155,344,72,2
106,146,711,70,2
50,32,418,10,2
454,285,404,159,2
55,71,174,165,2
181,121,705,249,2
40,35,352,20,2
45,42,937,654,2
21,88,15,470,2
149,188,514,389,2
127,21,117,198,2
330,135,148,15,2
103,116,195,425,2
77,261,757,749,2
238,94,51,613,2
27,37,284,65,2
374,270,74,12,2
303,255,203,186,2
176,23,1023,646,2
146,138,97,145,2
852,333,199,106,2
2,81,14,28,2
68,116,337,411,2
5,135,194,23,2
98,9,308,251,2
3,125,59,62,2
8,84,230,135,2
437,259,310,219,2
158,349,2,23,2
22,44,168,566,2
320,303,868,79,2
213,65,186,61,2
336,275,139,238,2
473,467,515,561,2
307,118,255,112,2
108,102,278,65,2
134,6,798,87,2
163,147,153,2,2
71,110,73,18,2
4,37,0,176,2
198,68,355,144,2
162,7,136,267,2
236,187,136,397,2
70,143,118,527,2
1023,459,417,365,2
502,103,4,603,2
115,23,140,170,2
419,298,281,67,2
140,16,563,497,2
25,70,652,626,2
144,220,171,104,2
299,215,114,197,2
203,50,255,41,2
83,123,290,144,2
65,21,149,149,2
110,91,234,215,2
85,27,123,18,2
193,61,19,214,2
0,18,387,523,2
365,111,559,182,2
391,39,163,46,2
318,333,492,196,2
197,184,79,194,2
174,114,464,496,2
497,366,336,254,2
197,28,842,586,2
97,94,302,98,2
207,66,155,58,2
66,127,235,65,2
58,281,434,9,2
321,13,97,834,2
100,122,116,116,2
386,44,42,555,2
462,43,0,523,2
60,23,183,9,2
139,216,187,137,2
318,262,256,172,2
58,136,195,6,2
14,69,91,143,2
187,28,274,93,2
57,238,67,89,2
23,42,336,163,2
109,42,530,468,2
246,174,345,353,2
387,202,455,41,2
101,176,120,49,2
884,545,90,155,2
43,169,44,224,2
135,101,177,36,2
50,47,0,500,2
116,52,151,551,2
94,93,258,431,2
16,121,16,114,2
7,100,55,78,2
67,22,99,141,2
104,9,319,250,2
119,151,110,210,2
110,75,95,44,2
15,224,146,161,2
119,14,159,192,2
7,18,0,257,2
558,388,0,16,2
608,356,2,107,2
453,259,90,155,2
379,250,77,242,2
15,5,65,51,2
159,132,201,16,2
386,271,185,70,2
90,61,265,71,2
6,74,397,271,2
180,180,141,129,2
8,68,533,266,2
49,71,214,41,2
11,110,188,7,2
56,23,184,365,2
35,51,62,91,2
117,62,425,458,2
132,26,278,176,2
34,43,768,8,2
105,17,260,339,2
54,13,689,118,2
85,63,192,76,2
69,49,0,4,2
126,37,157,114,2
87,175,85,4,2
86,35,132,98,2
357,295,13,63,2
504,245,0,125,2
633,291,271,51,2
336,298,767,202,2
24,9,484,248,2
137,9,613,571,2
165,58,190,69,2
17,151,238,199,2
172,99,447,27,2
70,147,304,140,2
140,29,86,175,2
204,102,17,296,2
161,77,62,32,2
0,18,104,86,2
125,116,188,47,2
59,146,254,46,2
93,18,132,23,2
57,66,55,126,2
115,16,226,79,2
160,32,82,251,2
56,54,242,3,2
23,26,177,78,2
77,49,214,100,2
66,111,175,270,2
57,50,205,125,2
1,78,329,160,2
222,275,293,336,2
67,101,658,399,2
135,119,23,189,2
129,38,0,76,2
82,31,52,64,2
66,77,16,81,2
172,196,120,112,2
215,166,165,101,2
23,130,78,51,2
49,85,16,187,2
120,14,132,201,2
73,55,453,167,2
57,184,8,153,2
76,61,551,333,2
296,264,136,101,2
229,9,87,106,2
286,126,290,107,2
182,186,41,476,2
32,59,373,117,2
90,69,376,592,2
42,50,314,219,2
17,54,88,6,2
30,125,69,21,2
124,19,24,76,2
54,123,75,108,2
31,278,99,53,2
3,45,42,13,2
0,9,100,137,2
85,67,2,14,2
147,184,33,105,2
221,193,152,5,2
2,81,55,1,2
165,65,347,124,2
64,36,88,151,2
171,124,598,377,2
69,60,124,65,2
36,33,49,321,2
117,73,105,107,2
364,361,15,141,2
295,279,185,76,2
165,213,307,12,2
186,9,167,74,2
118,60,72,65,2
216,329,53,9,2
7,16,109,22,2
212,168,320,90,2
409,124,60,132,2
564,18,4,59,2
20,382,372,293,2
380,286,8,221,2
130,87,370,33,2
350,279,109,9,2
114,157,270,113,2
66,214,31,64,2
122,6,101,28,2
96,108,143,177,2
0,63,58,3,2
87,92,106,63,2
55,81,59,70,2
107,121,32,24,2
140,87,53,44,2
53,86,87,46,2
235,178,120,143,2
253,66,121,26,2
10,21,348,183,2
120,132,11,48,2
77,118,495,376,2
112,217,43,60,2
92,61,547,299,2
234,251,272,147,2
44,25,223,146,2
252,162,465,240,2
219,8,213,75,2
569,48,145,113,2
313,177,222,102,2
204,79,71,2,2
321,238,37,2,2
494,302,47,21,2
333,289,41,1,2
399,261,174,20,2
104,47,39,120,2
99,76,72,113,2
195,319,309,7,2
120,154,89,8,2
141,176,0,180,2
34,46,101,142,2
20,15,174,178,2
126,78,250,99,2
266,147,424,220,2
171,25,294,237,2
7,35,438,247,2
260,9,416,216,2
37,125,241,156,2
123,144,71,35,2
63,26,140,53,2
108,210,387,119,2
283,161,201,157,2
306,5,477,111,2
497,300,143,36,2
22,93,53,53,2
10,294,61,271,2
38,65,168,44,2
24,132,110,6,2
35,97,475,515,2
57,27,302,188,2
149,208,14,323,2
65,66,144,563,2
225,252,118,198,2
240,177,351,478,2
6,97,9,4,2
88,24,381,215,2
14,22,146,19,2
89,101,147,134,2
225,158,145,137,2
184,245,258,312,2
127,85,570,391,2
52,39,465,403,2
205,50,115,62,2
191,151,50,16,2
90,252,15,81,2
122,223,411,149,2
5,35,122,269,2
21,14,305,85,2
92,85,376,72,2
115,93,135,17,2
208,149,631,432,2
167,34,229,283,2
50,54,377,399,2
185,65,159,346,2
170,331,260,243,2
30,259,305,72,2
103,16,519,271,2
32,44,140,270,2
143,94,489,235,2
12,189,770,168,2
258,188,167,77,2
40,67,243,193,2
118,200,298,77,2
73,184,501,13,2
88,317,1,38,2
251,192,268,277,2
480,316,305,340,2
674,358,116,224,2
156,73,9,410,2
34,37,241,303,2
75,98,534,594,2
27,34,274,818,2
113,151,1023,1023,2
318,125,186,98,2
324,16,1023,707,2
254,207,1015,369,2
197,189,468,282,2
46,166,450,541,2
77,91,211,492,2
307,54,87,266,2
114,352,315,68,2
15,158,205,568,2
23,12,221,114,2
50,31,1023,1023,2
21,31,761,362,2
200,154,96,221,2
441,9,196,139,2
7,51,48,68,2
36,178,520,820,2
185,178,923,994,2
174,101,544,831,2
103,92,1023,391,2
211,88,381,292,2
142,29,843,219,2
50,46,443,329,2
207,50,481,532,2
204,6,718,1023,2
9,69,226,32,2
190,176,446,248,2
191,123,322,99,2
76,48,147,1023,2
304,306,621,1023,2
70,383,448,120,2
286,249,751,489,2
179,112,924,527,2
90,21,367,60,2
174,131,368,164,2
239,6,437,127,2
130,137,1023,395,2
94,52,1023,973,2
10,22,820,1023,2
371,14,814,1023,2
351,312,484,240,2
371,10,707,1023,2
9,36,1021,1023,2
380,120,280,49,2
134,4,1023,792,2
417,183,446,94,2
191,12,548,65,2
9,9,481,948,2
137,161,669,1023,2
226,99,819,847,2
272,409,930,374,2
159,39,231,566,2
52,279,1023,602,2
266,127,115,658,2
50,272,1023,616,2
28,193,477,124,2
26,16,938,857,2
240,263,515,476,2
62,80,1023,1023,2
641,173,1023,473,2
307,189,226,1023,2
245,194,690,1023,2
285,147,349,376,2
51,35,162,27,2
50,53,440,207,2
17,100,468,147,2
41,163,651,235,2
323,295,463,53,2
308,247,1023,401,2
545,228,753,135,2
442,468,276,422,2
46,15,408,229,2
254,369,182,320,2
417,130,666,546,2
256,198,871,370,2
111,123,404,172,2
208,51,568,1023,2
409,198,797,1023,2
203,110,1023,708,2
900,378,1023,308,2
156,152,715,864,2
61,182,770,58,2
60,193,228,530,2
75,96,712,724,2
43,68,92,28,2
80,77,404,370,2
120,55,838,205,2
400,264,348,100,2
25,49,1023,377,2
72,100,309,237,2
119,39,166,451,2
238,56,574,145,2
398,518,1023,731,2
855,388,268,22,2
107,48,979,97,2
58,194,194,6,2
131,31,36,33,2
133,48,634,165,2
254,126,331,377,2
100,18,717,150,2
124,11,527,273,2
45,36,513,180,2
6,172,426,246,2
545,183,98,190,2
682,291,1018,732,2
39,43,198,279,2
191,19,191,30,2
68,267,1023,62,2
133,178,653,383,2
678,338,1023,502,2
497,33,772,352,2
236,92,1023,636,2
230,284,268,217,2
154,209,1023,398,2
134,52,340,77,2
78,37,825,202,2
29,70,375,634,2
362,309,14,128,2
61,47,55,193,2
34,17,1023,662,2
183,48,11,7,2
106,201,720,327,2
183,175,470,174,2
199,77,22,92,2
283,219,462,257,2
197,151,803,36,2
350,92,68,173,2
159,123,825,396,2
534,53,1009,458,2
135,126,95,244,2
372,29,439,25,2
30,35,200,382,2
31,50,337,41,2
2,197,487,10,2
288,160,382,62,2
51,56,49,240,2
421,110,425,498,2
232,214,743,463,2
429,152,872,63,2
95,36,215,38,2
97,87,325,123,2
21,169,48,240,2
18,104,31,52,2
107,186,274,237,2
145,53,1023,397,2
18,362,411,68,2
132,28,48,339,2
42,86,46,46,2
81,50,844,401,2
42,222,184,89,2
65,53,380,942,2
50,20,301,474,2
112,7,421,1023,2
5,55,54,690,2
124,14,368,576,2
78,64,406,130,2
118,85,946,310,2
74,64,296,239,2
7,205,88,102,2
36,270,193,62,2
124,103,318,95,2
67,216,349,48,2
237,95,141,109,2
498,33,119,128,2
450,115,192,5,2
144,215,160,15,2
282,28,114,441,2
739,174,505,79,2
261,45,116,54,2
381,439,185,12,2
136,51,406,438,2
64,107,328,33,2
540,186,3,4,2
131,23,395,264,2
144,59,904,357,2
917,631,360,405,2
1023,498,249,335,2
171,59,345,121,2
41,36,360,123,2
52,57,40,291,2
296,184,1023,945,2
41,23,46,76,2
224,144,262,446,2
155,234,179,69,2
34,28,250,74,2
157,429,283,28,2
214,12,66,573,2
132,131,286,214,2
388,118,266,5,2
76,46,897,539,2
319,71,461,313,2
163,63,178,226,2
139,155,91,44,2
274,72,6,119,2
95,228,48,287,2
40,152,169,188,2
83,159,208,4,2
50,22,262,62,2
180,110,214,54,2
375,325,192,194,2
104,35,298,199,2
8,137,337,883,2
165,285,95,141,2
298,92,610,8,2
18,132,42,173,2
5,237,166,254,2
202,13,260,21,2
183,8,419,415,2
72,195,329,218,2
19,28,33,312,2
53,148,388,446,2
85,63,165,364,2
28,156,1023,811,2
167,16,380,246,2
411,362,449,167,2
85,123,74,573,2
7,144,158,286,2
304,55,332,232,2
521,208,17,149,2
129,72,95,212,2
25,118,196,156,2
4,193,187,210,2
97,34,72,43,2
22,19,467,24,2
81,115,509,284,2
154,216,451,178,2
2,6,116,180,2
187,33,271,16,2
177,101,309,126,2
10,38,468,234,2
218,15,3,77,2
74,141,185,91,2
166,11,270,164,2
5,28,2,34,2
18,53,515,121,2
6,30,114,248,2
7,153,167,444,2
241,78,330,35,2
43,88,375,573,2
48,140,425,267,2
270,202,497,246,2
337,69,147,50,2
185,82,85,160,2
44,213,332,453,2
37,104,429,341,2
231,272,201,39,2
241,169,107,124,2
127,177,87,192,2
44,47,2,107,2
149,58,213,37,2
325,184,123,191,2
288,168,18,234,2
63,115,37,133,2
125,155,713,113,2
173,32,552,91,2
72,85,563,289,2
2,33,572,318,2
137,11,63,35,2
65,16,109,7,2
59,187,284,155,2
62,65,99,179,2
15,82,117,195,2
283,267,112,77,2
342,365,267,192,2
210,271,155,254,2
159,200,4,217,2
54,23,239,428,2
285,234,13,641,2
133,5,282,432,2
66,63,151,292,2
55,50,254,167,2
80,32,24,117,2
111,22,258,89,2
86,25,540,225,2
65,80,146,116,2
341,193,123,116,2
65,258,7,56,2
69,457,89,10,2
43,233,11,27,2
163,149,31,46,2
133,379,408,75,2
59,29,329,421,2
58,229,480,427,2
129,83,370,10,2
214,105,499,264,2
81,65,234,67,2
23,236,47,8,2
69,198,43,42,2
225,6,502,370,2
267,237,474,29,2
285,19,45,321,2
249,255,153,3,2
76,43,269,237,2
71,39,48,123,2
157,202,104,89,2
105,50,37,10,2
14,236,86,207,2
106,147,0,123,2
32,115,21,87,2
105,92,309,185,2
293,131,200,197,2
381,78,34,35,2
125,80,64,48,2
105,170,320,301,2
114,56,81,317,2
40,39,27,297,2
207,170,158,47,2
107,19,20,430,2
273,191,346,483,2
28,97,4,114,2
62,10,114,38,2
124,15,84,103,2
225,57,194,109,2
172,101,179,121,2
314,114,124,357,2
61,15,349,313,2
122,59,0,52,2
5,159,32,14,2
29,29,228,59,2
158,12,394,20,2
77,64,99,126,2
20,54,236,151,2
22,183,15,8,2
59,162,207,164,2
21,28,22,13,2
149,41,284,395,2
78,108,19,31,2
23,72,152,195,2
436,233,44,72,2
137,112,53,99,2
35,23,226,81,2
21,131,2,14,2
250,175,6,2,2
203,132,396,400,2
143,117,560,327,2
36,104,0,184,2
93,7,139,305,2
26,62,18,124,2
133,203,28,104,2
146,38,127,440,2
74,59,206,71,2
93,7,14,94,2
45,6,186,75,2
172,22,0,67,2
233,56,38,2,2
287,287,54,84,2
241,58,127,49,2
265,56,156,101,2
177,18,0,11,2
17,107,85,3,2
35,7,247,202,2
198,108,222,78,2
85,31,17,118,2
33,27,255,6,2
164,80,66,238,2
76,27,502,235,2
122,45,436,81,2
26,34,323,419,2
129,107,0,9,2
137,123,78,149,2
318,88,206,198,2
484,463,72,12,2
686,666,43,27,2
126,208,14,37,2
138,66,35,5,2
314,417,71,34,2
180,265,73,1,2
89,55,252,52,2
493,355,269,75,2
590,332,196,124,2
68,12,346,154,2
81,22,13,83,2
201,180,343,24,2
88,35,78,181,2
91,66,3,61,2
5,29,0,123,2
152,15,0,17,2
66,104,68,14,2
201,165,0,5,2
371,292,334,163,2
43,282,15,68,2
87,71,39,67,2
46,122,8,21,2
9,34,51,3,2
54,110,12,139,2
73,13,54,33,2
277,105,6,91,2
3,10,266,170,2
213,213,159,16,2
130,64,261,62,2
93,186,611,132,2
228,95,93,96,2
144,97,659,290,2
332,304,77,8,2
183,99,85,13,2
250,226,102,137,2
82,96,144,81,2
111,94,105,77,2
18,41,70,18,2
308,241,43,113,2
229,43,148,249,2
74,119,149,223,2
235,48,25,27,2
129,105,370,110,2
119,56,40,23,2
187,63,34,60,2
101,101,208,138,2
65,23,197,267,2
27,55,83,19,2
18,15,85,79,2
36,26,0,34,2
107,6,339,90,2
304,55,26,72,2
459,57,271,136,2
0,16,6,26,2
52,106,167,111,2
19,182,365,124,2
48,236,238,47,2
75,104,307,54,2
388,255,290,640,2
7,6,1,33,2
34,101,29,29,2
309,6,104,76,2
2,35,454,205,2
119,167,111,18,2
119,37,243,123,2
210,263,0,20,2
164,67,77,50,2
261,39,15,32,2
157,201,234,77,2
92,157,185,139,2
17,82,2,3,2
134,21,223,173,2
360,61,132,32,2
194,152,190,2,2
134,111,136,54,2
135,37,0,83,2
339,129,0,37,2
230,143,109,109,2
210,127,152,171,2
182,171,236,46,2
134,47,554,344,2
207,276,238,89,2
50,28,182,199,2
114,66,44,67,2
281,250,153,25,2
309,283,99,39,2
625,164,354,195,2
138,159,152,148,2
93,213,119,16,2
116,20,246,77,2
251,54,340,538,2
143,71,336,104,2
113,205,1023,270,2
23,50,292,440,2
20,59,257,223,2
7,35,8,268,2
156,151,17,44,2
100,40,722,216,2
264,196,399,43,2
77,88,40,40,2
13,9,245,42,2
56,135,45,63,2
173,47,25,20,2
191,123,280,370,2
104,19,539,11,2
56,178,159,805,2
196,189,381,48,2
119,153,412,222,2
61,67,401,125,2
237,243,622,297,2
78,145,567,180,2
220,129,434,330,2
10,72,55,258,2
62,47,758,481,2
135,45,137,10,2
373,138,690,946,2
117,12,299,119,2
187,13,724,353,2
367,93,500,571,2
164,203,205,76,2
389,97,41,384,2
380,251,161,107,2
93,6,532,466,2
173,135,603,318,2
338,115,518,232,2
659,128,0,441,2
184,67,138,141,2
85,119,96,211,2
23,143,358,272,2
59,7,210,23,2
34,203,25,24,2
262,167,24,560,2
278,39,3,279,2
229,172,0,4,2
18,28,25,77,2
206,180,563,1023,2
84,215,78,241,2
267,44,856,1023,2
143,52,416,77,2
61,55,336,169,2
3,141,536,394,2
17,82,623,48,2
147,122,653,859,2
134,199,445,237,2
100,97,369,383,2
47,48,1023,485,2
56,12,526,196,2
89,8,1023,738,2
77,107,323,39,2
94,52,783,510,2
277,78,262,13,2
235,51,59,229,2
152,188,0,341,2
330,45,31,118,2
343,361,148,197,2
220,32,367,209,2
236,168,322,116,2
84,38,72,653,2
79,69,2,313,2
39,139,380,395,2
44,271,53,468,2
436,391,1023,275,2
489,261,1023,1023,2
203,331,39,395,2
57,226,81,34,2
41,179,104,50,2
77,98,818,979,2
1,7,790,159,2
35,123,148,418,2
166,72,803,257,2
194,185,276,1023,2
249,187,966,1023,2
434,233,198,192,2
186,211,1023,492,2
252,6,721,120,2
13,55,509,280,2
255,159,1023,1023,2
747,912,1023,762,2
107,208,33,34,2
257,73,254,138,2
210,218,437,169,2
20,163,221,642,2
111,10,1023,1023,2
41,51,907,409,2
14,89,739,42,2
73,210,10,525,2
565,294,263,837,2
170,53,91,1023,2
431,184,287,488,2
232,380,117,186,2
425,22,927,35,2
146,102,240,381,2
127,131,1023,642,2
159,17,505,102,2
80,60,799,173,2
185,46,38,345,2
29,34,312,1023,2
304,25,663,511,2
162,28,237,276,2
172,215,4,10,2
135,175,285,127,2
164,59,370,477,2
114,105,899,95,2
191,86,1023,294,2
169,149,336,943,2
78,53,133,759,2
35,108,504,55,2
302,14,527,608,2
168,8,1023,136,2
106,65,888,171,2
96,49,302,76,2
110,45,1023,1023,2
254,27,1023,1023,2
477,682,328,126,2
207,402,675,461,2
302,212,742,299,2
359,350,1023,888,2
36,169,274,324,2
280,175,107,665,2
224,170,937,347,2
339,65,568,215,2
64,5,1023,654,2
6,388,391,512,2
186,196,496,796,2
32,306,136,518,2
136,49,248,157,2
113,394,403,51,2
474,155,161,524,2
66,57,1023,531,2
76,37,23,64,2
372,312,1023,592,2
665,738,306,197,2
868,371,430,375,2
191,34,862,215,2
260,318,235,205,2
304,70,151,200,2
471,67,1023,496,2
342,143,1023,16,2
136,35,126,33,2
106,150,677,264,2
134,44,1023,383,2
144,257,444,606,2
20,5,352,545,2
446,217,188,67,2
6,31,109,88,2
125,125,639,302,2
56,36,281,567,2
426,328,407,155,2
280,138,167,100,2
617,67,665,689,2
126,176,245,772,2
237,408,549,17,2
221,130,346,240,2
333,382,614,595,2
214,367,132,212,2
179,8,36,102,2
14,58,209,86,2
277,315,4,129,2
258,10,501,386,2
331,123,68,16,2
186,71,95,54,2
143,132,194,18,2
381,171,226,216,2
69,206,557,1,2
187,119,740,105,2
163,126,608,119,2
77,117,150,86,2
88,55,93,56,2
104,7,365,263,2
126,198,347,265,2
210,191,490,564,2
30,212,0,15,2
24,203,190,28,2
283,382,213,89,2
99,35,176,485,2
202,70,468,452,2
421,42,620,98,2
322,419,37,42,2
225,99,497,22,2
30,26,85,168,2
205,159,733,97,2
63,177,139,226,2
135,31,0,25,2
135,7,132,180,2
133,40,401,98,2
58,102,910,405,2
12,12,308,91,2
51,19,113,31,2
222,131,478,55,2
8,156,330,588,2
76,103,1023,846,2
188,159,12,136,2
9,31,510,14,2
491,149,443,593,2
790,467,914,857,2
390,34,181,221,2
12,134,198,234,2
170,141,96,235,2
71,40,482,356,2
18,144,11,176,2
29,123,639,218,2
125,71,573,131,2
140,26,622,229,2
42,126,610,430,2
197,189,316,56,2
80,36,348,440,2
352,285,289,508,2
245,15,420,1023,2
39,159,130,240,2
102,156,124,60,2
185,198,74,2,2
287,117,237,53,2
226,96,93,137,2
124,261,140,294,2
193,190,368,83,2
36,32,263,291,2
92,50,213,1,2
142,25,17,4,2
421,285,186,48,2
435,300,224,53,2
5,89,415,389,2
780,601,1023,167,2
167,345,167,339,2
312,140,253,16,2
67,57,231,653,2
202,130,209,507,2
323,174,301,263,2
3,34,255,174,2
78,6,321,738,2
161,114,92,141,2
673,62,735,116,2
357,41,0,15,2
64,13,95,156,2
170,127,5,141,2
62,234,307,294,2
215,158,55,195,2
135,92,469,289,2
255,304,378,259,2
71,164,684,192,2
155,48,110,134,2
34,35,642,161,2
454,51,466,76,2
111,28,465,383,2
103,38,502,235,2
147,113,416,282,2
14,135,439,14,2
63,148,23,407,2
134,81,22,66,2
173,60,109,247,2
65,29,334,213,2
39,129,89,82,2
135,231,128,50,2
216,315,211,128,2
211,312,6,54,2
350,329,81,283,2
124,67,45,158,2
95,26,281,230,2
138,221,219,351,2
16,14,122,102,2
66,31,173,170,2
3,27,43,213,2
19,244,147,1,2
43,122,8,27,2
91,9,223,166,2
112,19,314,98,2
329,110,39,255,2
35,166,87,177,2
155,113,246,40,2
24,17,251,215,2
7,141,272,260,2
1,49,287,148,2
434,231,273,73,2
19,125,343,374,2
566,432,442,376,2
160,194,266,106,2
283,78,85,21,2
3,42,149,255,2
102,44,202,129,2
48,141,220,35,2
109,83,150,207,2
160,52,29,834,2
551,481,538,979,2
213,135,184,100,2
74,30,286,5,2
262,185,288,21,2
166,15,158,190,2
102,68,77,123,2
128,14,342,28,2
217,128,84,4,2
86,68,11,109,2
73,158,298,83,2
2,123,505,429,2
190,136,250,171,2
51,75,527,30,2
70,176,37,267,2
316,148,354,293,2
319,9,0,7,2
305,248,90,241,2
8,214,241,236,2
48,35,130,67,2
393,355,569,517,2
230,23,263,368,2
40,146,266,69,2
105,186,40,5,2
61,15,78,181,2
273,139,36,10,2
166,13,817,508,2
227,149,825,11,2
172,196,623,416,2
73,90,340,93,2
90,13,280,257,2
151,103,260,191,2
12,43,98,225,2
266,231,574,371,2
379,77,82,239,2
177,196,155,209,2
8,6,59,107,2
126,80,0,29,2
203,110,201,41,2
451,55,187,60,2
112,122,135,66,2
191,117,160,148,2
108,172,297,102,2
35,234,256,174,2
153,144,134,130,2
236,329,140,65,2
111,200,237,137,2
202,173,278,161,2
51,117,106,3,2
25,9,101,193,2
46,27,218,175,2
6,70,103,140,2
164,214,457,56,2
4,71,22,343,2
6,16,53,174,2
17,128,210,22,2
82,131,46,5,2
9,163,247,128,2
148,21,533,139,2
138,37,258,89,2
33,230,2,25,2
179,133,286,145,2
327,303,17,39,2
202,116,0,75,2
167,9,63,36,2
520,196,113,99,2
108,122,4,26,2
84,12,50,257,2
0,44,354,207,2
259,205,23,92,2
186,211,423,212,2
252,60,44,58,2
123,61,30,31,2
238,174,403,314,2
7,44,104,217,2
88,26,603,551,2
52,87,17,39,2
5,187,69,85,2
239,191,162,161,2
767,511,87,311,2
112,184,492,181,2
211,40,535,317,2
25,119,222,345,2
117,45,4,220,2
168,128,259,23,2
41,84,673,205,2
158,180,248,289,2
145,152,765,918,2
99,15,9,3,2
93,93,113,79,2
9,24,93,87,2
11,39,51,23,2
29,16,193,53,2
355,60,191,559,2
581,381,95,184,2
80,124,451,383,2
488,253,40,34,2
15,44,310,116,2
575,286,466,259,2
26,70,795,106,2
49,47,522,342,2
119,95,77,72,2
19,63,192,102,2
15,69,222,133,2
65,12,167,77,2
15,37,66,26,2
5,75,89,3,2
113,28,8,167,2
6,6,7,87,2
164,179,346,140,2
14,103,430,0,2
375,363,11,44,2
147,135,362,128,2
293,131,495,493,2
9,35,596,428,2
203,19,481,433,2
266,139,180,282,2
21,46,179,61,2
147,12,134,2,2
43,9,217,52,2
154,280,21,111,2
89,320,412,66,2
5,57,77,4,2
134,37,431,200,2
39,6,31,14,2
84,157,52,182,2
3,58,334,5,2
267,108,0,97,2
94,57,92,13,2
79,36,57,94,2
207,11,297,26,2
123,67,106,110,2
34,193,70,35,2
264,19,13,40,2
520,54,50,120,2
38,56,99,8,2
304,6,154,87,2
149,137,468,33,2
3,67,446,96,2
57,87,483,122,2
322,13,229,5,2
144,68,59,245,2
6,81,172,35,2
134,111,251,48,2
201,180,118,3,2
135,7,81,68,2
100,215,505,151,2
286,56,342,102,2
105,59,311,94,2
6,15,107,54,2
25,31,203,2,2
114,63,202,121,2
364,244,0,76,2
337,335,322,108,2
60,28,137,91,2
84,104,455,277,2
139,69,226,166,2
22,38,439,313,2
11,73,307,152,2
46,177,165,69,2
31,102,0,50,2
158,162,58,19,2
13,41,100,31,2
159,21,43,78,2
222,200,0,2,2
70,94,1,50,2
61,146,170,46,2
130,69,351,131,2
126,12,290,140,2
530,121,0,55,2
222,23,49,237,2
30,141,54,5,2
149,85,161,87,2
35,27,24,54,2
91,6,168,28,2
227,135,15,22,2
100,20,18,104,2
104,197,2,48,2
195,114,35,23,2
142,251,0,5,2
103,53,45,50,2
226,127,31,83,2
175,315,190,47,2
20,55,171,28,2
191,65,53,103,2
7,20,221,278,2
63,101,66,169,2
2,100,244,115,2
64,29,0,1,2
155,150,0,53,2
52,29,162,79,2
208,242,15,26,2
122,146,18,106,2
48,18,1,15,2
207,193,179,78,2
165,60,395,214,2
187,99,166,393,2
79,133,137,266,2
124,28,484,375,2
1,26,332,243,2
294,192,251,149,2
17,30,278,332,2
140,128,93,7,2
43,10,175,42,2
388,138,112,101,2
186,32,225,55,2
222,180,61,47,2
60,101,671,320,2
54,67,132,86,2
417,230,363,413,2
79,136,0,432,2
376,378,290,146,2
106,133,44,817,2
60,25,708,774,2
239,139,728,342,2
96,12,117,922,2
24,197,432,233,2
280,253,49,169,2
304,221,130,80,2
122,173,451,59,2
85,146,509,100,2
19,61,213,135,2
62,38,15,49,2
139,116,235,55,2
74,23,302,506,2
7,123,249,26,2
131,71,111,270,2
262,109,5,435,2
14,28,177,448,2
124,16,43,93,2
251,78,389,312,2
129,133,367,445,2
213,15,502,218,2
237,31,19,154,2
415,236,265,340,2
128,338,448,379,2
20,175,447,419,2
144,60,246,446,2
21,60,166,69,2
199,146,723,400,2
198,248,79,441,2
241,21,178,147,2
321,272,179,97,2
208,113,245,83,2
75,96,629,950,2
147,275,285,409,2
158,83,377,227,2
92,7,783,287,2
58,19,576,23,2
172,171,667,780,2
216,31,244,637,2
110,24,345,111,2
180,105,342,600,2
73,308,137,272,2
109,180,665,442,2
139,134,457,530,2
65,133,0,25,2
240,187,94,85,2
52,158,696,384,2
48,189,978,403,2
40,40,278,911,2
171,88,585,50,2
515,555,660,1023,2
130,83,501,153,2
270,252,63,196,2
481,123,188,118,2
200,31,179,202,2
217,27,310,231,2
177,310,282,275,2
219,145,65,1023,2
66,47,546,1023,2
102,209,197,84,2
42,325,239,192,2
149,447,287,736,2
207,108,109,87,2
66,51,1023,1023,2
167,84,147,293,2
60,24,730,531,2
31,58,421,484,2
28,37,344,89,2
113,245,426,267,2
524,290,86,312,2
232,80,174,349,2
258,17,292,472,2
114,38,108,1023,2
7,82,230,878,2
39,149,57,630,2
180,198,145,122,2
312,8,380,265,2
12,56,47,612,2
96,101,483,126,2
296,100,66,39,2
52,38,20,13,2
596,316,680,223,2
538,301,247,558,2
44,356,998,1023,2
629,714,123,353,2
1,63,343,959,2
1,206,974,691,2
212,158,180,5,2
2,185,599,454,2
28,20,663,493,2
19,54,1023,951,2
82,284,231,466,2
10,40,797,69,2
11,23,794,764,2
5,112,1023,861,2
5,35,158,76,2
39,118,476,410,2
202,27,275,685,2
376,80,92,41,2
119,291,540,896,2
289,112,516,918,2
53,268,28,314,2
341,134,248,105,2
138,32,659,724,2
228,17,606,911,2
173,174,676,79,2
95,229,937,21,2
62,9,170,471,2
41,95,477,144,2
58,105,1023,322,2
79,78,326,1023,2
502,339,1023,515,2
100,89,1023,448,2
32,44,778,1023,2
239,145,936,664,2
265,86,923,698,2
326,20,314,1023,2
70,297,375,199,2
247,105,224,530,2
54,63,9,336,2
67,75,506,58,2
130,12,311,201,2
1,56,77,25,2
46,8,647,246,2
171,29,103,215,2
162,200,475,159,2
567,55,759,83,2
925,280,205,1023,2
860,284,509,1023,2
1023,428,829,1023,2
72,166,51,404,2
279,52,1023,306,2
92,34,1023,998,2
178,27,163,338,2
408,339,340,68,2
62,7,335,360,2
65,145,304,16,2
52,172,750,87,2
43,87,626,391,2
121,236,341,286,2
234,88,447,85,2
34,138,131,850,2
85,18,518,63,2
207,121,545,193,2
518,416,0,10,2
122,39,468,144,2
89,10,741,417,2
37,13,141,200,2
337,44,234,377,2
124,10,78,36,2
66,180,375,124,2
364,38,91,455,2
41,46,395,617,2
6,15,245,236,2
78,94,339,149,2
63,253,283,83,2
78,13,0,107,2
74,92,44,62,2
90,179,30,97,2
6,90,322,167,2
24,57,125,32,2
170,298,305,154,2
12,52,10,98,2
160,235,1023,284,2
149,39,1023,125,2
8,7,218,606,2
36,6,212,382,2
11,194,3,100,2
153,57,421,64,2
49,212,754,465,2
6,67,484,14,2
170,125,997,566,2
232,24,695,14,2
54,106,334,36,2
26,36,291,156,2
168,119,47,825,2
78,146,247,368,2
191,101,524,124,2
387,312,41,399,2
193,52,742,584,2
41,55,829,401,2
208,83,73,129,2
366,21,463,147,2
131,27,162,166,2
247,121,436,422,2
62,110,233,29,2
159,225,168,445,2
339,187,40,404,2
54,99,339,196,2
11,260,796,329,2
50,9,680,94,2
113,79,81,40,2
80,21,17,30,2
264,199,345,297,2
159,36,177,70,2
87,14,92,23,2
221,201,396,44,2
54,70,19,306,2
355,185,118,66,2
24,94,195,162,2
117,133,93,443,2
38,111,387,211,2
128,178,342,12,2
102,69,634,740,2
129,71,1023,1011,2
14,180,188,616,2
149,204,539,59,2
20,116,462,184,2
199,13,318,63,2
127,264,468,5,2
170,104,257,407,2
11,52,195,240,2
36,138,696,77,2
148,129,704,160,2
330,198,14,68,2
365,98,551,362,2
203,81,229,324,2
11,55,137,480,2
58,86,580,63,2
59,25,642,20,2
108,161,182,108,2
305,110,141,68,2
37,18,93,108,2
102,63,68,289,2
1,97,225,970,2
272,163,223,398,2
23,21,219,2,2
183,91,296,20,2
100,94,419,113,2
34,56,361,285,2
101,38,206,305,2
283,36,192,154,2
195,216,349,372,2
258,117,172,223,2
275,66,11,31,2
19,119,65,6,2
119,155,60,76,2
3,109,466,210,2
227,113,604,164,2
64,99,294,181,2
258,156,952,73,2
282,12,618,318,2
232,156,270,552,2
401,318,160,70,2
114,112,0,13,2
2,42,202,210,2
247,179,49,95,2
382,216,487,94,2
115,69,395,716,2
34,161,875,741,2
153,23,49,93,2
34,73,158,35,3
166,15,177,188,3
26,195,442,147,3
13,72,0,191,3
256,213,129,51,3
578,314,288,431,3
78,103,234,59,3
282,125,675,109,3
151,113,286,195,3
178,71,0,119,3
17,80,196,87,3
222,19,261,123,3
82,89,223,175,3
136,126,200,202,3
118,179,175,108,3
18,15,190,107,3
8,49,265,15,3
96,42,2,47,3
214,137,470,463,3
46,51,41,228,3
49,86,129,494,3
286,99,483,454,3
227,152,551,163,3
174,92,651,135,3
217,11,138,156,3
13,14,178,3,3
123,22,132,143,3
20,119,82,44,3
66,25,85,46,3
145,36,49,70,3
268,156,181,211,3
97,101,36,140,3
266,34,276,169,3
106,19,102,89,3
36,66,240,100,3
113,100,100,42,3
18,50,212,180,3
0,130,454,445,3
55,90,0,18,3
57,110,291,229,3
17,6,450,90,3
103,107,94,13,3
2,24,518,430,3
131,31,89,10,3
127,74,273,231,3
15,160,80,9,3
269,332,33,78,3
262,127,63,17,3
153,7,11,21,3
59,71,244,121,3
226,41,149,25,3
17,20,203,310,3
206,38,112,200,3
373,91,181,26,3
94,26,207,132,3
206,88,340,64,3
8,21,159,102,3
124,9,77,156,3
16,45,281,123,3
175,108,64,148,3
56,25,178,44,3
26,9,134,143,3
44,128,35,70,3
267,61,7,49,3
567,190,277,190,3
33,190,193,109,3
123,21,360,125,3
137,69,261,97,3
63,306,119,168,3
213,287,475,182,3
94,122,55,225,3
20,41,840,850,3
1,101,30,2,3
82,22,237,154,3
142,12,465,232,3
39,39,164,21,3
84,126,357,192,3
3,22,198,78,3
63,142,13,56,3
13,37,0,71,3
75,45,47,256,3
222,81,67,3,3
159,226,0,3,3
174,46,38,59,3
58,65,124,113,3
204,23,320,153,3
107,49,272,146,3
92,158,775,204,3
35,46,302,288,3
85,8,135,149,3
17,104,761,255,3
281,290,335,98,3
88,84,219,71,3
133,35,253,227,3
225,143,39,2,3
62,101,242,170,3
59,22,29,361,3
185,181,175,159,3
38,235,23,259,3
396,86,18,9,3
70,14,104,81,3
66,24,0,72,3
23,367,0,168,3
46,137,278,112,3
180,86,20,148,3
147,27,60,22,3
116,121,1,12,3
202,173,175,145,3
13,38,290,272,3
181,98,153,15,3
98,91,145,72,3
68,33,141,98,3
50,93,335,177,3
59,110,0,94,3
105,51,40,3,3
273,245,277,197,3
207,203,268,60,3
21,39,190,59,3
84,91,24,97,3
296,366,373,245,3
40,57,154,367,3
111,208,11,447,3
15,52,134,400,3
9,78,9,2,3
104,35,117,118,3
127,93,75,133,3
4,64,87,32,3
98,48,52,15,3
66,182,393,47,3
32,129,339,26,3
83,80,432,219,3
29,38,7,3,3
65,15,148,68,3
325,163,52,118,3
625,150,170,272,3
137,28,11,137,3
63,173,19,4,3
14,122,0,19,3
12,59,167,63,3
24,18,672,309,3
155,136,62,279,3
108,123,367,247,3
2,9,214,115,3
121,115,111,29,3
37,39,497,140,3
106,59,91,58,3
114,89,481,110,3
118,49,88,197,3
275,31,60,39,3
28,41,150,166,3
296,39,157,126,3
291,107,177,48,3
306,137,423,172,3
148,26,0,96,3
48,22,1,28,3
22,148,158,57,3
87,119,47,72,3
27,92,59,69,3
9,45,81,315,3
214,161,412,144,3
112,89,138,172,3
176,68,654,353,3
172,350,201,283,3
75,25,412,190,3
0,220,172,195,3
91,55,126,172,3
31,16,304,66,3
74,189,96,61,3
87,100,12,101,3
105,21,328,236,3
145,243,61,32,3
20,13,156,229,3
10,18,60,231,3
40,138,225,46,3
81,94,565,294,3
98,44,226,378,3
15,15,261,317,3
63,12,703,376,3
250,41,132,9,3
168,55,181,222,3
329,98,287,189,3
36,118,262,167,3
71,83,52,185,3
146,253,430,31,3
178,30,548,31,3
189,114,544,320,3
0,13,767,610,3
367,154,919,499,3
465,428,1023,752,3
124,192,569,576,3
177,27,586,261,3
52,33,50,161,3
53,39,186,319,3
102,20,181,64,3
36,147,70,264,3
394,276,117,233,3
178,171,191,256,3
27,18,195,558,3
213,257,326,1023,3
68,121,0,135,3
30,79,367,91,3
6,7,832,88,3
110,123,33,52,3
137,162,548,235,3
465,153,203,158,3
372,158,754,156,3
54,106,723,688,3
23,101,598,578,3
60,16,67,203,3
226,193,640,466,3
116,64,141,413,3
244,203,718,698,3
110,291,376,381,3
194,233,149,59,3
38,132,214,313,3
211,130,204,239,3
190,207,371,452,3
260,80,357,434,3
398,309,16,93,3
242,131,296,377,3
307,195,499,234,3
188,197,462,823,3
340,193,1023,629,3
377,69,1023,149,3
201,8,279,314,3
61,127,56,30,3
378,216,971,262,3
261,227,3,990,3
17,36,847,655,3
134,34,865,286,3
231,42,717,609,3
38,38,211,842,3
91,43,634,313,3
221,44,312,576,3
106,214,1023,651,3
138,110,93,124,3
144,75,430,337,3
46,70,916,788,3
228,297,885,42,3
70,196,794,1023,3
1,90,493,378,3
50,390,505,540,3
23,94,322,293,3
274,215,91,75,3
184,149,360,354,3
178,67,521,1023,3
233,183,325,1023,3
248,104,71,148,3
24,58,478,788,3
87,109,312,143,3
140,93,1023,796,3
186,113,503,416,3
7,110,271,155,3
296,249,886,372,3
228,422,326,356,3
126,57,746,1023,3
137,67,1023,446,3
71,44,1023,961,3
60,111,1023,509,3
434,34,133,489,3
99,255,302,197,3
97,50,156,541,3
193,184,4,155,3
78,107,1023,497,3
72,43,958,148,3
222,396,14,328,3
4,23,77,343,3
245,80,31,44,3
84,23,131,36,3
165,9,315,343,3
133,13,326,309,3
147,72,572,339,3
210,59,675,375,3
171,61,489,94,3
360,314,107,176,3
227,80,228,217,3
165,224,784,434,3
420,67,153,145,3
708,148,1023,343,3
74,37,826,486,3
235,120,590,904,3
142,237,761,929,3
107,243,715,657,3
116,112,1023,625,3
377,324,254,330,3
82,111,764,303,3
148,141,1023,738,3
2,32,418,91,3
9,112,670,484,3
7,46,449,48,3
6,21,521,552,3
7,102,1023,98,3
181,164,436,50,3
475,408,166,648,3
69,309,211,347,3
327,241,1023,667,3
33,300,75,95,3
18,309,318,942,3
49,135,1023,40,3
13,161,750,148,3
218,151,507,522,3
545,487,105,316,3
518,157,641,345,3
379,66,756,795,3
229,194,260,658,3
337,168,571,629,3
187,330,746,347,3
487,322,512,873,3
352,281,506,328,3
298,52,7,320,3
821,374,673,261,3
377,178,912,238,3
17,143,876,87,3
110,97,246,593,3
67,38,1023,793,3
192,216,65,244,3
32,41,1023,327,3
154,292,419,673,3
143,96,1023,864,3
87,336,614,352,3
341,478,223,460,3
294,109,282,613,3
373,130,526,405,3
110,97,768,615,3
279,37,1023,797,3
129,126,1023,236,3
14,41,403,31,3
200,29,286,106,3
39,41,936,393,3
215,77,232,66,3
121,111,528,69,3
101,80,89,18,3
83,65,404,90,3
269,76,328,182,3
300,132,857,613,3
185,50,85,36,3
28,23,1023,678,3
2,220,292,122,3
86,37,390,253,3
156,208,305,45,3
7,67,520,758,3
98,198,87,1002,3
48,9,141,177,3
287,27,437,410,3
201,197,607,92,3
212,93,303,306,3
50,39,122,317,3
197,176,193,212,3
128,57,137,174,3
492,344,433,306,3
461,24,257,209,3
258,78,4,183,3
159,43,512,380,3
665,427,50,226,3
82,47,220,431,3
131,82,175,328,3
176,54,51,15,3
94,138,5,36,3
239,24,182,103,3
24,108,361,113,3
214,29,766,185,3
418,99,19,134,3
198,89,0,230,3
206,73,473,513,3
69,143,27,894,3
152,65,325,165,3
463,225,775,42,3
409,109,572,103,3
442,294,37,292,3
395,221,220,155,3
149,73,284,2,3
440,11,27,13,3
51,65,221,296,3
347,192,437,328,3
179,102,344,286,3
10,253,266,298,3
218,132,250,43,3
167,10,476,919,3
265,245,554,356,3
496,356,428,765,3
81,14,370,130,3
501,425,418,265,3
126,351,0,27,3
209,137,444,78,3
99,26,407,464,3
154,26,281,340,3
21,143,195,34,3
43,49,4,243,3
24,77,22,41,3
272,107,0,154,3
140,46,674,165,3
73,221,331,462,3
14,117,0,910,3
37,78,719,768,3
20,68,192,37,3
9,38,122,302,3
22,100,361,27,3
2,78,51,6,3
116,170,276,174,3
72,16,367,150,3
15,28,9,159,3
1,122,137,65,3
191,157,177,118,3
95,157,32,289,3
291,31,87,164,3
82,22,86,360,3
281,55,426,350,3
10,82,286,19,3
393,290,85,539,3
232,173,231,256,3
237,79,560,195,3
112,38,137,17,3
360,215,446,218,3
149,50,13,118,3
35,55,539,243,3
92,111,198,144,3
68,18,384,146,3
217,10,499,264,3
299,152,184,123,3
79,201,445,336,3
220,266,75,279,3
56,124,75,351,3
153,91,391,340,3
385,186,200,247,3
159,10,276,138,3
206,20,832,376,3
133,140,479,47,3
125,48,619,188,3
479,440,555,120,3
165,7,256,760,3
71,116,624,47,3
28,16,106,484,3
82,219,153,255,3
266,199,336,41,3
14,55,448,506,3
33,7,159,403,3
88,141,247,123,3
131,36,103,20,3
153,104,32,94,3
262,203,60,201,3
185,186,505,127,3
109,164,50,103,3
136,33,375,228,3
371,133,398,260,3
370,232,56,602,3
183,61,815,754,3
31,135,162,70,3
67,113,510,286,3
66,93,135,173,3
87,72,417,208,3
70,27,36,126,3
245,184,139,21,3
117,16,431,514,3
100,142,1017,5,3
27,38,1023,406,3
279,57,553,312,3
37,158,193,329,3
166,306,256,141,3
35,22,169,47,3
273,188,102,37,3
286,96,7,37,3
60,52,313,549,3
69,65,119,620,3
15,19,0,118,3
228,30,384,115,3
7,27,133,276,3
35,27,44,283,3
93,104,555,199,3
127,74,289,20,3
154,143,121,175,3
110,83,173,164,3
209,242,2,1,3
455,418,30,22,3
20,29,90,176,3
34,87,40,9,3
145,239,392,13,3
210,107,402,224,3
203,320,430,168,3
5,56,683,202,3
240,17,402,9,3
151,134,488,182,3
49,131,488,334,3
105,13,311,311,3
178,16,28,9,3
129,40,503,288,3
32,219,199,275,3
80,165,485,44,3
155,277,130,17,3
394,46,6,8,3
355,290,6,157,3
424,23,135,55,3
17,190,368,321,3
62,33,3,44,3
21,21,232,265,3
15,204,263,269,3
75,161,161,48,3
127,50,277,474,3
315,76,521,314,3
124,11,203,285,3
83,27,215,350,3
245,111,349,42,3
1,17,17,186,3
135,175,445,553,3
96,111,373,432,3
52,63,49,190,3
39,19,89,102,3
361,14,128,112,3
335,153,64,92,3
174,134,9,41,3
4,261,104,43,3
45,61,424,198,3
49,5,48,25,3
115,138,338,269,3
0,40,311,134,3
95,77,12,120,3
421,181,406,323,3
9,188,38,138,3
7,103,507,185,3
138,49,77,42,3
25,36,76,205,3
236,195,101,416,3
202,203,473,355,3
33,33,66,121,3
135,153,186,24,3
21,56,119,55,3
485,225,27,122,3
253,200,90,27,3
72,215,54,26,3
69,248,273,222,3
301,295,53,97,3
94,173,27,24,3
226,71,100,45,3
200,180,128,38,3
140,123,335,91,3
0,11,235,283,3
264,441,44,10,3
436,321,53,49,3
293,146,150,153,3
198,141,16,75,3
107,41,21,13,3
18,21,23,8,3
183,117,197,92,3
74,166,139,209,3
22,38,2,240,3
43,56,0,1,3
129,165,169,47,3
176,134,326,66,3
123,12,166,5,3
7,213,496,236,3
33,229,58,14,3
146,174,0,8,3
31,96,185,202,3
205,50,323,389,3
264,207,186,243,3
51,124,106,68,3
110,112,268,69,3
16,123,22,45,3
7,74,141,98,3
87,59,14,39,3
227,63,34,56,3
15,47,176,40,3
511,81,368,196,3
52,76,301,242,3
134,55,120,27,3
212,104,132,217,3
32,31,74,107,3
176,42,83,8,3
91,164,127,120,3
149,154,45,29,3
463,125,16,77,3
91,21,130,25,3
95,79,82,55,3
38,63,184,1,3
38,89,57,48,3
116,84,225,133,3
122,90,23,16,3
101,11,144,11,3
20,119,114,125,3
217,129,69,141,3
56,22,290,98,3
416,86,444,280,3
229,105,40,26,3
249,66,174,149,3
145,131,246,103,3
252,43,193,106,3
4,62,0,20,3
5,38,31,4,3
96,52,0,63,3
46,21,257,114,3
33,79,62,11,3
33,144,185,143,3
26,219,143,150,3
130,69,16,82,3
81,89,388,259,3
281,74,345,188,3
156,146,654,302,3
47,239,239,186,3
21,13,9,17,3
155,74,202,139,3
316,45,133,66,3
36,133,264,23,3
90,222,17,1,3
672,495,223,69,3
49,40,70,22,3
368,249,438,157,3
38,101,134,254,3
72,42,0,22,3
56,78,403,293,3
109,159,658,308,3
360,259,52,69,3
315,164,573,281,3
56,15,483,405,3
101,327,378,86,3
150,7,339,210,3
100,13,60,67,3
196,113,76,18,3
88,58,519,41,3
217,143,63,121,3
190,38,169,100,3
47,130,81,14,3
40,148,85,41,3
134,34,149,65,3
11,6,152,167,3
39,22,286,150,3
85,178,207,15,3
151,89,441,163,3
11,167,972,502,3
331,6,407,589,3
5,26,132,363,3
175,201,84,5,3
50,114,16,52,3
252,296,93,10,3
107,7,8,4,3
124,46,169,5,3
38,261,842,112,3
269,170,172,920,3
72,48,989,955,3
180,20,330,938,3
118,173,56,5,3
32,79,291,265,3
208,9,361,177,3
71,13,85,114,3
205,8,274,225,3
178,156,545,29,3
272,121,270,151,3
185,120,244,43,3
14,60,220,95,3
78,70,10,53,3
104,29,78,6,3
184,76,12,195,3
56,12,436,481,3
62,102,772,155,3
9,14,376,644,3
14,60,245,332,3
280,55,719,120,3
85,295,0,210,3
93,158,301,377,3
709,271,607,25,3
645,458,841,210,3
6,30,219,112,3
70,29,197,425,3
229,110,429,1023,3
54,23,448,915,3
22,125,0,668,3
13,63,824,588,3
149,273,258,305,3
15,12,457,521,3
268,82,771,385,3
490,176,310,312,3
52,66,800,631,3
205,31,125,392,3
79,68,382,49,3
369,242,517,392,3
575,400,285,687,3
75,298,836,798,3
90,56,683,141,3
154,100,926,167,3
156,6,439,772,3
22,84,12,189,3
315,375,699,380,3
75,18,538,621,3
14,152,31,167,3
283,319,7,200,3
23,218,1023,121,3
145,177,574,261,3
125,115,1023,1023,3
475,362,788,461,3
55,18,222,85,3
147,71,118,223,3
385,274,656,287,3
439,115,558,274,3
10,61,0,156,3
116,299,374,725,3
195,20,179,776,3
302,416,440,122,3
178,178,1023,874,3
388,84,1023,1023,3
79,61,86,33,3
132,21,91,178,3
506,371,168,87,3
429,320,670,271,3
697,678,10,16,3
23,95,170,49,3
144,27,201,646,3
153,79,447,526,3
317,290,286,140,3
237,222,1023,959,3
160,73,917,328,3
8,206,1023,1023,3
422,208,798,864,3
246,136,303,102,3
98,27,3,94,3
353,341,249,291,3
336,170,831,505,3
314,75,1023,940,3
148,293,9,288,3
163,32,1023,1023,3
337,349,1023,668,3
252,125,201,210,3
71,148,156,8,3
193,472,488,355,3
77,20,549,559,3
344,373,17,188,3
82,87,268,27,3
319,33,747,555,3
48,101,406,203,3
211,21,691,142,3
67,227,712,454,3
549,426,881,647,3
29,72,994,689,3
51,76,615,914,3
277,41,1023,1023,3
14,34,12,528,3
40,123,525,321,3
111,199,11,202,3
351,384,748,40,3
147,110,947,1023,3
807,149,1023,1023,3
607,161,415,220,3
47,91,941,718,3
227,11,128,450,3
563,205,499,592,3
819,259,1023,988,3
22,37,0,32,3
233,87,1023,650,3
80,225,1023,653,3
232,20,412,473,3
304,80,584,617,3
409,120,1023,746,3
135,201,362,404,3
20,127,694,62,3
86,44,753,226,3
337,15,1023,376,3
518,205,897,940,3
105,130,417,32,3
70,55,824,185,3
83,27,610,144,3
223,49,909,886,3
347,120,712,355,3
195,261,1023,1023,3
206,150,1023,646,3
120,13,598,763,3
71,32,28,12,3
55,121,632,325,3
86,207,593,696,3
186,189,597,119,3
35,266,131,189,3
71,35,32,307,3
88,166,221,167,3
198,431,84,75,3
202,298,229,36,3
103,90,161,567,3
252,17,56,8,3
172,71,14,48,3
400,403,445,110,3
204,81,665,234,3
270,113,50,83,3
12,19,673,205,3
68,34,203,183,3
165,15,152,81,3
280,63,579,109,3
181,80,104,72,3
99,71,288,38,3
129,207,18,68,3
58,188,1023,532,3
140,42,345,228,3
17,13,410,855,3
137,27,188,235,3
191,69,371,150,3
82,91,68,235,3
315,269,281,216,3
24,69,98,180,3
317,387,342,481,3
100,13,145,390,3
356,90,229,130,3
95,6,46,37,3
66,187,1023,813,3
299,155,0,118,3
31,49,472,258,3
198,122,43,50,3
210,114,1023,675,3
99,57,247,241,3
75,167,608,559,3
391,149,86,444,3
103,53,236,632,3
232,84,213,28,3
245,56,132,122,3
57,52,233,209,3
12,16,198,202,3
100,124,710,470,3
40,43,503,398,3
155,161,240,64,3
22,96,502,17,3
488,94,261,734,3
53,71,456,477,3
78,127,554,662,3
188,56,904,639,3
349,165,79,187,3
71,32,42,133,3
156,52,387,102,3
170,236,284,496,3
83,30,154,462,3
54,114,343,37,3
207,66,128,91,3
22,22,62,608,3
88,143,419,211,3
361,228,108,202,3
152,81,44,171,3
41,190,323,237,3
69,127,313,497,3
148,125,232,397,3
118,284,13,269,3
63,71,224,211,3
141,78,484,36,3
328,173,478,270,3
33,20,218,429,3
454,47,400,282,3
79,114,324,63,3
229,122,498,214,3
16,133,31,168,3
195,229,114,70,3
99,223,5,151,3
213,239,92,177,3
69,60,57,108,3
488,282,334,273,3
181,104,380,284,3
13,39,167,94,3
1,117,415,148,3
124,178,334,519,3
108,95,731,782,3
183,237,520,218,3
148,100,499,197,3
56,6,670,506,3
17,38,74,109,3
187,129,539,43,3
14,7,174,235,3
208,55,47,114,3
4,8,529,54,3
45,85,585,521,3
104,130,196,513,3
149,307,880,321,3
121,37,82,193,3
397,27,542,325,3
14,81,222,194,3
17,97,241,44,3
170,98,478,422,3
244,280,513,907,3
22,117,290,873,3
54,34,164,224,3
48,47,83,611,3
101,105,461,628,3
123,129,197,42,3
124,81,314,84,3
183,75,505,178,3
85,39,478,224,3
203,181,429,292,3
419,117,351,177,3
13,17,401,206,3
185,48,251,22,3
181,47,14,61,3
104,196,120,78,3
170,220,134,202,3
91,6,7,46,3
46,127,153,155,3
19,31,360,61,3
309,241,325,66,3
258,355,188,215,3
71,98,377,159,3
58,158,289,313,3
96,12,122,279,3
182,96,163,409,3
112,65,140,14,3
69,126,18,151,3
103,116,335,28,3
81,30,307,48,3
199,154,6,200,3
218,223,0,121,3
368,337,378,71,3
472,386,747,109,3
302,105,148,254,3
6,56,88,406,3
51,79,441,28,3
111,11,194,332,3
9,35,476,129,3
159,144,24,343,3
26,5,572,793,3
0,16,148,123,3
47,22,155,41,3
180,62,0,189,3
167,18,58,9,3
168,249,368,303,3
160,9,10,31,3
46,92,153,244,3
73,56,360,2,3
165,13,196,48,3
140,27,348,124,3
454,381,188,21,3
87,53,320,300,3
14,54,259,104,3
250,290,454,190,3
223,68,381,624,3
333,269,140,373,3
6,18,575,418,3
110,39,55,199,3
383,141,49,583,3
191,94,76,710,3
116,85,362,847,3
109,94,212,212,3
333,34,303,137,3
18,34,223,33,3
159,63,254,13,3
38,10,0,43,3
22,164,298,137,3
147,33,28,157,3
264,97,173,177,3
533,188,150,397,3
231,388,99,170,3
55,197,60,65,3
270,105,226,51,3
149,82,76,148,3
184,319,155,179,3
97,10,55,107,3
237,148,376,237,3
59,12,105,302,3
211,192,568,282,3
236,172,434,265,3
208,65,201,13,3
237,79,254,215,3
277,331,28,123,3
124,43,65,83,3
191,312,222,66,3
571,263,163,17,3
88,41,246,246,3
107,292,442,93,3
372,198,159,180,3
138,212,570,521,3
107,185,96,129,3
80,54,587,280,3
7,8,382,386,3
163,10,251,251,3
41,95,563,270,3
55,11,153,153,3
82,125,81,45,3
147,158,675,219,3
95,93,130,302,3
355,273,577,499,3
450,147,174,187,3
37,179,0,30,3
126,138,54,139,3
72,15,103,154,3
303,15,251,147,3
207,160,41,79,3
351,78,292,39,3
16,13,167,359,3
4,69,94,145,3
91,11,204,102,3
182,227,2,39,3
56,158,116,171,3
1,35,406,258,3
11,57,119,60,3
85,131,73,54,3
12,71,47,22,3
90,127,113,21,3
213,243,424,46,3
178,69,81,161,3
7,36,229,193,3
57,24,36,95,3
304,63,7,22,3
77,87,231,238,3
118,15,59,32,3
114,16,62,100,3
0,28,25,27,3
443,253,0,13,3
634,464,105,60,3
192,105,107,180,3
46,109,0,20,3
51,98,203,113,3
170,75,27,8,3
176,8,429,272,3
83,102,285,390,3
136,195,619,277,3
33,16,192,265,3
140,16,278,246,3
11,31,0,111,3
372,119,86,591,3
172,84,7,34,3
55,64,46,2,3
56,12,121,52,3
623,493,0,51,3
108,23,55,8,3
135,170,149,4,3
62,99,75,50,3
59,114,132,39,3
2,58,36,30,3
77,132,0,14,3
247,163,263,43,3
33,38,256,429,3
179,105,27,128,3
16,7,596,426,3
207,179,142,16,3
44,31,559,212,3
157,109,513,237,3
314,168,114,18,3
141,18,494,310,3
456,128,381,48,3
23,75,210,79,3
0,111,273,203,3
283,196,183,85,3
261,152,24,93,3
5,38,381,1,3
16,38,158,212,3
292,182,445,379,3
391,186,378,252,3
270,180,635,54,3
252,166,621,241,3
77,10,626,145,3
138,93,322,156,3
241,53,155,106,3
5,38,0,71,3
132,173,143,18,3
214,60,24,22,3
54,90,554,107,3
82,15,239,77,3
134,133,537,567,3
179,10,62,209,3
103,40,681,264,3
32,44,477,459,3
2,5,114,68,3
484,426,631,376,3
285,189,108,109,3
111,34,244,255,3
61,154,112,118,3
27,49,193,149,3
185,225,396,171,3
255,67,142,247,3
536,458,336,342,3
121,103,649,489,3
307,377,327,114,3
14,177,411,444,3
6,123,170,240,3
71,11,860,291,3
13,28,479,144,3
293,103,204,90,3
13,107,231,3,3
198,281,120,102,3
24,11,455,479,3
76,143,267,262,3
228,54,461,726,3
46,14,201,11,3
223,53,307,245,3
35,102,377,454,3
268,222,45,1023,3
245,38,782,715,3
110,300,239,1023,3
126,93,599,204,3
117,239,65,492,3
86,150,663,534,3
129,382,219,17,3
211,311,997,611,3
92,11,350,18,3
504,280,162,206,3
146,13,499,230,3
213,105,251,2,3
15,62,46,10,3
202,148,813,361,3
192,12,274,166,3
421,156,479,21,3
202,323,418,632,3
117,172,493,198,3
46,54,113,1023,3
412,107,638,1023,3
468,285,51,83,3
205,22,909,588,3
177,51,652,228,3
183,56,653,115,3
28,96,217,112,3
74,107,1023,955,3
73,96,1023,817,3
68,119,129,51,3
102,9,994,1023,3
205,217,31,1023,3
194,144,212,184,3
75,17,658,83,3
39,285,456,178,3
127,82,238,109,3
45,182,473,238,3
242,35,387,229,3
15,106,25,518,3
332,277,1023,659,3
6,88,183,520,3
164,120,704,527,3
220,227,309,287,3
129,69,246,167,3
150,126,678,541,3
305,21,94,235,3
135,103,416,66,3
62,22,212,94,3
51,111,203,56,3
208,139,335,79,3
141,27,1023,641,3
472,209,98,89,3
254,186,720,489,3
61,42,316,540,3
203,150,21,313,3
484,76,589,803,3
84,168,483,17,3
1,245,351,168,3
17,48,541,300,3
17,68,1023,483,3
156,41,493,92,3
22,204,1023,758,3
332,267,1023,399,3
95,1,1023,1023,3
253,142,594,272,3
184,17,656,274,3
282,190,642,1023,3
41,9,969,1023,3
299,87,222,300,3
240,11,64,109,3
89,59,1023,1023,3
280,209,214,425,3
197,272,542,292,3
385,201,324,158,3
117,43,1023,369,3
36,97,340,690,3
9,199,1023,864,3
289,281,555,462,3
16,163,614,914,3
69,33,284,633,3
5,26,1023,1023,3
228,7,1023,109,3
395,421,1023,49,3
260,411,870,761,3
824,483,1023,617,3
48,80,82,454,3
30,200,760,28,3
13,35,526,180,3
239,54,227,341,3
28,91,365,502,3
211,399,442,409,3
22,88,441,357,3
20,53,1023,1023,3
227,183,1023,773,3
5,80,466,581,3
299,76,628,432,3
14,81,54,288,3
280,270,1023,972,3
294,114,1023,849,3
260,6,1023,613,3
348,206,470,645,3
263,9,1023,514,3
213,369,809,123,3
449,401,1023,1023,3
153,143,321,90,3
13,112,496,55,3
61,335,659,270,3
12,236,1023,476,3
194,102,103,8,3
21,67,253,504,3
43,155,391,631,3
295,448,331,203,3
1023,648,483,674,3
27,261,883,125,3
56,173,158,450,3
239,99,1023,1023,3
122,147,1023,1023,3
219,117,926,176,3
26,70,896,623,3
116,74,985,238,3
15,11,798,90,3
4,108,469,357,3
195,41,1003,9,3
688,349,1023,231,3
231,83,69,513,3
31,35,13,691,3
40,153,1013,382,3
606,95,415,207,3
344,84,166,181,3
339,110,1023,404,3
142,178,17,261,3
346,153,0,524,3
260,246,444,315,3
70,32,937,413,3
160,35,498,207,3
170,120,300,613,3
65,109,292,773,3
108,153,329,23,3
42,111,428,177,3
199,226,78,15,3
294,55,1002,109,3
124,275,1023,424,3
9,109,181,195,3
16,79,631,129,3
80,125,621,47,3
46,48,215,290,3
197,168,139,79,3
102,197,270,272,3
265,30,329,100,3
91,348,443,217,3
560,252,1023,356,3
76,10,1023,243,3
168,324,480,127,3
240,192,387,243,3
118,89,732,836,3
162,143,329,213,3
262,272,39,226,3
10,219,43,449,3
122,58,179,478,3
232,66,509,244,3
481,16,200,197,3
187,298,637,331,3
444,383,269,602,3
12,24,92,253,3
103,142,615,520,3
317,152,452,2,3
39,110,104,913,3
36,84,651,919,3
359,339,138,12,3
266,61,426,257,3
977,95,495,498,3
213,58,253,140,3
4,289,365,86,3
152,358,895,265,3
