Ch1,Ch2,Ch3,Ch4,label
118,6,68,71,1
26,32,48,64,1
91,16,3,1,1
133,18,16,9,1
50,56,79,93,1
209,58,40,90,1
49,91,49,10,1
153,242,23,0,1
5,131,110,61,1
126,142,33,0,1
92,24,150,110,1
75,166,11,7,1
84,20,82,97,1
5,113,77,23,1
78,17,21,1,1
26,202,93,77,1
164,70,10,5,1
19,97,3,0,1
129,69,68,75,1
3,39,71,0,1
115,21,62,72,1
1,31,9,18,1
90,41,121,78,1
67,9,58,28,1
81,56,59,36,1
96,36,75,75,1
6,29,45,42,1
248,166,5,27,1
200,167,56,23,1
26,44,45,31,1
216,72,72,59,1
14,105,49,40,1
122,82,46,36,1
145,64,4,0,1
92,51,38,56,1
177,50,21,34,1
232,153,65,77,1
146,261,10,0,1
220,107,86,80,1
202,211,13,0,1
21,105,67,54,1
25,8,81,93,1
6,31,128,114,1
41,71,33,29,1
56,206,73,90,1
68,37,3,39,1
94,224,55,41,1
59,13,39,31,1
66,118,69,92,1
24,57,2,46,1
53,260,46,109,1
12,139,80,103,1
60,18,78,62,1
115,11,34,17,1
126,23,61,56,1
130,50,156,139,1
174,31,44,65,1
40,50,70,52,1
84,37,1,6,1
163,174,143,107,1
6,140,130,118,1
75,25,49,62,1
12,58,81,69,1
100,26,44,0,1
129,59,71,64,1
31,156,126,131,1
164,70,30,42,1
78,119,1,0,1
183,114,53,49,1
33,36,38,0,1
29,159,127,98,1
29,167,22,14,1
43,151,6,9,1
40,79,90,60,1
71,43,42,16,1
15,171,141,108,1
5,65,11,10,1
8,38,16,33,1
26,87,103,91,1
57,28,36,18,1
49,30,52,61,1
27,145,64,36,1
30,10,53,37,1
57,102,72,34,1
76,54,57,44,1
114,112,50,50,1
165,54,106,45,1
120,225,66,67,1
121,45,72,65,1
154,163,3,0,1
25,120,130,134,1
53,63,3,0,1
75,106,94,65,1
18,137,28,1,1
68,40,37,48,1
72,245,93,106,1
1,117,6,0,1
90,75,7,5,1
88,6,107,14,1
31,89,155,75,1
71,34,21,0,1
58,23,13,9,1
40,106,24,9,1
199,98,39,0,1
77,27,42,7,1
243,149,140,131,1
30,81,23,0,1
152,91,75,51,1
25,95,22,14,1
75,90,104,93,1
173,41,62,40,1
121,86,264,155,1
202,310,156,97,1
10,158,245,150,1
127,99,98,0,1
18,191,221,173,1
67,14,177,114,1
175,92,33,32,1
189,130,277,185,1
126,161,26,11,1
8,185,108,86,1
27,124,9,74,1
71,108,75,58,1
211,85,318,196,1
96,98,117,27,1
141,45,352,299,1
166,114,82,51,1
156,281,49,49,1
155,11,231,138,1
245,222,230,153,1
226,105,151,159,1
83,93,90,115,1
25,133,128,123,1
122,58,269,187,1
111,159,40,28,1
248,67,292,237,1
11,80,95,73,1
125,254,112,139,1
122,271,44,2,1
88,94,10,47,1
9,195,16,8,1
94,216,334,295,1
8,97,75,14,1
67,55,364,307,1
176,184,89,78,1
2,244,167,261,1
259,117,393,351,1
156,243,299,251,1
324,185,214,165,1
352,297,183,88,1
203,14,20,75,1
249,82,113,156,1
157,185,9,17,1
14,32,87,5,1
172,208,35,0,1
43,251,209,137,1
96,24,235,102,1
178,101,100,36,1
137,49,351,269,1
3,62,40,98,1
2,161,11,41,1
160,252,17,89,1
10,42,105,130,1
68,71,328,160,1
12,109,362,183,1
51,165,52,104,1
39,141,322,215,1
12,125,115,123,1
192,251,30,44,1
80,52,7,14,1
48,42,81,0,1
178,236,247,134,1
31,171,54,24,1
79,20,59,53,1
144,45,71,49,1
176,162,126,76,1
104,56,353,267,1
77,123,101,86,1
226,79,674,532,1
250,168,277,199,1
137,31,601,571,1
416,285,253,42,1
48,153,319,254,1
202,110,197,168,1
44,86,124,99,1
68,132,44,20,1
158,200,86,70,1
22,163,152,13,1
225,229,44,107,1
126,51,73,35,1
215,33,18,189,1
149,11,259,257,1
39,67,179,7,1
100,98,4,52,1
24,56,77,198,1
128,209,195,4,1
158,130,282,209,1
31,118,182,102,1
146,92,95,94,1
72,36,145,4,1
52,240,109,71,1
197,371,65,98,1
95,58,41,114,1
96,90,107,76,1
125,255,30,41,1
339,159,475,330,1
236,218,233,91,1
64,129,283,119,1
42,9,289,200,1
10,39,117,0,1
11,190,265,110,1
6,37,123,58,1
30,246,281,172,1
34,17,189,179,1
45,103,2,68,1
95,13,504,462,1
54,72,204,145,1
257,59,543,400,1
152,82,139,43,1
30,61,411,202,1
41,18,334,188,1
95,172,243,262,1
136,283,152,124,1
152,287,369,238,1
44,123,355,248,1
12,74,385,261,1
82,111,136,36,1
138,204,15,89,1
358,129,582,453,1
106,148,228,35,1
349,207,553,412,1
279,217,33,0,1
169,20,255,250,1
20,64,220,253,1
85,52,140,50,1
339,284,252,193,1
232,33,17,48,1
413,438,205,104,1
203,48,104,281,1
44,187,323,335,1
182,61,63,220,1
227,13,325,205,1
52,118,23,85,1
5,48,619,444,1
76,27,292,357,1
185,225,107,142,1
210,360,149,165,1
111,237,20,41,1
289,539,330,33,1
169,230,79,63,1
105,119,151,199,1
19,57,16,203,1
186,109,127,484,1
115,8,155,0,1
242,158,95,141,1
107,105,390,505,1
8,53,440,325,1
81,122,88,300,1
362,188,215,252,1
217,236,185,188,1
251,79,260,202,1
288,151,82,44,1
38,56,8,184,1
12,65,16,105,1
388,21,119,242,1
249,222,387,247,1
4,59,395,236,1
264,240,541,291,1
7,184,311,163,1
170,47,235,115,1
33,16,437,388,1
125,69,118,50,1
96,129,559,451,1
489,288,33,53,1
349,217,431,236,1
282,197,237,269,1
335,174,140,15,1
254,127,171,151,1
564,195,109,44,1
18,67,172,207,1
191,217,19,100,1
452,419,205,62,1
57,317,506,442,1
343,230,17,9,1
66,119,554,550,1
166,23,321,299,1
26,41,65,225,1
80,9,195,19,1
30,210,166,396,1
151,65,104,170,1
358,345,9,43,1
58,371,256,14,1
72,171,218,185,1
282,183,45,200,1
160,94,43,212,1
73,180,210,349,1
130,32,9,215,1
161,75,176,313,1
447,226,184,67,1
424,66,171,64,1
248,83,155,141,1
452,250,439,414,1
107,181,321,361,1
293,99,381,288,1
148,65,27,11,1
212,40,519,438,1
219,161,198,34,1
608,447,307,284,1
72,59,325,195,1
279,259,158,29,1
38,76,461,282,1
239,138,256,317,1
249,289,482,353,1
171,39,5,125,1
98,137,297,324,1
108,83,266,73,1
116,77,220,141,1
77,137,1,16,1
125,395,557,273,1
74,61,351,320,1
226,118,326,5,1
106,49,560,273,1
248,270,32,177,1
243,365,19,33,1
137,26,400,341,1
143,141,625,460,1
180,139,560,356,1
56,83,641,572,1
103,147,385,277,1
393,382,48,430,1
26,269,386,8,1
199,84,31,118,1
152,20,67,31,1
158,158,385,253,1
21,26,689,698,1
154,381,419,343,1
502,75,546,548,1
200,297,98,238,1
80,17,689,504,1
189,18,182,16,1
81,25,60,101,1
265,286,353,595,1
109,207,323,176,1
173,219,28,206,1
58,120,31,82,1
25,43,262,153,1
7,24,247,439,1
100,113,358,189,1
4,123,334,441,1
467,339,340,275,1
156,12,428,249,1
91,71,340,263,1
38,91,91,72,1
421,279,522,149,1
278,275,111,232,1
41,82,11,157,1
271,59,279,537,1
52,172,270,768,1
206,306,188,299,1
331,284,434,459,1
195,362,324,365,1
111,76,236,83,1
4,257,565,687,1
457,119,204,238,1
438,285,19,110,1
12,110,229,284,1
79,124,690,538,1
127,75,10,8,1
235,96,825,680,1
356,133,29,239,1
49,38,650,587,1
207,160,155,267,1
40,27,97,503,1
143,118,2,92,1
18,16,87,211,1
25,72,102,79,1
31,17,20,225,1
117,150,602,90,1
27,200,302,136,1
337,70,156,376,1
17,25,20,7,1
182,28,145,232,1
77,86,262,253,1
200,339,164,4,1
31,126,1019,875,1
598,214,665,906,1
606,261,396,478,1
173,93,275,388,1
95,7,174,203,1
204,30,758,899,1
102,21,119,172,1
385,143,241,379,1
227,235,174,117,1
329,65,310,31,1
293,189,395,102,1
151,8,313,235,1
161,176,85,90,1
31,87,62,17,1
224,91,52,235,1
274,158,352,305,1
297,227,259,659,1
360,170,285,522,1
231,151,10,73,1
227,127,511,724,1
50,47,307,382,1
19,24,647,516,1
8,39,17,47,1
20,56,225,175,1
12,121,199,94,1
41,84,198,226,1
83,90,160,300,1
147,64,99,157,1
250,150,74,35,1
83,237,160,123,1
61,82,32,135,1
164,76,159,268,1
259,34,86,4,1
79,226,258,24,1
123,6,333,404,1
142,172,186,28,1
331,77,34,349,1
351,87,60,128,1
110,94,97,53,1
69,223,133,0,1
61,38,139,72,1
181,9,300,256,1
241,120,422,373,1
25,175,337,134,1
190,84,161,167,1
193,158,511,795,1
140,65,286,280,1
364,227,36,127,1
44,179,337,374,1
343,214,215,366,1
120,46,6,232,1
330,68,40,236,1
10,35,275,321,1
165,119,235,215,1
330,534,158,245,1
5,31,150,313,1
118,39,12,60,1
50,212,53,173,1
120,152,30,189,1
385,29,25,168,1
110,212,109,270,1
213,20,147,46,1
143,46,155,25,1
218,174,17,162,1
8,191,453,471,1
24,67,262,384,1
207,60,2,0,1
41,165,41,121,1
116,100,314,438,1
190,46,26,8,1
33,109,299,281,1
123,15,20,16,1
128,141,350,378,1
105,14,153,119,1
174,184,315,168,1
272,99,175,331,1
6,105,207,21,1
79,21,312,170,1
294,190,235,169,1
187,79,154,14,1
54,226,354,411,1
215,220,126,24,1
122,142,73,323,1
251,168,229,155,1
214,50,398,418,1
59,35,95,6,1
114,70,115,37,1
19,131,109,9,1
44,17,44,0,1
387,282,282,260,1
349,194,23,27,1
202,374,292,202,1
38,305,143,168,1
163,16,72,203,1
331,7,152,113,1
5,10,51,51,1
82,61,121,89,1
209,76,644,542,1
279,252,437,482,1
23,139,221,147,1
348,341,170,234,1
158,367,210,194,1
151,56,98,200,1
90,30,321,141,1
13,124,233,241,1
165,287,167,229,1
288,62,91,236,1
95,127,113,136,1
144,273,22,234,1
128,124,14,68,1
72,130,198,100,1
345,271,339,126,1
377,199,80,205,1
106,120,135,20,1
8,104,119,133,1
48,31,11,100,1
9,94,43,141,1
267,69,453,412,1
270,284,130,254,1
51,28,45,0,1
155,126,77,39,1
184,24,257,45,1
118,131,149,143,1
242,98,127,328,1
142,14,154,62,1
76,195,117,33,1
215,50,39,94,1
91,62,330,366,1
20,72,46,84,1
133,153,17,154,1
86,101,57,89,1
304,156,142,26,1
319,290,11,122,1
168,232,372,261,1
166,203,153,76,1
286,236,167,150,1
182,328,148,136,1
105,140,437,326,1
306,336,50,185,1
18,147,188,124,1
270,295,53,38,1
58,98,114,292,1
206,118,295,0,1
253,284,359,347,1
345,297,216,21,1
8,45,199,117,1
256,53,228,107,1
58,70,218,262,1
173,91,150,22,1
316,227,369,340,1
38,22,217,284,1
56,112,69,110,1
55,92,29,120,1
56,43,42,37,1
222,204,184,0,1
36,121,169,51,1
81,235,203,147,1
66,185,155,147,1
167,244,224,133,1
345,63,160,137,1
5,83,265,176,1
123,57,476,377,1
234,182,40,13,1
133,162,101,0,1
232,37,66,96,1
70,51,190,65,1
32,170,307,77,1
4,129,63,83,1
39,50,481,385,1
88,166,19,77,1
40,104,18,60,1
73,130,256,205,1
10,128,171,206,1
102,203,160,3,1
4,115,247,319,1
212,161,121,23,1
29,308,125,233,1
40,149,50,143,1
106,176,115,148,1
201,58,89,77,1
82,99,89,0,1
204,47,29,115,1
278,119,155,0,1
157,120,101,17,1
330,204,57,0,1
131,37,97,100,1
245,9,30,0,1
35,210,76,146,1
102,53,157,13,1
125,39,116,115,1
55,61,79,1,1
49,41,182,207,1
252,87,150,81,1
66,49,52,0,1
111,88,124,68,1
32,93,155,77,1
124,92,314,227,1
100,35,125,86,1
159,164,325,206,1
92,151,252,141,1
62,19,108,20,1
75,29,388,284,1
220,160,29,79,1
47,132,260,130,1
115,79,35,130,1
12,77,231,135,1
183,125,25,0,1
311,294,77,3,1
206,162,71,59,1
182,93,113,146,1
190,144,35,148,1
11,162,173,143,1
50,158,24,136,1
84,117,121,47,1
76,115,176,223,1
306,211,53,2,1
205,11,60,229,1
302,93,137,37,1
14,99,171,62,1
135,43,108,86,1
65,19,245,202,1
9,245,132,131,1
62,181,108,75,1
32,89,100,91,1
96,66,136,127,1
200,132,46,29,1
136,275,65,81,1
63,7,31,93,1
52,21,88,84,1
36,48,46,62,1
24,25,34,0,1
212,355,66,113,1
40,187,19,42,1
115,57,7,0,1
101,15,71,71,1
106,59,23,40,1
4,22,49,62,1
7,70,28,87,1
39,58,143,52,1
177,65,109,75,1
180,161,91,88,1
103,21,109,167,1
266,169,47,19,1
51,16,92,103,1
399,418,60,113,1
356,435,24,2,1
145,281,30,72,1
185,80,77,94,1
94,171,79,57,1
169,89,25,70,1
141,83,20,0,1
233,79,7,44,1
316,98,37,28,1
76,112,8,19,1
152,8,90,100,1
181,94,5,32,1
34,54,98,91,1
28,103,89,128,1
148,85,30,22,1
111,49,42,24,1
206,152,26,41,1
21,139,64,96,1
47,40,78,101,1
55,39,11,0,1
3,105,90,101,1
17,95,10,29,1
32,84,79,92,1
74,271,67,91,1
238,273,1,24,1
131,15,29,35,1
83,9,22,47,1
10,147,56,72,1
191,92,49,52,1
112,172,30,18,1
47,85,76,113,1
48,9,12,57,1
151,15,55,69,1
26,179,85,92,1
62,7,10,23,1
241,124,47,50,1
78,162,40,36,1
142,36,70,96,1
348,194,27,37,1
170,235,16,32,1
2,184,62,62,1
126,50,5,27,1
47,44,21,61,1
91,59,17,59,1
58,6,2,0,1
191,29,64,69,1
81,82,6,31,1
254,96,62,51,1
2,243,16,43,1
54,79,13,0,1
33,97,170,156,1
118,54,56,61,1
103,78,78,0,1
115,35,180,127,1
125,104,44,12,1
41,47,51,0,1
299,270,130,83,1
105,222,172,126,1
223,186,19,4,1
127,122,54,73,1
119,17,34,36,1
19,56,141,73,1
161,65,84,93,1
73,39,35,39,1
275,350,11,0,1
162,15,55,122,1
94,96,21,15,1
175,20,27,40,1
92,79,40,47,1
65,58,50,71,1
137,268,23,84,1
70,101,48,10,1
38,23,19,42,1
51,45,42,5,1
116,140,20,0,1
236,125,31,0,1
340,305,60,53,1
17,158,1,76,1
30,94,24,1,1
8,24,20,23,1
159,151,92,117,1
123,108,6,55,1
183,186,36,52,1
267,251,84,105,1
2,6,79,101,1
124,62,85,73,1
20,88,22,16,1
107,31,141,146,1
207,107,35,1,1
83,29,223,251,1
251,208,94,30,1
287,301,129,99,1
145,18,62,112,1
25,55,35,92,1
145,70,25,0,1
180,110,14,17,1
69,24,3,48,1
78,21,43,28,1
209,169,15,0,1
41,45,50,18,1
244,220,1,44,1
128,126,235,225,1
165,64,9,4,1
240,62,134,113,1
163,214,7,0,1
20,126,130,112,1
4,21,7,27,1
69,28,212,221,1
320,229,17,60,1
261,223,96,103,1
247,78,4,40,1
320,273,61,17,1
174,47,8,18,1
171,57,13,21,1
75,117,47,0,1
4,159,15,21,1
36,108,35,0,1
202,177,185,153,1
402,233,78,6,1
372,301,139,107,1
281,77,57,4,1
337,214,47,54,1
14,75,54,40,1
168,72,169,148,1
24,83,6,39,1
82,195,108,89,1
290,287,455,299,1
54,149,204,131,1
68,19,492,407,1
130,191,346,140,1
92,212,157,268,1
67,60,139,159,1
160,38,40,88,1
388,263,197,144,1
88,90,105,51,1
226,55,23,68,1
287,252,8,42,1
60,87,62,46,1
372,265,40,49,1
4,11,7,37,1
574,340,90,162,1
429,345,104,48,1
385,294,13,56,1
620,527,112,105,1
160,164,99,64,1
300,110,142,96,1
239,182,44,27,1
92,179,26,0,1
93,40,136,41,1
15,45,141,134,1
128,37,50,37,1
70,26,36,62,1
76,10,38,13,1
8,144,42,52,1
0,8,158,148,1
19,280,153,97,1
52,272,114,14,1
297,186,293,167,1
110,136,62,94,1
83,172,4,91,1
87,41,95,7,1
177,285,469,469,1
299,287,102,121,1
1,70,383,378,1
257,213,259,332,1
121,93,17,32,1
584,427,206,23,1
10,59,195,286,1
304,119,169,52,1
142,221,388,389,1
137,318,78,3,1
194,116,510,381,1
117,7,35,80,1
30,14,8,43,1
61,78,142,91,1
322,203,50,45,1
259,280,245,298,1
111,8,164,195,1
314,312,403,360,1
255,343,166,232,1
36,14,7,79,1
137,27,277,33,1
114,19,252,164,1
64,98,375,190,1
195,38,351,130,1
279,277,132,89,1
174,273,811,435,1
32,35,221,176,1
299,16,659,432,1
161,83,306,334,1
267,30,452,430,1
270,285,222,232,1
286,123,81,235,1
233,61,90,184,1
99,206,269,355,1
17,279,132,17,1
76,174,646,548,1
167,29,147,254,1
28,101,433,195,1
60,88,14,68,1
53,52,456,291,1
111,26,112,26,1
282,119,635,515,1
365,321,164,16,1
171,258,589,656,1
90,222,593,385,1
297,146,444,438,1
76,96,340,466,1
195,235,178,103,1
44,81,19,28,1
143,49,239,248,1
73,186,366,214,1
36,126,299,164,1
247,75,40,111,1
111,116,1023,738,1
203,65,359,305,1
315,28,315,434,1
287,284,247,11,1
233,196,670,477,1
261,16,608,577,1
5,225,16,34,1
254,183,524,581,1
150,442,192,124,1
86,253,225,231,1
16,113,3,27,1
519,426,82,183,1
40,236,145,132,1
429,299,604,573,1
122,259,219,212,1
76,164,590,398,1
133,107,329,411,1
19,80,428,230,1
317,81,90,268,1
495,273,45,0,1
46,288,122,243,1
262,186,269,426,1
79,69,45,150,1
401,78,247,446,1
146,20,201,313,1
134,93,421,72,1
73,248,463,536,1
110,60,164,32,1
54,101,10,134,1
113,73,22,0,1
397,339,248,184,1
25,129,69,95,1
148,273,335,206,1
115,137,101,105,1
269,116,416,111,1
37,87,191,145,1
57,171,355,315,1
323,236,209,102,1
100,37,249,114,1
73,76,139,37,1
27,75,13,60,1
303,17,200,104,1
269,96,150,326,1
854,610,118,131,1
312,195,386,426,1
132,165,179,209,1
134,40,224,293,1
161,25,326,300,1
250,182,278,311,1
277,211,44,12,1
145,134,344,183,1
35,318,44,34,1
3,61,69,15,1
45,94,539,287,1
210,180,257,139,1
217,60,366,343,1
132,157,498,488,1
258,8,477,626,1
25,186,422,314,1
250,132,627,580,1
287,17,17,110,1
32,196,119,94,1
118,81,101,180,1
45,125,167,327,1
10,197,497,453,1
106,43,670,768,1
205,89,95,106,1
55,28,645,702,1
310,70,123,109,1
35,124,22,117,1
85,369,288,322,1
196,222,63,49,1
173,183,592,653,1
295,181,116,168,1
50,151,440,409,1
8,31,94,202,1
114,100,334,346,1
185,79,37,205,1
284,71,85,180,1
228,40,264,257,1
17,96,121,57,1
116,35,443,266,1
134,153,477,257,1
51,111,100,28,1
330,245,199,134,1
158,23,306,362,1
451,323,600,753,1
223,199,260,649,1
253,25,522,641,1
529,385,54,695,1
188,423,611,648,1
556,25,768,742,1
260,28,327,249,1
242,411,58,64,1
287,178,180,66,1
68,154,197,12,1
31,309,53,60,1
201,33,103,98,1
123,58,185,254,1
541,453,168,327,1
375,55,260,289,1
133,100,107,311,1
19,30,128,282,1
110,63,370,0,1
52,202,740,753,1
327,189,876,1023,1
410,55,417,712,1
76,115,361,611,1
303,55,682,818,1
169,30,87,127,1
19,128,149,382,1
196,57,260,330,1
38,245,434,487,1
316,83,1023,1023,1
305,28,244,0,1
10,128,27,17,1
108,149,548,628,1
444,398,311,451,1
177,297,1023,1023,1
113,96,173,539,1
48,21,863,747,1
248,170,221,321,1
254,241,70,373,1
230,18,739,1023,1
93,22,207,269,1
59,20,1023,1023,1
85,239,820,600,1
259,14,734,1023,1
490,333,760,956,1
27,133,377,159,1
239,49,37,17,1
4,136,462,342,1
165,92,491,625,1
328,99,575,623,1
28,60,290,69,1
32,114,646,424,1
49,228,301,52,1
302,34,51,30,1
12,209,305,122,1
260,19,605,898,1
388,162,548,725,1
103,77,303,532,1
59,44,390,301,1
354,397,285,419,1
14,35,612,945,1
23,33,132,215,1
45,154,558,669,1
42,12,204,364,1
156,151,155,135,1
290,16,635,578,1
134,73,883,477,1
83,26,500,410,1
146,78,702,676,1
249,275,678,743,1
2,31,565,786,1
297,342,486,391,1
138,243,550,867,1
353,130,78,414,1
27,71,361,110,1
3,154,535,591,1
100,122,247,28,1
330,186,503,126,1
153,31,358,241,1
158,249,194,402,1
55,32,332,346,1
14,69,656,902,1
173,12,260,210,1
5,32,214,316,1
130,104,55,7,1
155,15,203,318,1
118,138,294,375,1
247,16,177,29,1
212,326,691,589,1
371,246,64,68,1
56,209,369,367,1
37,22,158,207,1
15,138,199,135,1
243,108,220,0,1
154,338,138,199,1
231,412,77,205,1
177,147,599,686,1
194,47,459,420,1
204,117,406,218,1
102,12,297,215,1
149,268,68,183,1
20,86,782,661,1
173,39,398,502,1
233,193,207,134,1
16,25,443,299,1
286,81,237,343,1
237,77,268,213,1
48,60,47,29,1
18,39,387,122,1
222,121,163,266,1
150,94,179,98,1
162,255,212,83,1
108,101,254,523,1
236,278,48,93,1
103,52,54,452,1
334,495,453,547,1
138,22,479,302,1
236,94,397,316,1
325,22,231,267,1
174,60,260,10,1
77,26,522,673,1
5,104,260,423,1
284,76,289,88,1
107,20,512,605,1
223,128,47,347,1
48,60,58,298,1
321,254,419,750,1
67,45,248,455,1
150,61,154,201,1
58,50,251,181,1
331,171,492,657,1
358,229,187,209,1
80,57,62,167,1
2,61,450,327,1
46,125,545,503,1
184,353,207,43,1
17,347,202,372,1
251,397,116,50,1
31,308,57,180,1
95,147,333,251,1
182,11,278,489,1
93,111,160,241,1
28,151,60,28,1
344,508,61,55,1
100,106,512,586,1
193,369,130,158,1
155,17,1,18,1
75,442,17,183,1
192,388,121,178,1
385,246,689,177,1
173,291,341,188,1
28,53,7,70,1
92,43,278,121,1
118,25,115,285,1
11,36,86,55,1
179,334,90,335,1
25,76,39,14,1
28,73,25,86,1
91,107,458,288,1
131,6,248,280,1
190,387,180,97,1
61,229,115,237,1
249,124,390,276,1
376,23,33,81,1
139,309,196,209,1
66,201,45,147,1
130,75,342,330,1
420,291,102,275,1
144,179,196,324,1
141,7,188,477,1
179,130,133,41,1
7,37,265,120,1
87,64,73,206,1
24,101,139,0,1
170,231,12,114,1
109,28,256,337,1
283,287,723,369,1
207,339,555,407,1
0,61,91,10,1
96,115,102,170,1
194,23,107,85,1
61,114,31,31,1
256,80,278,362,1
163,115,242,160,1
217,319,165,284,1
76,178,266,342,1
109,33,115,60,1
57,106,271,262,1
29,185,306,325,1
162,168,316,363,1
10,143,9,161,1
145,148,97,24,1
326,168,50,299,1
284,338,22,269,1
150,343,45,225,1
61,52,290,412,1
93,297,272,0,1
166,87,54,46,1
427,412,44,205,1
47,57,167,79,1
122,39,233,302,1
108,125,258,219,1
24,120,456,657,1
215,178,15,45,1
45,18,442,653,1
393,308,30,24,1
19,33,132,232,1
165,125,301,232,1
52,23,7,132,1
158,342,201,200,1
89,221,38,0,1
37,42,137,300,1
63,58,390,387,1
392,216,340,472,1
333,377,102,182,1
325,137,120,179,1
384,280,11,49,1
315,600,145,3,1
92,369,256,219,1
1,89,396,258,1
38,127,263,150,1
27,35,230,281,1
41,289,158,218,1
307,88,223,217,1
180,362,112,30,1
83,157,53,0,1
38,53,161,298,1
98,31,39,5,1
167,74,106,199,1
349,364,149,181,1
114,147,232,201,1
297,70,236,93,1
104,150,313,94,1
133,14,79,84,1
139,53,54,129,1
17,325,307,226,1
266,449,152,71,1
357,87,19,103,1
385,84,194,81,1
80,176,514,132,1
128,23,181,141,1
43,10,116,155,1
56,110,471,333,1
95,132,35,126,1
103,33,222,226,1
173,47,129,266,1
105,139,291,145,1
77,370,257,325,1
26,172,62,22,1
31,305,18,197,1
94,41,321,171,1
245,329,359,274,1
44,255,97,4,1
35,84,73,105,1
132,91,7,13,1
112,103,64,88,1
141,235,117,137,1
5,54,164,139,1
138,75,355,288,1
99,20,220,254,1
0,163,468,305,1
138,17,101,210,1
43,15,245,260,1
12,58,40,12,1
190,161,16,0,1
54,90,335,272,1
138,18,21,0,1
128,55,241,280,1
255,238,5,58,1
26,220,236,176,1
117,6,76,54,1
181,241,35,63,1
254,96,14,108,1
12,122,64,37,1
5,45,29,82,1
6,137,330,216,1
5,11,264,132,1
61,208,287,175,1
66,34,127,128,1
0,153,72,31,1
143,283,94,71,1
8,47,94,101,1
10,168,63,27,1
119,36,40,109,1
186,243,173,78,1
198,20,2,70,1
6,54,28,12,1
152,402,102,34,1
198,300,174,45,1
310,433,95,78,1
112,267,292,126,1
43,29,109,35,1
42,91,147,160,1
191,109,87,3,1
49,186,9,39,1
145,39,3,0,1
88,117,88,2,1
296,120,45,45,1
182,94,7,79,1
7,66,48,45,1
55,83,71,58,1
208,138,48,67,1
194,7,120,141,1
3,175,17,35,1
69,36,32,17,1
94,47,63,70,1
105,68,5,12,1
11,188,65,108,1
43,77,46,53,1
80,13,44,44,1
64,28,27,21,1
76,7,22,81,1
2,83,53,94,1
6,76,25,0,1
178,119,38,66,1
86,24,50,53,1
81,19,23,0,1
143,324,63,68,1
53,229,12,52,1
215,163,46,49,1
143,72,49,76,1
38,190,4,25,1
169,125,69,91,1
2,129,36,59,1
21,38,24,12,1
118,233,59,71,1
29,14,2,5,1
33,114,82,103,1
63,221,68,75,1
5,58,48,26,1
5,119,32,42,1
8,12,31,60,1
26,209,36,77,1
46,32,51,61,1
34,122,5,0,1
87,101,70,77,1
56,167,25,42,1
121,205,62,84,1
25,187,62,93,1
57,7,9,10,1
40,56,64,55,1
80,13,3,21,1
89,106,128,151,1
11,151,14,56,1
85,128,24,10,1
8,75,64,92,1
39,98,30,5,1
186,79,58,108,1
99,75,71,92,1
72,130,38,59,1
135,35,21,46,1
106,32,24,13,1
81,232,108,137,1
38,70,35,20,1
303,280,161,137,1
297,132,27,48,1
97,260,7,16,1
171,260,183,183,1
108,268,114,128,1
99,21,11,14,1
36,214,63,53,1
113,159,4,32,1
24,98,80,78,1
51,158,47,47,1
67,88,3,8,1
22,177,91,80,1
37,93,25,0,1
141,226,49,30,1
74,178,141,133,1
57,175,61,56,1
90,227,51,57,1
120,77,13,38,1
87,263,93,92,1
4,127,60,83,1
56,135,99,44,1
2,166,104,81,1
15,45,22,0,1
151,308,29,39,1
44,38,67,82,1
24,39,18,20,1
149,9,43,19,1
73,117,8,45,1
120,280,95,117,1
112,282,73,55,1
50,46,3,0,1
48,236,79,58,1
10,114,6,11,1
60,66,56,95,1
237,112,83,66,1
3,46,32,30,1
127,40,64,53,1
42,177,48,65,1
6,16,68,111,1
205,108,64,51,1
56,141,26,43,1
46,159,86,107,1
156,169,2,44,1
128,308,3,70,1
156,21,88,112,1
29,135,149,175,1
53,67,104,111,1
67,14,54,74,1
30,215,147,89,1
160,82,23,9,1
178,247,7,0,1
214,135,47,66,1
28,52,20,69,1
119,264,54,0,1
19,84,225,188,1
84,209,15,0,1
16,127,264,229,1
7,174,26,33,1
63,87,120,144,1
22,113,47,43,1
28,59,47,24,1
148,11,111,83,1
94,27,50,34,1
77,9,61,79,1
153,8,83,95,1
41,84,43,52,1
383,313,13,8,1
78,95,60,77,1
47,33,93,120,1
77,162,18,20,1
1,77,5,8,1
14,125,144,71,1
204,188,192,166,1
162,36,77,31,1
23,26,31,0,1
22,39,56,29,1
103,52,219,184,1
95,85,71,60,1
249,337,343,288,1
188,301,283,90,1
44,45,75,29,1
140,49,203,31,1
191,173,141,107,1
80,150,300,120,1
24,15,22,1,1
174,83,442,254,1
21,203,366,298,1
48,7,383,228,1
62,300,403,296,1
96,31,216,138,1
26,138,298,120,1
139,22,298,313,1
113,246,10,30,1
218,99,177,200,1
87,190,323,212,1
1,70,194,170,1
291,546,483,282,1
7,27,63,6,1
108,79,19,22,1
142,33,23,5,1
28,8,38,63,1
127,29,749,491,1
116,100,225,56,1
292,421,946,607,1
83,49,180,77,1
43,185,191,121,1
71,207,138,112,1
64,67,360,306,1
247,374,139,71,1
20,80,528,286,1
136,268,93,160,1
85,18,195,133,1
157,168,185,31,1
50,78,357,87,1
84,102,41,83,1
93,89,215,106,1
321,49,13,18,1
2,248,40,6,1
203,165,370,210,1
34,319,222,31,1
142,9,535,448,1
1,82,554,245,1
75,30,535,315,1
236,310,528,333,1
100,177,146,3,1
180,160,276,252,1
111,90,427,445,1
273,377,172,152,1
226,105,485,465,1
205,338,121,151,1
215,169,387,275,1
2,166,314,193,1
263,102,379,171,1
251,212,462,422,1
141,63,346,248,1
23,116,203,113,1
162,224,4,123,1
2,91,181,220,1
4,8,287,250,1
219,112,371,255,1
76,282,139,30,1
83,273,289,249,1
178,217,60,111,1
41,133,82,91,1
135,47,375,117,1
302,197,64,68,1
169,70,201,127,1
87,35,321,283,1
75,254,74,134,1
163,204,87,158,1
35,208,247,26,1
118,320,326,292,1
325,203,516,349,1
249,8,341,318,1
184,111,320,305,1
210,126,93,226,1
119,324,330,44,1
101,19,9,18,1
389,345,119,80,1
131,26,266,226,1
15,111,22,97,1
33,255,247,46,1
17,125,62,41,1
6,75,97,3,1
259,375,169,62,1
54,11,61,59,1
107,12,37,115,1
14,110,9,77,1
16,181,42,66,1
84,11,151,94,1
158,221,114,190,1
231,133,62,202,1
13,16,773,701,1
254,9,210,289,1
234,147,15,148,1
260,161,234,144,1
108,152,391,436,1
10,161,334,177,1
131,14,53,213,1
91,266,366,223,1
87,202,486,169,1
115,118,185,214,1
5,176,82,76,1
148,297,167,184,1
134,116,76,23,1
37,185,91,168,1
9,351,178,96,1
40,70,46,192,1
253,8,122,146,1
174,127,44,114,1
16,21,92,147,1
249,250,108,180,1
129,144,23,73,1
116,29,213,131,1
34,89,349,57,1
193,101,49,8,1
55,343,327,207,1
86,107,157,267,1
217,245,192,50,1
130,9,91,50,1
141,201,101,176,1
218,86,54,125,1
33,119,230,33,1
312,34,30,46,1
171,217,272,204,1
126,95,100,20,1
48,197,56,39,1
388,109,143,409,1
478,319,320,278,1
307,93,228,371,1
20,84,528,271,1
283,99,664,769,1
378,96,640,288,1
616,301,558,439,1
63,130,1009,979,1
617,405,337,521,1
225,107,178,260,1
271,172,559,380,1
67,26,240,0,1
30,127,126,125,1
156,36,474,483,1
101,245,109,188,1
221,391,561,268,1
259,215,218,21,1
360,13,17,45,1
162,44,381,488,1
343,211,39,112,1
231,128,194,470,1
5,102,200,278,1
214,41,77,77,1
385,216,335,594,1
381,347,63,118,1
433,113,117,228,1
189,278,348,418,1
179,121,237,549,1
127,192,808,503,1
148,127,132,560,1
66,76,489,413,1
17,175,172,14,1
261,9,669,874,1
520,488,1023,988,1
543,415,258,79,1
237,98,1023,1023,1
148,17,46,325,1
373,192,44,96,1
57,171,153,283,1
312,56,230,227,1
119,59,184,302,1
280,212,68,0,1
80,165,366,577,1
80,13,18,56,1
453,288,74,201,1
55,65,932,1023,1
224,185,367,497,1
49,77,795,535,1
97,262,265,222,1
76,226,166,269,1
260,144,170,125,1
103,112,445,332,1
311,71,19,88,1
155,83,223,226,1
614,248,323,5,1
17,71,45,212,1
178,62,190,161,1
151,422,125,11,1
58,294,123,175,1
39,191,64,85,1
338,49,153,129,1
6,219,325,420,1
453,612,16,2,1
82,85,410,512,1
141,208,319,219,1
115,134,278,285,1
88,16,209,253,1
79,292,513,760,1
46,65,93,68,1
237,10,425,488,1
60,162,505,335,1
253,227,34,277,1
117,202,558,674,1
205,197,49,42,1
114,34,54,99,1
224,183,136,230,1
220,184,547,802,1
256,31,361,430,1
233,273,110,718,1
71,258,81,164,1
108,35,47,178,1
202,299,233,272,1
154,162,312,3,1
215,69,38,0,1
32,84,268,192,1
64,259,86,19,1
183,284,231,394,1
116,190,204,252,1
27,230,115,240,1
11,227,167,66,1
113,125,385,481,1
439,331,203,634,1
193,86,6,0,1
75,107,92,141,1
52,120,195,219,1
85,74,94,3,1
163,55,125,109,1
29,57,216,277,1
114,11,201,353,1
53,301,68,8,1
57,56,35,167,1
20,199,11,27,1
247,119,22,19,1
164,162,112,138,1
33,203,333,415,1
66,21,16,174,1
177,12,462,393,1
264,191,199,29,1
110,20,204,104,1
137,15,93,139,1
133,133,20,140,1
113,157,37,69,1
151,201,251,246,1
100,25,78,155,1
159,205,169,0,1
39,13,263,180,1
240,119,295,89,1
30,65,20,139,1
121,10,150,3,1
48,63,8,110,1
170,262,448,214,1
103,131,112,1,1
87,102,6,3,1
0,63,96,90,1
401,227,25,18,1
15,211,105,103,1
141,188,71,189,1
163,224,160,98,1
2,100,228,194,1
284,183,246,348,1
53,29,210,319,1
205,149,142,267,1
229,155,94,204,1
166,191,183,307,1
48,8,250,42,1
85,31,50,0,1
494,360,220,229,1
54,176,759,761,1
100,113,335,503,1
259,8,693,579,1
16,331,116,383,1
222,229,42,22,1
75,186,231,166,1
192,30,279,140,1
13,90,479,102,1
40,135,194,162,1
45,87,538,403,1
157,205,38,4,1
6,124,499,369,1
211,105,91,70,1
27,102,645,401,1
31,228,782,725,1
229,243,112,90,1
125,408,111,60,1
97,163,225,212,1
69,31,93,3,1
83,33,6,74,1
20,113,276,476,1
87,31,200,318,1
170,90,163,380,1
258,31,326,545,1
166,237,86,28,1
139,307,534,544,1
168,122,63,85,1
249,91,114,150,1
156,17,90,31,1
74,135,147,207,1
168,133,239,209,1
64,102,146,225,1
34,196,168,145,1
29,127,285,1,1
20,32,40,169,1
1,13,305,69,1
30,264,427,285,1
35,192,280,215,1
183,201,144,227,1
7,343,4,120,1
164,16,167,57,1
115,31,521,477,1
55,129,241,130,1
66,203,304,397,1
76,56,283,241,1
8,59,463,374,1
140,71,168,91,1
162,59,133,184,1
315,206,258,393,1
35,97,167,295,1
25,7,307,369,1
68,16,64,136,1
131,392,251,176,1
68,107,421,466,1
382,348,41,78,1
24,114,306,265,1
36,32,156,156,1
113,201,242,86,1
45,16,48,178,1
21,49,54,111,1
28,60,311,0,1
204,53,2,1,1
6,136,375,336,1
21,32,84,28,1
148,41,403,439,1
88,67,14,132,1
115,223,40,33,1
4,325,286,104,1
286,13,274,51,1
39,65,70,101,1
33,281,119,210,1
85,116,174,184,1
15,8,337,116,1
73,33,20,39,1
52,78,6,0,1
54,49,438,258,1
256,134,52,97,1
64,135,159,23,1
145,49,488,311,1
53,59,81,8,1
16,248,98,75,1
307,334,56,160,1
384,14,100,225,1
52,244,310,146,1
140,56,132,0,1
8,174,149,5,1
57,10,114,3,1
16,165,43,36,1
55,104,164,184,1
0,103,37,0,1
29,236,34,45,1
146,291,200,209,1
17,35,47,89,1
226,272,187,30,1
23,177,2,56,1
16,107,84,31,1
21,13,185,142,1
8,237,156,277,1
206,140,108,0,1
42,25,62,71,1
85,153,336,305,1
232,209,249,149,1
42,304,98,178,1
101,185,227,231,1
118,279,370,115,1
31,140,36,82,1
42,65,219,113,1
108,44,10,96,1
10,11,116,129,1
98,7,8,1,1
113,119,76,3,1
34,9,82,99,1
34,175,68,30,1
145,45,33,105,1
42,130,163,152,1
336,182,99,20,1
68,47,135,106,1
196,46,114,19,1
46,86,13,12,1
79,110,5,47,1
1,231,38,3,1
30,179,146,87,1
348,170,68,66,1
34,29,77,96,1
91,206,127,101,1
95,211,9,20,1
6,25,48,13,1
13,186,95,23,1
44,128,90,0,1
149,263,24,89,1
130,232,129,132,1
355,294,27,110,1
52,71,25,2,1
85,35,176,69,1
52,20,86,9,1
25,35,93,32,1
105,170,76,92,1
50,108,165,176,1
108,130,62,98,1
18,39,35,7,1
5,145,106,112,1
149,203,28,0,1
58,80,113,141,1
171,30,16,24,1
205,256,28,31,1
175,85,47,0,1
61,51,22,51,1
103,306,91,117,1
86,75,64,46,1
86,9,56,14,1
105,366,69,64,1
13,73,34,28,1
84,255,113,114,1
83,161,35,66,1
64,166,56,43,1
84,38,53,55,1
245,219,5,25,1
31,181,90,102,1
84,166,47,47,1
4,64,30,17,1
105,9,78,57,1
52,96,6,8,1
193,39,109,79,1
72,17,45,16,1
10,145,16,20,1
22,107,33,23,1
49,42,35,58,1
127,26,82,94,1
70,31,40,48,1
133,19,32,9,1
22,51,69,63,1
42,131,22,36,1
93,46,76,82,1
22,94,79,72,1
87,156,80,85,1
196,84,95,109,1
65,80,18,13,1
1,163,95,86,1
137,59,51,66,1
25,47,29,55,1
100,17,106,85,1
5,29,14,29,1
233,35,68,81,1
200,77,26,36,1
37,173,59,63,1
163,52,56,95,1
47,151,2,0,1
43,249,75,121,1
5,78,57,57,1
35,25,34,16,1
177,93,61,59,1
118,76,1,19,1
37,123,74,88,1
10,117,24,60,1
48,154,20,32,1
52,8,33,25,1
45,31,6,49,1
100,26,50,59,1
162,57,76,59,1
40,121,13,51,1
87,47,67,84,1
2,64,58,66,1
58,172,41,63,1
87,237,23,56,1
57,119,39,47,1
75,186,58,47,1
37,69,4,8,1
76,41,59,103,1
169,56,44,53,1
41,119,68,28,1
71,27,85,87,1
208,263,10,14,1
132,8,44,86,1
88,52,65,64,1
27,19,33,44,1
133,13,77,61,1
197,165,3,9,1
222,43,67,100,1
114,14,46,57,1
205,237,27,0,1
42,125,63,78,1
107,179,23,8,1
10,122,100,150,1
61,139,94,110,1
5,73,48,62,1
105,14,69,18,1
0,49,8,54,1
41,60,52,58,1
19,80,108,69,1
126,125,5,1,1
64,16,109,90,1
66,15,21,4,1
77,62,76,16,1
69,69,103,94,1
172,269,141,109,1
164,103,162,93,1
9,79,75,101,1
1,19,139,147,1
41,15,1,0,1
137,38,75,34,1
16,179,19,26,1
10,103,4,2,1
169,33,46,40,1
268,72,68,6,1
26,130,58,56,1
262,142,73,4,1
183,202,71,58,1
6,133,269,184,1
34,46,22,16,1
19,11,220,123,1
24,102,163,57,1
70,32,110,92,1
45,249,11,0,1
5,46,195,128,1
105,14,85,30,1
207,25,51,47,1
18,12,25,27,1
34,117,102,58,1
9,57,9,1,1
162,208,71,35,1
83,7,131,93,1
118,52,12,61,1
102,27,134,117,1
14,71,4,20,1
120,15,27,38,1
277,207,106,38,1
190,140,70,78,1
169,41,89,75,1
70,167,29,34,1
82,148,91,57,1
23,129,75,81,1
34,14,119,141,1
102,224,33,0,1
71,26,60,80,1
129,235,187,164,1
71,9,4,24,1
109,105,95,45,1
82,145,71,97,1
274,100,76,53,1
51,161,193,77,1
111,14,14,2,1
115,82,10,119,1
32,94,137,103,1
257,101,37,80,1
104,176,209,106,1
63,49,74,50,1
71,132,65,0,1
22,112,34,35,1
106,168,208,139,1
2,63,76,32,1
6,130,63,0,1
217,166,91,130,1
44,216,28,0,1
19,164,86,101,1
70,68,53,20,1
102,116,5,19,1
140,80,59,43,1
178,417,133,164,1
22,149,94,111,1
46,83,113,37,1
7,75,4,0,1
162,47,100,23,1
174,31,435,233,1
16,320,299,231,1
1,73,407,364,1
22,131,242,242,1
8,94,355,340,1
104,253,347,286,1
37,85,434,429,1
4,27,292,41,1
285,255,43,48,1
84,109,61,16,1
145,11,259,102,1
5,31,282,234,1
33,78,366,333,1
27,123,85,3,1
25,54,318,329,1
7,255,309,184,1
93,146,513,462,1
66,54,347,349,1
336,187,435,487,1
88,75,78,4,1
98,112,351,452,1
85,17,69,156,1
232,330,22,32,1
68,28,135,125,1
193,248,156,0,1
71,261,99,15,1
36,171,111,4,1
8,11,7,1,1
265,75,205,148,1
99,101,106,2,1
236,27,141,0,1
184,61,100,0,1
273,168,434,135,1
269,336,228,155,1
36,54,14,49,1
265,212,454,267,1
175,227,126,290,1
13,29,346,396,1
139,83,59,191,1
132,237,59,317,1
1,192,166,90,1
241,283,126,227,1
9,286,389,94,1
217,31,199,207,1
231,194,243,337,1
7,283,108,338,1
331,144,210,347,1
308,569,459,115,1
156,37,63,21,1
12,66,432,53,1
66,131,51,16,1
94,47,195,53,1
147,149,168,12,1
20,254,62,280,1
231,124,85,206,1
17,173,535,450,1
189,8,298,284,1
530,388,379,366,1
336,115,333,437,1
347,417,413,273,1
344,57,403,317,1
265,119,172,5,1
172,154,97,55,1
252,98,18,79,1
253,197,88,2,1
464,428,183,140,1
330,62,402,180,1
203,41,94,157,1
136,228,354,181,1
205,411,34,76,1
64,236,23,60,1
14,18,20,18,1
325,339,146,101,1
55,13,51,120,1
471,283,138,173,1
245,87,47,15,1
41,187,379,305,1
68,134,576,376,1
30,118,263,175,1
2,79,49,64,1
12,161,166,118,1
232,425,184,17,1
113,291,719,615,1
254,246,837,619,1
105,156,414,544,1
122,13,322,564,1
203,42,198,243,1
42,45,231,334,1
280,74,206,0,1
180,91,21,83,1
68,88,103,21,1
239,209,6,44,1
158,217,114,189,1
185,34,44,0,1
61,245,5,151,1
288,154,161,203,1
231,65,264,167,1
39,168,190,295,1
98,153,78,225,1
104,167,380,0,1
47,97,498,506,1
166,15,138,189,1
103,64,37,146,1
334,398,386,198,1
34,36,232,245,1
63,126,290,481,1
53,43,184,267,1
356,194,513,561,1
242,164,137,159,1
30,205,397,444,1
141,109,120,223,1
307,351,650,697,1
231,157,348,376,1
113,81,172,275,1
525,381,250,160,1
291,131,20,253,1
102,125,208,71,1
93,168,279,140,1
88,252,63,3,1
218,127,305,271,1
122,81,171,376,1
234,232,377,0,1
32,130,632,893,1
344,31,156,504,1
44,26,499,520,1
114,318,513,726,1
70,236,109,206,1
47,156,105,6,1
58,169,54,178,1
44,330,177,199,1
139,85,944,1023,1
72,219,624,541,1
428,283,339,524,1
71,95,528,757,1
100,255,11,46,1
73,93,86,151,1
51,141,79,152,1
310,307,242,0,1
336,471,450,553,1
107,31,555,498,1
67,332,287,258,1
60,285,141,252,1
210,136,972,1023,1
141,97,193,300,1
173,204,610,946,1
506,133,309,809,1
341,48,533,569,1
159,81,930,1023,1
438,117,160,69,1
450,155,18,330,1
60,233,184,51,1
64,326,1023,1023,1
441,422,506,401,1
20,393,93,529,1
74,63,268,384,1
106,16,26,613,1
166,40,58,155,1
355,196,110,558,1
423,191,6,14,1
153,141,225,239,1
68,18,68,53,1
118,52,70,408,1
12,150,231,158,1
310,53,420,157,1
110,241,47,111,1
138,131,792,574,1
165,282,288,783,1
433,90,314,26,1
160,118,92,389,1
468,253,887,211,1
7,126,556,692,1
478,512,178,396,1
284,169,569,765,1
55,82,83,27,1
86,177,375,390,1
144,394,575,391,1
483,25,545,411,1
538,366,111,241,1
201,7,75,104,1
19,80,403,300,1
153,50,354,613,1
272,41,72,5,1
319,375,753,849,1
338,34,1023,1023,1
37,14,396,514,1
15,215,301,465,1
66,51,461,626,1
358,202,336,179,1
376,345,535,971,1
36,87,526,823,1
38,36,32,30,1
111,83,351,299,1
86,115,143,28,1
237,203,384,341,1
101,14,289,373,1
103,290,60,307,1
57,66,441,551,1
161,82,130,261,1
224,209,152,384,1
512,236,85,333,1
118,329,102,90,1
52,140,113,383,1
79,175,31,67,1
247,44,95,168,1
122,71,239,185,1
178,282,266,276,1
199,126,95,219,1
164,190,103,11,1
387,209,531,364,1
56,74,284,129,1
124,16,22,13,1
47,139,109,228,1
190,229,293,230,1
91,125,82,263,1
163,31,275,388,1
141,32,141,189,1
418,239,972,652,1
219,207,307,173,1
261,121,428,336,1
120,11,410,290,1
149,6,291,380,1
85,157,324,21,1
324,130,379,238,1
7,72,91,85,1
31,85,35,100,1
87,413,652,217,1
217,790,489,359,1
146,82,83,324,1
187,21,204,146,1
14,120,524,346,1
3,152,209,290,1
316,201,471,255,1
83,141,243,334,1
302,150,112,103,1
136,218,6,87,1
162,201,87,6,1
84,90,81,246,1
368,370,23,157,1
130,41,103,213,1
195,182,222,107,1
169,317,106,13,1
60,85,57,35,1
9,87,184,22,1
12,115,41,147,1
99,181,392,275,1
82,335,470,532,1
120,138,367,303,1
99,35,352,297,1
35,98,229,38,1
254,227,78,145,1
193,65,353,507,1
211,147,289,269,1
96,69,508,350,1
254,150,507,178,1
87,50,207,161,1
46,150,567,357,1
270,113,998,1023,1
372,322,289,294,1
24,133,267,535,1
538,381,64,316,1
8,103,66,33,1
471,145,243,504,1
215,358,409,17,1
482,63,465,704,1
565,388,288,189,1
77,116,292,434,1
422,76,672,754,1
376,317,462,535,1
98,109,110,18,1
405,255,168,163,1
73,229,321,287,1
316,8,466,218,1
188,46,687,592,1
24,190,65,166,1
1,61,357,212,1
7,224,75,590,1
3,208,462,646,1
27,16,267,111,1
198,53,159,325,1
3,74,109,85,1
123,29,183,378,1
29,277,405,346,1
286,396,124,13,1
8,240,126,359,1
133,45,290,489,1
40,51,261,90,1
301,190,521,437,1
169,42,310,283,1
214,92,291,378,1
64,147,256,88,1
31,144,125,20,1
88,111,254,183,1
107,6,170,110,1
386,167,80,236,1
241,73,298,322,1
155,97,20,144,1
110,37,372,317,1
223,183,308,252,1
361,195,50,30,1
89,34,8,51,1
275,51,173,137,1
85,135,448,387,1
67,16,54,104,1
91,31,1023,981,1
251,119,307,314,1
170,51,618,700,1
350,193,279,120,1
61,14,169,397,1
272,135,409,249,1
147,16,71,33,1
82,227,124,17,1
59,52,68,102,1
213,121,40,270,1
178,174,368,247,1
296,91,421,528,1
37,95,672,660,1
196,79,161,181,1
112,208,361,104,1
17,110,194,146,1
212,166,101,65,1
34,103,23,2,1
212,129,132,98,1
2,76,206,235,1
144,152,537,631,1
65,178,59,111,1
85,336,544,499,1
307,29,549,465,1
226,76,231,226,1
468,233,492,583,1
249,121,23,8,1
60,105,129,113,1
385,198,226,54,1
141,239,162,195,1
208,14,139,30,1
17,54,304,257,1
42,50,176,23,1
158,214,58,54,1
65,153,50,130,1
305,23,55,0,1
116,114,66,0,1
74,76,244,195,1
137,59,343,296,1
7,114,142,156,1
75,10,106,204,1
291,186,111,12,1
268,345,444,339,1
276,103,126,98,1
403,470,369,298,1
327,75,147,97,1
86,10,97,101,1
108,70,162,133,1
31,79,187,285,1
4,48,104,23,1
464,240,159,324,1
367,198,35,85,1
201,121,65,37,1
30,20,287,210,1
338,259,49,74,1
259,205,252,326,1
226,62,79,110,1
111,98,15,55,1
289,169,154,229,1
164,182,137,214,1
104,96,78,126,1
181,13,321,367,1
87,169,127,0,1
277,269,302,241,1
368,38,115,170,1
237,45,321,322,1
485,231,405,453,1
35,92,21,21,1
391,75,12,112,1
77,113,49,175,1
372,193,62,81,1
233,222,110,152,1
79,199,81,131,1
136,77,217,244,1
75,103,46,55,1
97,105,382,360,1
142,110,76,0,1
123,138,229,254,1
293,163,24,35,1
36,12,365,349,1
168,89,116,0,1
97,42,248,163,1
197,53,244,164,1
130,30,232,181,1
65,11,254,271,1
68,123,310,249,1
115,27,106,160,1
80,218,239,201,1
287,118,71,105,1
32,70,61,57,1
172,81,60,88,1
131,197,214,238,1
154,23,106,110,1
134,60,255,325,1
156,247,15,71,1
6,177,424,354,1
290,189,82,25,1
116,147,313,293,1
30,35,19,151,1
46,47,7,13,1
205,7,276,278,1
164,16,166,108,1
85,207,59,117,1
129,110,164,111,1
53,52,31,10,1
151,122,209,246,1
77,102,36,76,1
59,38,92,144,1
120,69,211,260,1
47,20,38,2,1
412,61,169,200,1
228,7,4,55,1
20,108,108,187,1
127,95,45,5,1
21,10,111,42,1
75,128,10,103,1
109,27,101,5,1
22,107,82,1,1
6,41,190,100,1
60,36,166,37,1
180,11,64,65,1
18,108,212,218,1
220,13,22,0,1
103,46,193,208,1
30,65,81,0,1
246,16,109,138,1
53,13,41,22,1
57,200,37,30,1
35,99,47,72,1
35,127,1,0,1
233,11,52,74,1
269,219,1,49,1
74,25,52,61,1
17,134,25,30,1
5,13,34,27,1
175,36,86,96,1
224,111,37,25,1
44,187,55,71,1
361,169,62,52,1
33,100,6,26,1
329,42,74,103,1
303,190,40,40,1
61,123,28,21,1
4,101,26,52,1
88,62,19,8,1
349,141,91,91,1
168,12,38,36,1
155,103,32,22,1
212,99,46,76,1
87,113,7,2,1
8,230,91,73,1
281,209,14,52,1
48,84,57,53,1
201,110,44,38,1
12,113,42,28,1
95,38,71,94,1
120,71,31,53,1
141,315,53,47,1
82,21,47,0,1
51,99,13,0,1
249,80,64,67,1
122,11,47,68,1
50,65,58,55,1
150,57,46,46,1
73,117,29,10,1
68,115,73,91,1
68,7,34,41,1
5,83,19,36,1
87,46,65,73,1
30,71,36,0,1
71,149,83,96,1
100,288,27,57,1
40,80,55,57,1
90,73,57,65,1
206,200,3,5,1
14,161,82,110,1
34,105,35,53,1
115,37,22,8,1
163,7,61,0,1
105,62,13,0,1
287,117,58,76,1
117,22,40,64,1
92,53,19,16,1
192,54,44,30,1
84,158,33,0,1
154,18,43,93,1
234,97,67,45,1
115,29,66,61,1
213,49,70,66,1
6,65,5,3,1
76,159,67,100,1
101,90,70,119,1
70,15,33,22,1
135,299,43,17,1
25,111,3,12,1
47,129,69,64,1
58,39,22,19,1
72,17,39,34,1
20,159,33,37,1
41,15,15,27,1
246,37,15,47,1
198,47,194,115,1
159,245,130,128,1
100,22,29,72,1
76,108,41,24,1
240,16,157,171,1
127,11,4,38,1
145,300,62,52,1
1,157,104,122,1
119,121,21,0,1
144,12,40,35,1
98,7,46,10,1
52,58,28,17,1
307,131,15,1,1
243,169,4,6,1
157,9,92,79,1
290,201,42,54,1
45,9,38,75,1
227,87,53,93,1
73,119,194,128,1
204,15,22,15,1
6,197,115,84,1
108,19,93,79,1
6,202,45,53,1
123,114,43,7,1
1,195,68,118,1
231,141,27,67,1
147,293,43,29,1
170,53,52,65,1
266,233,20,4,1
123,40,49,50,1
172,78,6,23,1
15,79,48,53,1
52,74,38,27,1
103,101,30,37,1
31,120,71,86,1
82,38,2,20,1
23,82,33,17,1
83,43,53,68,1
59,52,2,36,1
197,19,74,85,1
10,125,51,67,1
25,95,56,96,1
257,149,68,85,1
421,336,18,0,1
133,10,93,126,1
6,158,46,55,1
6,58,39,27,1
15,129,78,51,1
44,19,32,33,1
38,173,123,108,1
0,127,36,51,1
61,55,66,42,1
129,61,16,16,1
42,34,52,61,1
164,17,224,211,1
203,18,31,12,1
64,56,94,57,1
208,84,125,31,1
114,88,59,49,1
2,46,117,87,1
10,91,11,0,1
13,8,114,35,1
11,94,70,71,1
64,119,8,0,1
49,72,10,11,1
77,12,201,202,1
53,36,51,7,1
11,173,156,133,1
201,177,254,123,1
97,129,63,12,1
4,99,86,0,1
30,35,152,92,1
11,173,96,60,1
35,7,114,111,1
72,260,34,0,1
125,6,187,191,1
57,192,131,104,1
257,113,67,130,1
160,169,80,69,1
296,103,108,123,1
278,235,109,98,1
18,115,110,100,1
142,18,62,35,1
75,53,303,222,1
77,124,213,152,1
224,9,338,222,1
64,100,273,173,1
67,188,40,4,1
118,97,69,3,1
196,44,90,42,1
26,212,182,150,1
65,88,119,37,1
367,588,65,11,1
8,124,105,60,1
169,457,140,29,1
220,495,421,369,1
34,88,198,35,1
139,280,408,434,1
31,67,487,249,1
177,380,16,219,1
42,221,601,405,1
201,236,214,252,1
148,230,530,463,1
24,51,79,232,1
265,246,477,394,1
408,323,325,117,1
31,13,132,140,1
77,89,296,233,1
105,167,46,124,1
250,336,30,25,1
44,126,129,122,1
58,83,78,58,1
288,165,210,221,1
359,51,53,42,1
13,20,146,126,1
242,199,114,13,1
155,232,93,15,1
279,176,111,7,1
321,245,158,199,1
94,78,183,86,1
395,116,190,106,1
157,293,92,51,1
84,385,158,150,1
44,56,283,298,1
19,118,44,23,1
153,149,562,368,1
374,532,7,0,1
97,435,47,10,1
127,169,314,402,1
106,170,18,25,1
54,188,351,429,1
81,49,71,124,1
223,124,19,116,1
176,267,338,171,1
42,201,107,185,1
150,73,705,406,1
345,210,60,116,1
173,88,122,0,1
156,7,315,258,1
170,158,391,317,1
69,32,654,549,1
198,235,328,252,1
6,166,181,185,1
69,135,373,302,1
51,150,18,65,1
154,104,217,72,1
425,287,17,0,1
230,149,95,95,1
438,326,167,14,1
128,168,153,235,1
207,16,107,136,1
154,184,137,0,1
99,20,334,208,1
207,90,339,289,1
108,47,171,279,1
260,199,273,233,1
222,191,307,345,1
122,123,248,149,1
203,275,452,357,1
150,25,3,0,1
48,118,424,424,1
160,211,466,345,1
182,162,70,90,1
208,237,778,762,1
391,58,298,200,1
146,132,13,249,1
255,112,70,0,1
144,161,154,0,1
207,109,225,143,1
125,106,26,73,1
17,221,202,33,1
114,157,70,13,1
117,59,257,419,1
158,77,170,264,1
34,129,136,247,1
161,79,264,184,1
140,26,396,532,1
150,225,66,76,1
45,337,458,392,1
43,146,217,53,1
129,56,283,48,1
136,168,71,48,1
239,363,154,0,1
581,312,189,419,1
83,276,288,174,1
558,212,12,242,1
248,108,533,74,1
53,285,364,43,1
122,20,329,407,1
149,7,452,542,1
14,249,231,67,1
10,48,274,396,1
190,126,172,183,1
292,495,97,66,1
182,210,26,9,1
282,183,310,296,1
248,246,419,526,1
3,11,60,152,1
308,265,112,219,1
33,144,222,271,1
373,170,49,166,1
38,106,443,507,1
69,108,206,341,1
238,143,517,660,1
120,54,342,561,1
301,17,82,163,1
199,18,185,205,1
142,630,82,84,1
18,48,40,100,1
146,364,920,802,1
565,278,244,359,1
368,367,298,318,1
203,123,210,225,1
284,246,362,252,1
428,454,90,27,1
173,145,367,469,1
13,27,150,287,1
214,72,55,130,1
63,135,88,7,1
0,116,266,91,1
46,119,321,551,1
61,301,360,423,1
385,16,814,1013,1
111,118,300,429,1
119,434,169,263,1
355,68,3,378,1
221,298,206,94,1
218,97,447,477,1
339,31,82,187,1
100,104,81,9,1
15,58,486,296,1
294,46,786,733,1
18,118,28,278,1
259,31,616,748,1
466,102,747,839,1
305,267,367,155,1
280,428,277,265,1
649,672,11,44,1
7,177,170,13,1
202,63,500,621,1
286,106,457,664,1
413,389,340,148,1
99,107,562,603,1
67,181,261,613,1
106,346,532,252,1
400,198,396,269,1
178,410,131,20,1
193,360,14,209,1
192,138,79,487,1
68,172,168,213,1
141,107,339,299,1
11,141,515,200,1
125,29,122,3,1
204,174,216,145,1
50,223,574,401,1
36,241,268,0,1
185,82,174,48,1
163,19,167,353,1
34,94,391,483,1
247,203,406,441,1
94,54,543,453,1
45,244,132,377,1
211,140,650,680,1
10,64,323,271,1
258,8,658,586,1
86,11,475,408,1
129,212,56,163,1
326,281,263,490,1
235,277,311,78,1
260,19,334,613,1
285,318,252,228,1
14,259,1023,1023,1
233,52,89,150,1
25,25,1023,1023,1
188,177,277,517,1
165,17,1023,879,1
167,36,34,316,1
348,206,300,125,1
49,419,127,186,1
471,24,50,186,1
425,99,396,395,1
366,118,612,1023,1
182,226,679,649,1
214,9,597,195,1
721,121,44,387,1
445,13,451,468,1
35,14,441,644,1
287,51,175,193,1
17,314,50,368,1
427,274,263,583,1
560,199,509,317,1
15,232,448,495,1
497,195,623,651,1
61,12,154,290,1
174,323,276,134,1
24,197,349,299,1
364,496,253,273,1
157,27,486,910,1
381,339,682,892,1
61,145,126,584,1
154,118,790,843,1
135,118,340,13,1
46,396,287,108,1
64,82,89,71,1
28,50,14,147,1
62,33,286,517,1
49,25,395,360,1
191,21,49,314,1
205,23,21,237,1
14,40,82,86,1
135,36,159,19,1
25,50,138,0,1
201,146,60,155,1
19,16,468,200,1
99,18,233,185,1
37,26,64,251,1
19,101,61,19,1
84,47,67,96,1
138,106,71,0,1
256,137,30,5,1
157,49,140,188,1
175,274,82,46,1
23,86,76,165,1
194,93,81,84,1
131,267,165,266,1
213,98,429,614,1
2,110,119,10,1
90,65,283,192,1
106,9,44,2,1
83,9,417,442,1
65,340,26,241,1
130,181,249,102,1
130,162,337,196,1
95,31,121,129,1
152,192,25,312,1
3,129,89,150,1
237,281,143,120,1
88,92,8,17,1
52,200,107,44,1
35,193,149,203,1
73,121,164,126,1
91,33,182,240,1
148,98,91,101,1
15,66,135,29,1
204,335,432,43,1
74,301,80,83,1
73,41,10,197,1
280,302,468,185,1
124,29,117,511,1
72,230,122,0,1
41,108,235,455,1
28,87,155,58,1
19,121,339,351,1
31,89,458,587,1
39,12,331,151,1
183,39,61,407,1
263,281,511,391,1
23,201,203,121,1
164,129,181,219,1
54,80,55,69,1
67,37,538,341,1
212,225,470,451,1
40,90,374,458,1
108,104,88,109,1
103,110,115,185,1
127,67,72,10,1
129,146,167,186,1
193,101,210,249,1
354,338,276,42,1
13,91,19,0,1
180,68,439,308,1
140,90,44,129,1
206,33,118,28,1
64,182,107,89,1
30,92,232,306,1
14,106,28,83,1
4,70,300,301,1
31,116,42,72,1
79,298,299,292,1
155,185,333,232,1
394,89,374,164,1
290,248,67,83,1
30,115,194,14,1
10,105,274,426,1
196,19,46,72,1
206,124,77,118,1
301,285,258,32,1
110,203,144,44,1
83,25,67,39,1
26,11,340,291,1
38,89,82,13,1
47,27,229,238,1
130,135,8,29,1
40,48,117,263,1
50,26,146,55,1
12,49,115,236,1
75,43,97,47,1
0,41,553,803,1
120,42,378,277,1
477,299,531,904,1
460,311,115,236,1
12,11,110,121,1
51,90,89,298,1
0,10,149,252,1
2,244,254,358,1
78,34,386,216,1
386,305,219,246,1
531,248,146,218,1
27,50,191,96,1
210,66,23,124,1
56,103,644,417,1
184,318,284,411,1
15,114,58,0,1
332,243,112,269,1
163,167,101,231,1
207,49,110,188,1
7,37,43,143,1
187,110,66,184,1
252,259,153,0,1
206,153,620,649,1
184,250,183,76,1
100,23,556,489,1
217,204,509,180,1
159,160,356,406,1
334,430,163,92,1
7,130,312,320,1
195,249,117,102,1
111,346,272,303,1
199,109,104,116,1
231,279,19,71,1
131,146,42,24,1
9,13,136,141,1
76,105,302,212,1
125,184,230,9,1
13,32,467,451,1
3,84,294,234,1
38,24,36,45,1
289,100,45,131,1
17,68,7,23,1
190,39,81,113,1
48,107,5,91,1
59,27,223,198,1
148,149,93,214,1
178,261,53,19,1
162,35,167,36,1
2,159,199,90,1
33,103,391,136,1
164,47,198,127,1
189,73,136,103,1
2,54,245,274,1
165,16,202,197,1
124,111,362,270,1
281,84,90,58,1
5,83,93,18,1
27,205,381,110,1
86,107,24,7,1
38,38,144,145,1
44,187,298,242,1
124,48,207,264,1
81,105,154,178,1
165,27,117,126,1
115,146,57,34,1
11,172,32,51,1
0,154,98,103,1
26,29,48,73,1
47,61,73,26,1
211,281,21,0,1
93,117,222,131,1
40,20,120,102,1
119,89,160,137,1
18,69,204,165,1
56,142,94,2,1
34,199,238,217,1
147,92,116,13,1
26,92,164,230,1
241,102,100,99,1
215,290,55,96,1
77,52,49,125,1
161,205,85,63,1
147,47,137,156,1
296,151,31,0,1
190,239,219,215,1
24,242,58,123,1
0,94,109,142,1
52,105,47,90,1
81,77,34,20,1
130,41,56,64,1
88,251,193,129,1
5,13,86,48,1
6,214,232,151,1
260,190,8,36,1
212,278,110,63,1
21,90,14,40,1
46,38,60,99,1
58,113,130,133,1
55,11,82,29,1
119,172,11,41,1
17,109,19,18,1
106,90,278,111,1
33,90,62,9,1
16,148,127,123,1
179,298,60,10,1
134,42,18,29,1
203,305,63,68,1
149,271,80,98,1
144,27,38,48,1
328,308,30,0,1
76,268,95,118,1
56,33,17,0,1
142,9,103,120,1
145,18,23,55,1
122,155,9,4,1
116,19,85,108,1
10,39,77,40,1
33,193,130,82,1
119,63,66,74,1
3,8,101,66,1
86,92,43,94,1
136,28,43,29,1
79,149,79,96,1
87,233,91,72,1
13,30,48,10,1
90,200,41,77,1
61,18,14,31,1
27,14,13,59,1
116,61,49,40,1
44,55,3,1,1
107,45,121,119,1
9,83,7,51,1
15,111,76,67,1
71,180,49,61,1
33,61,25,7,1
33,147,47,0,1
55,45,78,75,1
89,45,86,15,1
17,33,189,133,1
56,19,8,4,1
141,9,127,139,1
65,6,5,11,1
148,63,32,31,1
193,31,67,40,1
112,150,2,9,1
121,40,84,75,1
149,200,46,78,1
76,9,39,66,1
58,94,39,19,1
151,147,8,5,1
266,138,198,166,1
40,51,2,16,1
1,59,265,200,1
8,125,36,15,1
249,253,126,96,1
87,186,85,89,1
131,126,4,0,1
5,100,37,30,1
164,84,48,39,1
4,10,23,30,1
108,25,119,125,1
87,8,27,16,1
14,93,87,38,1
28,68,50,73,1
165,191,18,3,1
82,28,77,75,1
120,106,2,0,1
192,129,10,54,1
69,24,58,42,1
81,59,2,0,1
94,19,88,104,1
156,129,19,26,1
232,42,65,72,1
285,196,27,7,1
246,262,24,19,1
2,118,76,86,1
29,49,69,82,1
60,83,137,121,1
84,7,47,74,1
144,175,55,11,1
72,18,125,85,1
119,73,68,37,1
70,131,233,186,1
115,17,58,74,1
141,145,46,9,1
56,61,26,51,1
107,62,32,41,1
5,94,89,67,1
324,175,27,0,1
116,64,11,4,1
73,52,204,137,1
117,177,2,22,1
177,136,123,99,1
98,209,139,144,1
113,119,18,82,1
273,95,19,23,1
177,217,28,17,1
15,122,154,22,1
26,111,90,60,1
40,19,55,30,1
46,62,63,33,1
117,122,67,63,1
1,52,56,4,1
90,23,290,286,1
161,97,42,58,1
131,95,462,410,1
5,29,94,130,1
60,14,441,455,1
53,10,83,13,1
40,35,351,265,1
39,75,246,177,1
111,118,283,210,1
191,154,164,146,1
53,28,179,166,1
66,47,234,0,1
18,201,299,257,1
190,116,607,354,1
154,35,74,44,1
113,163,475,342,1
31,181,512,340,1
63,68,67,123,1
71,281,699,535,1
42,46,338,153,1
126,105,260,267,1
213,260,512,372,1
49,188,177,7,1
12,40,27,132,1
107,10,167,70,1
12,88,28,136,1
16,54,187,71,1
78,287,108,68,1
189,11,248,302,1
26,104,660,680,1
37,108,259,230,1
209,51,868,847,1
106,222,688,546,1
208,72,362,399,1
1,238,763,613,1
335,297,108,16,1
19,208,430,486,1
277,185,18,105,1
8,58,492,429,1
312,270,167,98,1
72,130,406,312,1
169,76,302,361,1
125,199,7,5,1
181,174,414,291,1
110,189,351,318,1
244,15,412,243,1
131,24,80,23,1
23,11,174,0,1
67,120,101,0,1
212,147,274,161,1
125,135,240,89,1
5,55,63,115,1
198,12,129,133,1
70,11,164,71,1
57,29,235,159,1
133,88,53,138,1
157,138,9,78,1
119,15,63,142,1
117,166,211,122,1
101,65,105,104,1
20,49,103,161,1
312,218,94,108,1
41,7,185,136,1
103,111,569,505,1
304,204,358,141,1
174,64,903,826,1
893,533,416,409,1
93,356,619,506,1
291,53,32,228,1
181,304,731,676,1
297,39,332,313,1
148,213,495,468,1
279,91,700,619,1
435,331,259,127,1
217,18,210,78,1
12,446,87,159,1
79,154,540,588,1
116,171,315,323,1
145,18,342,432,1
479,425,407,386,1
174,138,139,131,1
130,190,733,653,1
137,35,539,591,1
12,9,161,325,1
55,56,528,431,1
173,242,186,205,1
153,182,156,2,1
202,374,441,343,1
302,37,73,97,1
331,294,319,266,1
404,177,30,246,1
428,413,63,56,1
240,112,274,332,1
446,359,67,47,1
46,12,34,57,1
91,17,331,98,1
15,8,37,56,2
251,245,343,507,2
17,113,36,15,2
188,90,313,607,2
516,89,202,472,2
39,10,179,149,2
267,58,114,95,2
240,11,274,83,2
123,77,48,146,2
97,44,219,0,2
298,182,208,167,2
188,29,149,0,2
44,133,716,377,2
135,155,647,375,2
12,150,173,138,2
76,113,87,0,2
16,25,22,40,2
118,164,278,235,2
107,311,145,23,2
82,205,576,317,2
63,83,814,692,2
242,360,67,130,2
129,166,80,213,2
90,367,437,341,2
442,123,21,216,2
521,406,320,155,2
120,356,3,347,2
76,155,495,488,2
310,391,486,414,2
505,412,91,70,2
13,30,362,360,2
318,234,120,22,2
109,67,6,63,2
15,64,147,220,2
250,181,367,78,2
245,80,474,624,2
67,9,288,421,2
3,53,186,80,2
10,38,8,0,2
313,277,3,50,2
215,139,31,125,2
588,494,308,427,2
22,13,734,649,2
175,23,6,37,2
254,140,69,9,2
262,49,366,305,2
18,124,41,94,2
33,174,269,172,2
186,157,485,855,2
181,141,261,327,2
273,45,46,108,2
198,150,405,309,2
26,49,618,454,2
63,116,93,411,2
144,43,44,13,2
153,132,45,122,2
175,204,213,34,2
83,77,395,542,2
135,362,8,135,2
30,11,513,613,2
68,47,537,423,2
45,33,226,66,2
8,161,206,62,2
69,65,12,37,2
213,132,46,174,2
22,127,587,326,2
104,127,588,382,2
23,111,61,89,2
258,21,101,49,2
101,103,180,152,2
106,156,114,158,2
133,11,102,217,2
218,135,555,356,2
105,35,497,303,2
360,299,67,61,2
95,214,34,109,2
50,261,148,16,2
20,77,508,345,2
146,20,587,304,2
248,69,463,367,2
25,103,505,444,2
72,182,50,125,2
89,136,24,150,2
24,103,11,44,2
12,127,305,437,2
102,174,46,36,2
276,129,450,658,2
205,192,143,80,2
27,255,864,1011,2
519,43,211,248,2
179,114,309,409,2
298,158,110,72,2
340,176,242,100,2
185,13,147,242,2
144,139,34,0,2
121,49,353,403,2
190,156,391,614,2
252,39,109,104,2
204,42,42,553,2
104,192,371,68,2
189,284,403,659,2
117,49,147,102,2
111,7,211,382,2
148,20,451,682,2
29,253,371,468,2
440,569,184,212,2
26,251,30,175,2
70,122,379,856,2
676,141,1023,1023,2
276,31,525,513,2
242,7,418,794,2
325,218,477,13,2
236,263,293,305,2
55,59,713,353,2
18,27,771,264,2
227,39,640,1011,2
163,283,78,8,2
146,54,1023,1023,2
194,298,240,104,2
602,460,583,1023,2
643,414,347,561,2
39,112,1023,1023,2
397,227,41,274,2
193,100,820,1023,2
560,394,223,340,2
203,205,368,500,2
241,211,338,296,2
123,157,331,69,2
389,289,300,43,2
308,306,383,212,2
21,185,499,629,2
316,221,72,64,2
17,22,40,11,2
210,123,264,14,2
1,40,246,29,2
12,156,656,584,2
260,129,202,87,2
37,87,415,294,2
122,270,128,255,2
229,165,546,791,2
30,55,343,170,2
201,263,101,98,2
58,298,8,135,2
233,156,212,320,2
206,131,361,272,2
267,221,267,315,2
66,141,182,38,2
210,137,644,720,2
305,80,601,737,2
117,129,94,0,2
41,41,243,163,2
16,138,890,860,2
270,95,89,72,2
133,212,408,192,2
103,40,712,1023,2
645,414,529,856,2
185,422,421,526,2
328,187,295,279,2
128,149,141,44,2
55,111,539,705,2
208,247,351,250,2
96,307,574,454,2
175,339,460,184,2
211,141,592,572,2
53,151,363,33,2
76,91,117,349,2
60,138,358,511,2
141,309,68,76,2
270,139,15,55,2
307,253,133,54,2
325,135,79,152,2
212,155,533,490,2
523,292,97,406,2
65,177,314,520,2
581,198,186,137,2
250,226,94,119,2
513,186,175,108,2
220,87,551,665,2
145,235,41,180,2
18,308,121,79,2
8,103,74,0,2
280,78,31,0,2
212,33,240,270,2
136,243,171,310,2
115,199,55,68,2
57,78,225,206,2
250,55,179,287,2
65,63,314,382,2
174,41,308,433,2
339,198,98,260,2
306,275,169,396,2
31,182,144,135,2
167,99,87,197,2
173,103,250,99,2
60,101,216,195,2
8,130,147,279,2
11,150,402,413,2
282,186,165,323,2
67,105,72,94,2
298,244,167,150,2
120,205,188,280,2
39,280,60,7,2
167,95,220,170,2
25,73,212,492,2
40,178,91,31,2
99,370,415,917,2
82,314,331,138,2
75,101,55,100,2
141,265,198,253,2
208,31,145,94,2
159,95,21,14,2
284,322,40,67,2
28,38,176,415,2
334,373,305,441,2
353,173,213,216,2
222,414,385,443,2
116,71,8,73,2
194,40,36,57,2
210,214,458,375,2
91,31,233,504,2
237,344,147,3,2
15,75,37,83,2
47,23,87,4,2
227,71,120,101,2
166,72,349,482,2
27,73,107,63,2
51,27,212,200,2
129,20,11,4,2
153,183,7,14,2
70,147,228,258,2
18,27,278,8,2
49,66,277,515,2
416,188,360,368,2
217,95,137,278,2
31,10,160,361,2
206,219,165,247,2
124,184,167,65,2
40,227,600,699,2
281,433,258,416,2
264,525,617,628,2
320,288,79,120,2
124,360,538,693,2
386,23,399,678,2
460,198,170,75,2
16,31,262,244,2
225,228,61,107,2
36,108,191,213,2
123,261,52,279,2
98,127,525,307,2
9,116,215,187,2
84,14,353,541,2
10,281,488,446,2
3,306,665,830,2
408,481,351,440,2
18,148,300,299,2
153,157,344,533,2
197,195,201,67,2
17,176,430,444,2
0,202,334,137,2
139,304,175,127,2
36,16,35,152,2
150,54,532,504,2
556,302,651,723,2
181,80,2,0,2
26,151,7,75,2
128,26,156,178,2
3,82,16,3,2
234,94,583,535,2
143,216,25,43,2
121,45,634,445,2
3,51,73,43,2
147,210,304,391,2
150,65,188,34,2
9,16,58,170,2
345,332,208,240,2
187,286,210,92,2
68,41,39,88,2
36,112,372,208,2
87,13,456,379,2
134,253,99,151,2
21,9,5,112,2
38,64,237,388,2
204,153,343,203,2
128,110,103,145,2
36,46,432,431,2
121,83,248,185,2
79,165,77,83,2
0,156,320,376,2
187,143,369,315,2
256,72,2,77,2
58,87,211,86,2
276,33,101,109,2
94,222,13,63,2
37,74,29,0,2
281,316,219,257,2
11,9,219,218,2
24,61,273,249,2
94,69,87,17,2
117,55,70,0,2
127,123,28,34,2
13,32,139,226,2
44,237,333,427,2
65,151,6,37,2
93,43,375,497,2
19,69,169,138,2
133,89,70,92,2
67,41,241,223,2
108,42,582,482,2
199,185,57,34,2
51,194,488,471,2
113,24,109,22,2
110,137,39,171,2
110,110,178,75,2
345,37,262,237,2
36,188,115,86,2
188,193,100,107,2
120,288,256,317,2
112,287,2,103,2
128,189,70,73,2
139,406,16,24,2
77,143,203,215,2
94,187,357,300,2
193,143,58,69,2
48,64,236,140,2
144,129,127,74,2
30,36,136,121,2
246,359,193,289,2
181,343,322,352,2
515,493,267,266,2
118,114,46,176,2
401,308,71,18,2
116,291,154,135,2
116,8,18,3,2
57,111,7,10,2
23,156,136,169,2
135,185,18,21,2
55,126,59,0,2
256,171,75,144,2
107,198,74,90,2
123,60,115,147,2
118,137,28,81,2
50,103,276,248,2
163,7,76,12,2
237,171,187,177,2
15,43,81,7,2
116,84,102,53,2
179,89,54,114,2
14,68,5,27,2
56,52,36,13,2
135,31,219,243,2
42,7,17,68,2
120,33,181,145,2
4,42,65,73,2
91,79,82,50,2
29,29,56,101,2
130,121,11,21,2
72,228,59,95,2
67,71,62,99,2
89,27,37,49,2
14,263,70,85,2
262,334,20,58,2
144,54,123,149,2
16,89,2,18,2
64,15,7,27,2
29,22,27,94,2
32,66,76,111,2
23,116,136,143,2
40,81,60,115,2
39,76,3,73,2
18,162,35,44,2
34,46,23,30,2
3,125,112,121,2
47,177,83,100,2
37,48,52,11,2
162,19,93,108,2
134,114,21,20,2
8,111,107,117,2
177,149,70,90,2
58,108,34,41,2
102,11,67,93,2
38,115,32,57,2
18,121,116,137,2
143,259,63,110,2
27,22,13,40,2
0,134,66,84,2
66,88,3,12,2
21,75,31,86,2
12,79,93,118,2
51,137,77,0,2
102,200,119,124,2
49,51,45,52,2
228,79,151,156,2
6,117,50,56,2
49,22,30,5,2
28,133,112,132,2
173,156,32,8,2
128,35,40,107,2
174,93,39,75,2
151,218,65,0,2
31,213,143,143,2
235,90,87,95,2
5,69,210,157,2
154,25,64,78,2
48,104,96,47,2
55,144,56,87,2
41,24,2,0,2
33,94,37,76,2
302,276,94,93,2
220,315,72,33,2
22,178,124,136,2
161,129,80,112,2
36,165,120,150,2
84,190,60,74,2
19,31,28,1,2
116,179,95,85,2
67,86,25,23,2
105,35,99,128,2
144,97,71,87,2
1,86,17,9,2
51,15,80,98,2
25,91,39,67,2
27,109,134,159,2
4,191,91,94,2
59,118,16,13,2
130,254,99,117,2
100,70,61,101,2
24,52,103,104,2
137,87,71,110,2
140,126,65,33,2
133,11,95,119,2
73,37,11,74,2
16,217,91,94,2
22,48,67,88,2
37,86,45,39,2
0,176,94,90,2
9,17,18,22,2
51,165,91,111,2
123,32,76,86,2
96,141,3,27,2
68,25,63,98,2
6,9,20,52,2
79,73,100,98,2
98,15,80,146,2
138,92,17,7,2
251,95,227,195,2
38,31,22,49,2
123,209,255,250,2
241,97,4,61,2
229,271,141,79,2
168,18,55,77,2
142,175,23,6,2
65,44,61,125,2
75,9,75,97,2
165,200,3,6,2
36,137,132,184,2
175,170,12,60,2
210,307,139,157,2
56,163,101,93,2
38,20,134,130,2
60,233,88,62,2
10,86,55,9,2
87,215,33,113,2
9,97,81,65,2
85,115,80,42,2
96,215,261,203,2
5,17,18,20,2
29,99,300,297,2
18,49,64,153,2
134,211,125,132,2
16,89,174,202,2
206,200,5,0,2
15,95,181,212,2
64,60,16,59,2
43,70,61,19,2
15,9,157,119,2
243,312,107,27,2
223,294,91,31,2
94,90,28,93,2
3,80,104,63,2
198,119,205,241,2
306,308,30,10,2
0,129,327,383,2
209,186,153,118,2
180,89,52,158,2
135,61,8,14,2
94,71,52,0,2
113,41,209,180,2
131,66,28,121,2
3,29,32,0,2
95,11,99,120,2
102,114,119,126,2
106,229,141,192,2
61,121,243,210,2
105,222,145,133,2
194,402,453,389,2
81,106,138,4,2
90,172,536,439,2
94,56,84,7,2
12,116,178,219,2
176,110,28,85,2
1,100,170,19,2
101,126,14,9,2
79,32,88,63,2
31,116,323,301,2
121,219,565,343,2
318,121,226,222,2
96,219,886,538,2
86,16,121,16,2
66,38,705,580,2
429,288,157,49,2
242,434,274,233,2
126,217,64,53,2
230,206,357,113,2
365,173,49,83,2
86,49,82,18,2
291,330,9,47,2
396,469,188,209,2
199,58,393,398,2
186,155,318,316,2
92,125,148,298,2
151,61,514,508,2
270,280,73,58,2
23,175,360,329,2
175,50,276,279,2
1,39,299,188,2
9,10,457,559,2
232,157,307,182,2
128,10,357,356,2
132,259,91,49,2
55,78,37,64,2
180,290,111,26,2
126,61,336,187,2
36,102,227,71,2
348,217,132,3,2
273,254,227,0,2
225,160,444,316,2
104,178,305,92,2
319,135,482,441,2
11,22,29,80,2
215,108,473,613,2
92,169,14,2,2
413,246,737,735,2
209,30,58,31,2
54,38,530,526,2
288,59,123,273,2
224,101,492,363,2
454,57,35,198,2
2,168,99,32,2
333,299,131,151,2
458,221,344,217,2
49,7,137,35,2
202,46,238,140,2
291,227,61,26,2
232,161,278,63,2
176,115,88,60,2
95,126,162,175,2
258,360,298,206,2
82,16,476,459,2
165,41,215,173,2
148,137,546,411,2
133,176,499,310,2
312,139,177,102,2
143,112,173,283,2
309,81,8,148,2
77,57,390,489,2
211,369,30,125,2
411,6,365,293,2
504,359,225,78,2
52,63,75,103,2
28,107,128,73,2
161,88,299,176,2
243,441,100,51,2
167,188,515,576,2
131,39,51,133,2
239,11,737,641,2
22,31,35,34,2
239,40,302,430,2
202,91,65,104,2
478,344,124,358,2
179,230,102,45,2
154,114,232,289,2
370,354,29,119,2
42,135,149,57,2
210,264,291,53,2
87,294,193,81,2
488,187,184,79,2
562,459,103,97,2
155,137,113,84,2
16,163,197,33,2
3,301,43,81,2
74,237,192,27,2
323,214,169,0,2
136,33,476,390,2
71,317,201,93,2
292,156,476,418,2
311,421,300,255,2
16,113,345,152,2
10,182,172,127,2
134,82,10,298,2
130,151,246,174,2
211,175,167,206,2
308,275,50,308,2
255,329,130,105,2
109,34,525,423,2
60,72,296,286,2
113,26,1023,1017,2
315,343,233,300,2
19,135,297,208,2
157,18,165,155,2
163,74,292,6,2
388,393,387,182,2
161,54,225,0,2
4,112,383,270,2
345,105,143,88,2
396,85,258,681,2
15,147,362,55,2
120,129,910,464,2
68,272,260,320,2
57,8,507,514,2
82,12,74,9,2
66,47,428,524,2
1,98,79,374,2
228,88,55,25,2
124,152,718,879,2
375,135,157,381,2
14,87,315,733,2
333,271,46,204,2
66,22,123,194,2
459,382,124,96,2
151,65,181,244,2
26,38,476,581,2
144,15,313,266,2
105,38,70,122,2
48,187,74,25,2
353,193,696,761,2
181,132,303,348,2
40,166,464,873,2
535,182,794,1023,2
7,13,10,270,2
540,316,556,1023,2
231,253,47,113,2
205,65,144,235,2
377,255,411,414,2
154,74,500,149,2
263,342,132,23,2
184,148,308,471,2
15,120,110,32,2
148,267,63,231,2
107,197,622,732,2
311,38,53,389,2
54,71,264,599,2
702,521,32,534,2
91,29,70,86,2
321,242,324,146,2
34,8,271,146,2
98,52,343,543,2
30,39,100,130,2
217,38,507,725,2
7,130,240,32,2
178,28,116,96,2
168,144,16,212,2
339,105,272,230,2
69,264,265,4,2
172,78,236,79,2
102,180,688,429,2
191,157,908,520,2
277,144,83,159,2
267,37,335,401,2
223,179,195,30,2
235,448,112,186,2
194,408,542,385,2
173,383,197,355,2
115,62,122,44,2
42,96,680,847,2
5,199,452,841,2
26,120,555,365,2
314,280,278,67,2
7,21,410,409,2
111,65,109,426,2
412,343,598,823,2
409,134,114,430,2
93,114,235,178,2
58,234,110,83,2
18,293,183,165,2
21,319,396,385,2
30,47,133,227,2
15,60,358,91,2
378,59,125,517,2
264,27,1012,709,2
82,134,83,194,2
118,260,669,530,2
13,146,53,221,2
191,122,281,660,2
281,27,631,822,2
174,141,960,953,2
563,241,807,1023,2
214,36,20,192,2
253,30,179,484,2
287,85,68,172,2
107,90,315,489,2
199,361,124,3,2
82,47,657,714,2
75,119,175,304,2
244,139,451,202,2
186,95,444,630,2
125,16,244,462,2
308,177,922,1023,2
58,284,227,353,2
196,59,527,852,2
272,439,118,253,2
268,14,442,177,2
97,222,1012,667,2
147,117,626,383,2
290,165,299,99,2
234,37,738,969,2
215,34,1010,482,2
277,310,5,43,2
251,148,316,537,2
239,142,354,123,2
67,162,279,551,2
16,75,14,20,2
187,239,224,24,2
187,114,713,805,2
282,69,788,924,2
60,52,331,30,2
15,35,59,34,2
203,398,389,125,2
16,147,208,121,2
157,276,759,569,2
556,448,35,406,2
676,667,292,138,2
115,278,145,61,2
5,123,88,495,2
27,18,355,639,2
189,257,187,119,2
125,101,623,770,2
273,343,169,216,2
209,90,198,76,2
110,128,346,406,2
304,275,183,200,2
20,20,338,329,2
272,41,480,536,2
83,237,492,708,2
66,94,188,353,2
266,763,466,650,2
134,427,73,123,2
115,323,327,208,2
179,81,323,300,2
84,129,501,692,2
168,58,16,191,2
183,172,296,62,2
4,265,18,22,2
17,247,405,429,2
304,375,415,403,2
109,405,131,295,2
302,53,370,378,2
124,236,781,808,2
33,34,198,71,2
477,392,18,68,2
27,21,24,0,2
128,127,445,559,2
143,198,76,445,2
59,13,208,605,2
39,58,490,138,2
7,71,39,124,2
19,86,451,167,2
127,199,744,288,2
218,213,217,101,2
353,391,547,88,2
118,359,20,33,2
170,88,630,495,2
47,259,152,230,2
172,120,290,184,2
103,33,559,612,2
81,67,200,272,2
283,202,150,201,2
182,196,448,217,2
44,22,98,216,2
209,45,304,285,2
143,51,261,476,2
40,105,285,414,2
73,126,561,523,2
67,28,601,425,2
107,19,185,187,2
273,203,444,489,2
214,43,407,398,2
110,47,14,0,2
156,45,436,309,2
195,267,25,78,2
37,346,313,131,2
30,167,25,59,2
17,147,215,232,2
285,41,457,160,2
7,102,707,432,2
214,176,206,232,2
30,58,303,146,2
65,29,375,312,2
85,28,121,107,2
146,165,189,264,2
125,116,315,242,2
93,173,141,29,2
181,72,330,388,2
59,59,73,65,2
42,7,223,349,2
274,431,47,0,2
40,61,324,198,2
139,360,340,89,2
279,329,633,417,2
87,17,181,456,2
14,203,454,614,2
68,105,507,534,2
70,95,19,199,2
53,57,27,52,2
26,17,289,221,2
20,66,109,97,2
35,83,52,56,2
198,184,9,49,2
145,94,490,465,2
278,259,147,211,2
325,11,91,28,2
178,193,96,38,2
255,37,284,119,2
10,106,29,22,2
331,290,77,107,2
43,242,144,129,2
363,336,423,395,2
190,203,396,642,2
196,15,619,460,2
140,167,327,131,2
367,33,360,537,2
672,449,110,215,2
69,94,298,142,2
30,114,20,20,2
182,82,228,279,2
66,97,259,188,2
157,72,66,366,2
74,119,94,7,2
90,263,217,283,2
39,18,81,74,2
45,106,202,187,2
252,105,94,21,2
51,85,450,449,2
28,71,286,126,2
12,107,644,567,2
47,189,214,301,2
9,38,566,344,2
65,55,271,192,2
18,37,249,192,2
67,83,116,23,2
107,53,91,179,2
136,50,612,651,2
28,164,94,258,2
206,20,579,799,2
187,59,31,105,2
321,180,217,356,2
95,21,473,479,2
244,7,188,256,2
36,125,131,282,2
53,113,204,336,2
82,173,128,20,2
16,25,187,255,2
15,213,246,277,2
164,72,153,287,2
7,18,102,166,2
181,243,52,81,2
285,272,232,207,2
45,325,139,13,2
120,170,552,435,2
8,112,10,134,2
303,15,490,579,2
113,19,166,193,2
75,182,68,179,2
49,113,216,309,2
30,17,146,114,2
44,149,314,323,2
86,19,139,68,2
83,17,23,0,2
87,54,181,75,2
115,92,59,0,2
107,135,61,66,2
43,12,19,0,2
39,158,198,155,2
7,121,295,163,2
24,37,97,134,2
219,79,144,240,2
151,55,32,0,2
161,106,110,39,2
4,90,147,178,2
35,23,18,15,2
290,136,324,307,2
329,161,205,227,2
117,195,149,165,2
105,126,387,392,2
55,63,123,11,2
234,65,410,419,2
103,87,118,63,2
31,38,501,431,2
31,247,108,45,2
98,69,49,83,2
3,129,248,213,2
78,27,53,49,2
51,94,170,191,2
126,97,209,102,2
138,78,88,68,2
87,9,146,139,2
148,13,135,112,2
133,88,25,82,2
0,191,107,118,2
288,373,78,139,2
67,221,108,159,2
152,27,127,199,2
77,68,146,201,2
62,76,64,94,2
24,17,174,156,2
169,15,47,93,2
72,49,85,59,2
0,33,59,28,2
128,313,38,42,2
71,92,25,0,2
11,124,43,57,2
81,80,163,79,2
113,221,86,20,2
95,44,79,29,2
135,219,105,18,2
79,85,44,55,2
50,26,23,43,2
47,139,67,51,2
16,182,65,80,2
25,49,2,0,2
156,12,91,90,2
296,186,68,71,2
183,291,46,102,2
40,96,16,55,2
360,327,21,22,2
134,69,119,200,2
447,360,44,68,2
370,488,61,66,2
119,13,37,101,2
158,156,7,4,2
52,72,100,138,2
111,24,148,159,2
6,133,78,85,2
126,13,2,34,2
42,21,25,0,2
212,25,3,68,2
43,172,132,75,2
114,8,41,39,2
90,273,143,162,2
23,25,19,9,2
75,156,81,146,2
41,101,53,90,2
52,36,61,81,2
2,130,94,76,2
4,45,23,7,2
31,198,116,167,2
13,93,18,65,2
96,260,23,24,2
16,163,209,214,2
142,174,21,0,2
20,229,209,225,2
8,90,49,0,2
2,96,58,82,2
136,29,66,60,2
218,183,73,87,2
114,333,163,182,2
140,302,111,92,2
62,174,149,141,2
105,297,2,56,2
207,202,21,0,2
2,261,115,97,2
168,41,84,102,2
32,146,62,69,2
0,177,69,96,2
46,12,40,39,2
182,54,122,188,2
6,217,70,115,2
25,76,45,43,2
104,51,89,93,2
230,188,3,1,2
106,132,122,128,2
265,90,118,120,2
214,344,118,118,2
125,168,97,117,2
55,25,126,36,2
102,107,51,114,2
221,91,70,41,2
63,145,12,0,2
195,42,111,123,2
17,12,64,20,2
95,146,12,90,2
32,177,99,104,2
106,226,10,21,2
124,323,160,88,2
109,68,4,0,2
56,275,70,117,2
81,69,161,174,2
9,89,6,0,2
1,169,183,180,2
53,87,104,23,2
11,204,108,124,2
25,122,164,103,2
37,82,64,29,2
16,159,281,227,2
34,150,89,126,2
114,42,260,263,2
58,70,222,193,2
64,26,165,147,2
152,43,72,67,2
83,97,22,21,2
62,163,5,29,2
4,153,160,182,2
105,197,37,22,2
183,5,95,101,2
159,50,108,98,2
11,247,13,67,2
148,34,106,141,2
108,208,20,26,2
17,175,210,245,2
317,238,103,79,2
145,266,298,364,2
53,39,260,318,2
40,113,382,295,2
11,165,156,204,2
103,141,380,333,2
114,102,52,165,2
145,37,3,6,2
77,96,101,10,2
57,144,128,107,2
66,39,169,163,2
5,169,56,7,2
165,12,377,362,2
60,81,83,61,2
22,231,347,336,2
92,10,60,52,2
33,173,87,143,2
105,24,4,24,2
183,274,154,133,2
152,371,235,215,2
128,29,46,77,2
83,333,270,301,2
229,56,66,12,2
122,227,370,254,2
149,22,81,150,2
179,108,5,85,2
18,145,20,78,2
69,62,13,4,2
81,92,352,210,2
150,236,150,35,2
42,50,361,368,2
234,504,329,195,2
375,189,125,213,2
355,406,156,46,2
30,138,53,85,2
413,415,19,59,2
147,15,139,192,2
202,52,18,75,2
52,6,94,9,2
44,179,202,210,2
4,17,52,13,2
176,347,344,333,2
205,98,56,0,2
19,182,41,45,2
167,111,144,105,2
83,90,255,122,2
118,203,472,462,2
89,65,436,350,2
195,272,444,260,2
66,136,363,396,2
154,273,441,314,2
127,272,13,279,2
284,75,143,115,2
109,85,168,42,2
211,8,13,85,2
75,52,25,134,2
172,305,68,154,2
61,140,269,114,2
91,169,41,112,2
124,45,772,657,2
50,359,320,260,2
233,43,681,457,2
89,115,312,329,2
145,82,442,381,2
85,129,197,239,2
229,59,618,660,2
666,383,531,543,2
118,156,130,230,2
956,489,295,334,2
362,299,47,269,2
322,161,100,271,2
208,451,559,545,2
341,118,337,454,2
33,37,500,574,2
417,147,375,503,2
186,356,70,230,2
116,24,58,173,2
55,111,31,96,2
113,44,242,239,2
112,183,116,97,2
159,41,384,266,2
46,44,161,259,2
199,336,131,208,2
260,281,242,272,2
210,177,246,299,2
26,138,101,107,2
57,47,423,247,2
42,130,89,252,2
699,404,323,206,2
326,331,371,196,2
141,375,174,0,2
68,199,432,335,2
132,127,429,334,2
53,101,2,191,2
277,209,211,282,2
266,93,86,11,2
64,67,200,55,2
255,46,485,451,2
11,107,674,331,2
447,286,532,783,2
587,458,793,296,2
41,267,349,431,2
108,37,502,274,2
343,157,524,380,2
311,385,151,153,2
486,474,53,0,2
334,37,356,296,2
19,274,129,60,2
84,99,441,60,2
98,39,128,17,2
8,228,242,157,2
202,229,16,444,2
109,393,297,149,2
252,27,103,242,2
550,196,324,575,2
289,349,46,24,2
140,465,128,320,2
170,43,38,43,2
163,99,223,119,2
164,44,299,249,2
334,115,144,0,2
181,302,339,127,2
159,197,194,245,2
27,91,98,260,2
13,109,299,211,2
74,43,306,563,2
437,440,102,454,2
163,281,205,308,2
209,212,33,174,2
224,176,718,714,2
441,547,444,462,2
68,279,170,169,2
158,86,58,159,2
513,478,169,55,2
246,327,49,64,2
5,118,523,496,2
23,165,377,517,2
27,45,113,205,2
218,257,67,86,2
259,319,248,299,2
46,284,243,759,2
742,455,87,103,2
172,376,270,397,2
127,26,117,51,2
379,36,130,235,2
18,100,219,55,2
137,46,247,355,2
219,243,279,41,2
35,11,131,50,2
106,20,30,165,2
98,59,712,527,2
278,476,470,536,2
60,120,206,40,2
511,321,153,36,2
378,314,305,37,2
198,88,574,173,2
101,47,60,37,2
156,117,209,134,2
274,112,23,123,2
180,216,477,373,2
293,178,696,644,2
210,459,210,50,2
157,64,418,495,2
112,42,47,52,2
53,13,734,921,2
69,61,937,796,2
360,638,502,521,2
350,14,305,378,2
257,81,358,54,2
50,98,72,166,2
230,298,87,41,2
340,272,222,97,2
161,166,159,131,2
106,31,332,165,2
149,221,30,69,2
265,199,4,2,2
381,13,138,173,2
221,26,299,152,2
45,117,561,668,2
62,223,564,860,2
347,102,225,417,2
297,51,480,780,2
120,176,12,234,2
166,359,285,896,2
139,28,211,73,2
402,418,251,144,2
112,207,430,536,2
657,530,607,555,2
403,376,620,639,2
274,188,65,69,2
62,90,670,970,2
23,47,218,412,2
5,72,116,324,2
441,328,457,236,2
194,416,62,220,2
220,70,515,384,2
463,196,666,828,2
354,199,743,748,2
407,254,55,325,2
147,23,463,631,2
207,198,321,307,2
122,58,255,661,2
11,326,769,1023,2
470,179,267,423,2
256,30,275,255,2
121,169,187,5,2
74,305,272,435,2
203,17,10,303,2
204,271,330,297,2
95,188,927,1023,2
224,221,416,185,2
131,158,148,428,2
150,46,538,719,2
6,159,2,278,2
407,107,211,1023,2
604,390,331,392,2
143,372,378,464,2
439,273,77,195,2
186,148,657,1023,2
123,18,167,403,2
123,222,70,81,2
135,218,270,381,2
215,327,568,808,2
11,158,177,96,2
41,174,460,482,2
58,150,316,300,2
3,78,88,99,2
10,156,120,245,2
50,233,322,153,2
26,201,134,77,2
118,165,37,73,2
6,71,210,18,2
344,448,111,140,2
37,129,335,323,2
16,101,147,229,2
72,242,110,182,2
302,222,208,132,2
23,93,241,192,2
25,82,708,563,2
79,140,1023,1023,2
427,285,1023,1023,2
380,635,925,619,2
51,311,345,536,2
207,283,421,690,2
93,240,151,69,2
241,245,45,112,2
224,269,157,4,2
136,226,308,449,2
284,156,8,0,2
133,120,226,76,2
127,100,149,90,2
28,34,363,131,2
9,171,243,305,2
178,255,441,419,2
106,58,445,280,2
92,232,410,440,2
87,19,67,110,2
267,304,22,134,2
236,245,83,49,2
35,13,289,106,2
87,58,241,203,2
10,115,35,191,2
59,306,427,347,2
53,63,189,12,2
205,79,4,120,2
36,179,442,175,2
382,207,485,278,2
157,51,85,190,2
387,107,195,446,2
107,370,296,595,2
115,172,442,0,2
29,103,283,695,2
16,50,375,165,2
102,37,41,29,2
280,340,334,351,2
129,89,427,357,2
235,549,414,292,2
76,55,481,374,2
17,286,534,345,2
230,108,351,529,2
247,366,441,387,2
4,336,6,112,2
123,119,18,70,2
93,127,626,777,2
227,23,44,85,2
99,165,244,180,2
19,204,395,394,2
565,358,56,42,2
6,87,546,691,2
290,43,272,421,2
23,24,42,130,2
191,88,215,182,2
228,100,187,92,2
232,162,108,120,2
38,151,225,468,2
185,53,31,127,2
117,367,414,557,2
277,205,211,37,2
378,238,431,136,2
521,314,6,82,2
78,33,531,604,2
142,291,91,65,2
78,86,398,718,2
84,95,101,341,2
372,5,281,1023,2
381,226,23,56,2
244,45,351,559,2
80,95,338,211,2
79,37,169,159,2
115,254,345,612,2
179,127,159,104,2
140,85,88,171,2
15,18,335,493,2
197,131,390,476,2
259,60,177,39,2
17,121,596,413,2
46,276,179,258,2
429,215,363,324,2
330,298,265,259,2
292,19,64,337,2
4,80,4,35,2
128,215,91,45,2
197,61,289,400,2
12,87,29,0,2
333,193,12,173,2
115,45,232,89,2
235,49,104,140,2
79,206,144,0,2
123,43,294,161,2
54,115,194,92,2
64,113,184,143,2
86,300,311,382,2
178,110,385,486,2
10,58,243,171,2
107,155,122,245,2
29,84,78,180,2
59,321,146,248,2
35,213,196,89,2
225,68,159,61,2
151,83,342,214,2
45,52,419,222,2
124,254,220,246,2
69,12,65,14,2
264,344,303,268,2
31,189,28,61,2
147,131,170,361,2
212,267,247,124,2
304,103,31,221,2
184,81,120,139,2
318,234,64,152,2
270,224,23,6,2
14,133,116,2,2
156,140,89,233,2
142,152,14,108,2
248,154,8,115,2
90,100,19,237,2
168,88,318,310,2
142,78,283,63,2
26,111,142,10,2
64,229,201,258,2
472,374,144,0,2
32,472,259,280,2
224,103,138,64,2
12,68,368,298,2
43,105,320,217,2
91,86,274,313,2
48,79,74,153,2
19,31,62,18,2
90,228,97,117,2
42,360,62,232,2
32,32,20,152,2
301,62,148,275,2
39,100,112,16,2
134,33,344,331,2
173,109,147,313,2
138,12,200,104,2
172,27,231,37,2
109,19,125,180,2
109,114,329,476,2
287,525,388,291,2
28,41,755,614,2
409,576,209,190,2
38,236,164,184,2
219,216,151,169,2
85,31,273,265,2
133,10,447,375,2
196,231,287,253,2
11,221,461,414,2
134,187,8,20,2
35,63,288,326,2
26,13,60,3,2
115,29,9,226,2
18,119,230,160,2
37,23,160,1,2
110,146,120,82,2
36,93,473,447,2
13,175,165,238,2
211,67,82,109,2
176,394,100,154,2
264,16,90,51,2
87,80,302,405,2
66,18,34,18,2
124,134,202,304,2
10,106,58,9,2
129,103,208,199,2
94,100,51,71,2
99,90,202,229,2
43,94,118,73,2
129,148,85,0,2
149,22,59,9,2
124,62,217,122,2
103,16,6,5,2
67,80,341,373,2
76,147,95,113,2
52,245,379,460,2
66,14,70,0,2
52,61,156,172,2
77,45,52,50,2
274,222,69,54,2
288,103,105,91,2
10,50,6,82,2
108,258,74,66,2
94,244,27,116,2
111,159,134,78,2
140,5,6,19,2
62,52,59,22,2
31,18,92,0,2
29,88,17,73,2
92,239,55,8,2
98,83,7,127,2
301,170,78,34,2
16,63,57,0,2
234,173,134,72,2
3,7,35,34,2
32,89,49,50,2
84,181,102,131,2
41,154,24,53,2
15,91,205,205,2
150,225,24,15,2
182,438,202,212,2
25,197,70,10,2
223,326,52,70,2
91,241,64,51,2
35,125,26,11,2
1,145,98,145,2
71,132,72,84,2
134,152,65,83,2
7,155,35,35,2
43,16,13,16,2
76,62,75,133,2
73,15,77,47,2
7,64,30,51,2
109,60,34,54,2
31,46,8,9,2
86,78,95,90,2
50,90,27,57,2
135,190,39,59,2
135,298,13,41,2
129,146,15,0,2
27,235,65,152,2
100,11,65,63,2
5,81,58,63,2
71,74,36,95,2
88,136,28,0,2
187,412,64,100,2
43,73,36,60,2
163,270,47,63,2
127,209,32,67,2
63,87,5,1,2
118,301,77,111,2
16,229,24,23,2
28,78,46,82,2
36,184,82,132,2
28,57,37,3,2
209,6,91,118,2
4,95,18,40,2
189,85,59,77,2
100,76,43,50,2
22,47,50,5,2
15,162,57,138,2
33,42,37,55,2
63,196,44,72,2
127,245,66,81,2
0,15,20,0,2
64,70,65,118,2
35,109,41,65,2
36,85,78,93,2
81,119,13,30,2
11,172,90,37,2
7,266,120,197,2
81,16,139,148,2
78,265,217,173,2
49,105,39,47,2
180,193,54,42,2
217,81,15,65,2
89,20,67,57,2
86,10,36,6,2
138,50,92,46,2
74,68,85,86,2
330,268,388,298,2
95,22,5,24,2
171,20,328,263,2
120,31,109,0,2
45,10,49,65,2
176,14,87,105,2
104,72,199,136,2
105,16,40,30,2
175,17,210,161,2
10,12,30,28,2
18,230,122,170,2
102,47,39,9,2
88,10,183,58,2
72,217,254,189,2
40,51,251,171,2
77,253,497,374,2
42,22,43,86,2
41,53,310,260,2
24,41,264,47,2
217,184,63,27,2
346,198,14,0,2
143,36,46,27,2
14,48,83,7,2
52,62,289,110,2
44,14,115,147,2
118,63,22,174,2
17,107,223,197,2
45,49,92,164,2
172,38,85,117,2
33,47,83,119,2
68,146,93,85,2
94,258,48,4,2
107,206,69,122,2
150,199,11,86,2
161,202,41,161,2
21,224,7,67,2
122,6,76,132,2
21,84,89,166,2
242,28,22,31,2
4,34,37,117,2
106,125,2,78,2
33,144,69,152,2
154,17,99,208,2
324,206,347,275,2
56,181,69,40,2
83,270,364,358,2
3,27,83,46,2
129,37,314,214,2
107,19,176,0,2
225,39,355,297,2
5,183,400,211,2
203,158,206,314,2
114,44,211,152,2
40,96,144,298,2
271,90,190,67,2
53,325,102,5,2
9,51,75,129,2
194,286,94,67,2
18,21,294,280,2
71,67,196,200,2
33,33,536,375,2
127,75,259,229,2
94,93,311,295,2
70,83,301,273,2
218,194,297,327,2
80,107,225,118,2
32,107,136,184,2
42,194,56,79,2
52,166,195,140,2
41,66,160,156,2
300,18,132,1,2
127,67,309,389,2
242,136,438,282,2
115,297,180,0,2
75,90,540,456,2
94,301,307,256,2
24,152,246,367,2
153,39,206,32,2
179,76,34,4,2
112,128,252,289,2
51,227,20,0,2
230,370,474,474,2
177,246,102,20,2
103,267,905,998,2
384,267,311,13,2
95,299,920,954,2
531,183,268,47,2
109,223,295,469,2
367,55,40,210,2
312,242,46,114,2
321,139,9,237,2
298,102,44,22,2
155,76,205,14,2
146,183,69,58,2
183,54,164,183,2
36,297,67,1,2
17,33,99,0,2
43,85,270,184,2
155,9,396,310,2
230,121,513,108,2
15,47,56,138,2
333,493,886,741,2
8,296,263,264,2
211,140,567,847,2
78,30,114,199,2
522,604,545,631,2
252,308,40,0,2
566,353,442,568,2
432,540,19,198,2
383,325,290,346,2
445,602,71,61,2
74,13,7,101,2
267,527,210,5,2
3,103,308,304,2
379,250,280,97,2
151,181,167,291,2
248,109,317,306,2
330,153,562,388,2
179,216,250,206,2
330,281,59,107,2
396,157,549,573,2
628,242,101,40,2
182,363,165,113,2
49,174,189,1,2
135,23,11,191,2
122,133,445,452,2
281,10,477,371,2
7,269,5,187,2
148,151,3,260,2
275,241,153,36,2
42,86,13,157,2
200,158,172,137,2
55,223,213,444,2
430,189,340,38,2
490,34,82,16,2
415,153,289,202,2
102,31,57,52,2
406,119,403,135,2
32,169,529,511,2
60,94,11,60,2
66,10,660,543,2
406,538,313,154,2
49,93,927,813,2
105,256,115,39,2
328,64,818,815,2
502,57,112,29,2
461,186,72,189,2
80,146,298,143,2
286,186,405,294,2
73,85,123,63,2
111,491,1023,1023,2
94,311,266,64,2
420,20,626,1023,2
569,205,351,213,2
340,288,475,751,2
465,482,5,230,2
347,120,680,871,2
337,62,252,1,2
457,450,431,456,2
212,27,386,333,2
29,317,694,305,2
28,77,440,351,2
178,93,251,160,2
133,224,267,210,2
300,493,359,243,2
51,100,440,150,2
46,213,114,13,2
54,126,695,206,2
179,139,31,145,2
226,383,714,366,2
311,41,476,376,2
202,323,352,468,2
79,24,546,490,2
96,171,919,1023,2
420,233,888,880,2
76,259,94,468,2
431,245,14,90,2
150,465,151,457,2
170,370,562,837,2
374,37,12,329,2
551,26,724,700,2
197,42,243,322,2
143,86,407,312,2
45,172,402,379,2
103,72,447,378,2
17,81,310,310,2
126,123,266,251,2
132,442,373,620,2
657,165,221,438,2
233,306,768,751,2
728,732,359,860,2
247,190,3,168,2
412,84,395,676,2
79,518,680,696,2
63,362,268,307,2
498,576,590,780,2
87,68,370,473,2
220,439,401,285,2
60,289,494,512,2
34,137,237,32,2
406,12,607,601,2
114,212,342,447,2
173,111,412,183,2
11,203,234,456,2
655,495,530,107,2
211,328,142,399,2
122,85,285,201,2
86,366,832,903,2
377,249,178,285,2
355,289,295,475,2
97,296,486,387,2
340,170,722,576,2
139,177,326,132,2
93,140,645,811,2
16,216,23,15,2
109,330,73,407,2
308,393,447,220,2
189,95,194,685,2
108,99,167,123,2
9,108,225,530,2
231,148,265,315,2
64,257,45,0,2
68,283,909,650,2
318,277,529,516,2
39,33,232,284,2
134,278,77,484,2
196,42,540,265,2
179,146,88,113,2
64,85,216,223,2
114,51,349,92,2
375,311,599,496,2
36,109,742,843,2
206,58,340,703,2
63,256,537,816,2
571,75,71,1023,2
640,314,130,19,2
48,124,779,56,2
173,81,160,115,2
187,293,728,560,2
68,182,358,660,2
745,110,370,47,2
15,227,227,259,2
235,142,112,175,2
206,29,901,1023,2
196,257,551,243,2
387,938,826,1023,2
370,101,272,100,2
219,126,46,359,2
23,42,815,942,2
361,251,415,700,2
12,10,429,186,2
11,158,353,664,2
180,171,718,456,2
213,336,33,189,2
250,119,396,342,2
273,121,85,307,2
123,225,51,14,2
202,51,527,932,2
205,454,760,850,2
245,391,134,305,2
42,28,516,957,2
50,150,69,529,2
185,83,227,215,2
24,207,346,181,2
174,124,15,224,2
63,9,110,196,2
32,51,16,154,2
18,30,379,303,2
44,145,665,855,2
109,163,52,321,2
157,194,408,364,2
113,81,210,486,2
41,298,411,77,2
93,28,688,717,2
218,219,226,442,2
51,9,318,261,2
426,410,89,115,2
142,51,276,493,2
88,8,341,365,2
163,270,466,966,2
90,157,316,1023,2
294,9,298,337,2
29,132,327,171,2
261,13,174,180,2
127,132,426,507,2
248,8,227,171,2
25,115,1023,949,2
43,15,1023,773,2
40,279,727,769,2
262,169,106,308,2
47,251,73,9,2
179,15,323,119,2
33,19,140,380,2
7,146,528,141,2
22,177,63,62,2
22,124,58,37,2
16,115,32,150,2
201,259,150,74,2
200,173,495,417,2
266,98,157,16,2
40,100,479,1023,2
638,304,534,280,2
410,510,223,1023,2
302,127,231,191,2
93,19,165,231,2
213,130,70,58,2
338,222,238,113,2
50,170,163,167,2
169,98,245,349,2
179,138,42,199,2
4,83,5,31,2
185,58,167,140,2
25,148,500,161,2
23,217,104,130,2
22,21,267,387,2
59,214,358,190,2
212,147,621,366,2
369,121,207,740,2
496,363,302,113,2
112,115,738,1023,2
442,296,306,28,2
173,44,243,528,2
275,163,129,122,2
267,423,222,359,2
235,196,66,752,2
487,837,352,402,2
200,41,619,687,2
611,691,190,69,2
390,588,341,58,2
103,99,129,25,2
330,112,579,327,2
219,69,503,392,2
46,19,156,212,2
105,74,354,400,2
148,220,50,111,2
142,45,506,333,2
207,97,213,182,2
51,190,217,183,2
70,74,274,279,2
47,58,191,110,2
36,88,455,606,2
223,11,449,136,2
211,335,293,154,2
22,215,164,161,2
202,215,80,21,2
63,321,214,345,2
559,539,302,9,2
103,262,155,0,2
202,187,118,185,2
18,77,330,335,2
334,366,179,107,2
186,310,71,310,2
16,94,381,347,2
82,165,35,179,2
91,304,368,306,2
8,76,103,36,2
5,89,117,47,2
286,316,126,171,2
295,207,54,51,2
84,8,43,389,2
4,205,174,118,2
72,156,347,327,2
277,97,142,268,2
122,11,19,133,2
44,153,37,166,2
165,38,214,243,2
140,215,745,574,2
35,208,300,218,2
87,203,442,512,2
171,404,171,227,2
225,89,18,38,2
1,119,142,210,2
280,166,251,333,2
135,28,61,166,2
143,122,169,244,2
118,219,97,241,2
14,126,273,410,2
550,480,256,262,2
280,388,8,70,2
118,46,387,365,2
43,210,646,442,2
87,63,254,267,2
206,162,391,346,2
54,104,189,245,2
56,123,257,353,2
186,460,245,321,2
50,246,32,169,2
49,159,92,80,2
180,398,490,572,2
124,305,135,221,2
229,231,436,631,2
137,269,129,59,2
261,386,43,41,2
41,246,107,215,2
41,11,102,74,2
97,310,242,186,2
174,322,134,121,2
141,134,312,172,2
201,374,398,417,2
124,166,74,201,2
184,317,260,254,2
52,74,31,44,2
23,97,282,159,2
240,286,19,180,2
35,170,219,213,2
412,490,277,198,2
136,22,238,199,2
92,251,495,475,2
258,66,247,30,2
86,148,384,281,2
161,37,30,191,2
207,121,234,294,2
136,282,78,129,2
153,122,6,56,2
73,125,154,54,2
40,97,102,18,2
135,53,13,59,2
58,182,62,104,2
160,25,63,0,2
65,112,129,43,2
38,51,274,239,2
108,113,112,6,2
39,120,34,70,2
79,74,16,120,2
14,92,78,32,2
15,25,57,1,2
120,167,3,18,2
14,55,216,73,2
148,154,181,50,2
6,81,107,6,2
37,153,73,142,2
114,64,9,208,2
97,54,38,89,2
149,85,136,129,2
2,26,19,80,2
3,51,76,44,2
22,159,118,115,2
110,154,47,0,2
47,129,163,125,2
39,97,45,5,2
185,104,8,32,2
36,203,144,103,2
29,18,66,0,2
101,17,320,296,2
37,36,103,114,2
82,327,155,167,2
164,68,18,19,2
78,163,35,74,2
49,75,16,34,2
54,49,241,235,2
237,468,222,293,2
75,117,195,213,2
92,140,211,240,2
152,28,277,287,2
107,52,103,115,2
199,62,185,242,2
83,23,170,54,2
73,69,221,186,2
190,39,353,213,2
108,88,8,66,2
22,87,61,111,2
162,321,62,37,2
9,6,62,55,2
14,139,245,240,2
62,109,102,91,2
20,241,185,194,2
66,191,132,103,2
85,56,71,100,2
37,79,25,21,2
38,129,3,1,2
152,114,161,149,2
136,48,122,18,2
92,123,32,4,2
82,86,79,32,2
104,6,145,97,2
23,133,149,102,2
50,218,165,201,2
175,190,319,232,2
70,277,54,135,2
72,58,365,270,2
230,364,26,59,2
73,227,54,0,2
45,64,170,139,2
87,214,164,215,2
4,66,79,155,2
194,385,141,149,2
91,77,59,43,2
71,40,43,67,2
74,13,16,25,2
31,8,79,84,2
63,238,145,183,2
0,33,14,81,2
74,153,143,85,2
201,53,83,14,2
136,75,3,10,2
106,226,2,71,2
72,98,72,82,2
120,199,101,40,2
12,120,39,41,2
0,34,47,23,2
58,79,69,35,2
87,21,101,98,2
22,15,5,11,2
151,11,81,104,2
18,15,72,0,2
14,81,53,61,2
154,76,2,6,2
173,147,1,0,2
35,142,48,55,2
70,10,28,55,2
193,275,85,125,2
90,10,15,17,2
6,28,54,0,2
42,102,132,132,2
90,109,33,38,2
33,184,81,78,2
120,19,77,74,2
111,209,71,49,2
118,43,223,193,2
197,131,22,83,2
27,90,175,155,2
158,44,25,0,2
138,127,22,0,2
89,57,57,70,2
119,207,33,0,2
19,77,4,64,2
65,99,187,89,2
58,65,151,113,2
158,52,171,144,2
2,61,271,107,2
47,183,32,51,2
67,95,3,0,2
44,36,6,0,2
241,439,206,170,2
143,141,87,26,2
39,261,35,80,2
26,142,7,0,2
128,193,15,9,2
90,54,71,103,2
5,18,65,93,2
112,208,202,178,2
3,139,3,15,2
83,102,98,57,2
55,75,52,56,2
49,35,31,55,2
30,41,152,117,2
52,64,99,122,2
101,137,108,55,2
84,7,4,78,2
14,113,13,23,2
169,285,131,94,2
120,255,10,33,2
53,65,11,36,2
205,380,24,52,2
7,79,141,125,2
5,135,42,6,2
23,76,160,149,2
60,122,123,56,2
76,71,235,204,2
220,177,306,159,2
16,162,17,28,2
61,129,208,127,2
140,40,344,256,2
3,200,191,189,2
104,8,349,278,2
153,204,222,256,2
182,57,281,253,2
88,84,153,147,2
212,59,128,117,2
153,48,22,0,2
11,31,112,0,2
221,81,95,42,2
170,72,51,2,2
29,107,189,192,2
74,31,148,83,2
246,139,148,206,2
93,72,15,5,2
211,262,207,196,2
152,95,191,97,2
52,89,41,82,2
72,9,12,50,2
71,31,168,143,2
71,31,30,144,2
46,194,588,577,2
26,212,200,315,2
86,105,557,665,2
230,64,317,103,2
9,80,340,310,2
174,27,62,19,2
11,97,32,12,2
110,67,103,20,2
178,31,55,28,2
226,286,302,92,2
49,115,46,156,2
280,528,138,85,2
6,17,39,118,2
23,115,35,0,2
376,472,126,180,2
366,623,177,163,2
116,84,66,155,2
501,709,166,265,2
254,323,387,487,2
174,311,223,338,2
7,62,69,39,2
45,60,210,179,2
4,177,314,365,2
259,124,275,97,2
244,47,51,81,2
351,481,267,123,2
198,112,184,203,2
346,177,86,178,2
143,20,53,43,2
244,238,322,190,2
90,236,205,51,2
90,102,258,186,2
96,81,103,127,2
696,607,382,303,2
373,226,44,54,2
418,512,491,259,2
54,76,511,373,2
101,331,393,256,2
268,509,307,255,2
101,92,28,177,2
3,233,843,773,2
39,191,272,89,2
416,13,812,875,2
22,172,201,121,2
299,234,314,330,2
424,431,227,221,2
178,114,444,347,2
349,496,368,300,2
124,265,101,124,2
176,247,125,136,2
144,633,564,440,2
358,158,93,132,2
144,231,13,235,2
603,91,152,253,2
73,194,124,163,2
136,436,46,11,2
152,223,357,407,2
26,15,627,578,2
44,19,122,51,2
119,268,382,63,2
222,215,223,423,2
79,43,567,405,2
372,214,277,591,2
138,204,565,581,2
175,180,367,475,2
7,57,641,651,2
609,397,264,16,2
114,117,218,93,2
159,98,324,336,2
163,187,144,150,2
153,344,184,137,2
82,251,203,388,2
53,323,26,197,2
347,291,167,235,2
40,65,193,124,2
105,270,295,100,2
231,146,146,40,2
323,18,267,407,2
250,65,380,195,2
483,301,426,0,2
335,156,93,75,2
478,464,152,185,2
64,236,314,362,2
133,295,85,42,2
82,204,72,46,2
49,10,409,223,2
196,162,198,339,2
301,334,733,522,2
191,47,435,592,2
182,46,836,772,2
531,797,626,348,2
73,234,696,853,2
9,115,85,29,2
444,384,717,757,2
413,335,277,236,2
128,171,461,480,2
418,247,460,651,2
296,155,79,199,2
286,184,544,516,2
539,365,88,205,2
10,424,637,728,2
308,142,170,83,2
179,156,273,436,2
87,88,794,889,2
520,136,287,21,2
45,257,1023,1023,2
195,131,221,260,2
15,403,731,777,2
444,55,128,79,2
236,153,288,339,2
153,51,917,446,2
182,115,456,666,2
439,105,494,243,2
363,227,178,369,2
514,359,16,81,2
430,478,231,276,2
48,112,502,494,2
117,89,415,530,2
212,300,775,246,2
30,90,372,431,2
76,31,427,366,2
292,69,589,1023,2
415,210,50,365,2
147,15,203,453,2
373,242,149,12,2
28,227,80,325,2
406,245,311,409,2
12,147,10,0,2
87,65,383,541,2
35,122,272,317,2
205,179,77,186,2
400,461,186,247,2
48,43,324,300,2
54,100,342,436,2
216,318,205,100,2
26,305,314,761,2
202,57,15,237,2
5,313,517,942,2
396,150,77,316,2
6,158,840,941,2
320,239,172,20,2
30,118,646,918,2
314,20,47,134,2
223,113,313,489,2
163,239,225,95,2
170,149,264,599,2
218,47,712,648,2
74,38,382,124,2
0,43,545,223,2
4,295,114,445,2
40,170,143,732,2
322,82,593,1023,2
131,159,109,450,2
587,453,453,721,2
333,502,193,357,2
198,478,61,116,2
29,270,837,653,2
429,315,194,317,2
171,45,665,606,2
110,65,422,640,2
207,52,389,305,2
191,167,276,128,2
415,43,350,493,2
346,29,37,176,2
127,193,297,348,2
294,281,416,249,2
240,225,356,1023,2
543,462,427,38,2
146,226,503,737,2
260,158,571,178,2
9,72,317,352,2
35,57,307,233,2
412,344,531,231,2
214,579,617,451,2
521,419,61,39,2
453,137,962,806,2
489,488,122,81,2
6,70,818,909,2
213,141,359,532,2
201,84,641,691,2
60,57,147,44,2
60,182,542,255,2
7,238,515,305,2
232,7,514,504,2
36,213,394,716,2
576,48,445,943,2
303,276,557,638,2
229,574,4,502,2
206,89,680,580,2
85,217,36,204,2
115,359,353,51,2
186,483,327,255,2
289,19,232,260,2
351,171,482,426,2
24,127,177,463,2
287,170,451,197,2
8,26,150,247,2
1,65,450,480,2
306,411,779,630,2
141,195,116,103,2
316,417,480,664,2
415,310,360,501,2
375,386,937,925,2
285,241,124,64,2
177,172,575,761,2
198,140,752,710,2
54,67,267,214,2
32,107,204,391,2
182,184,52,612,2
414,137,116,429,2
50,34,283,180,2
258,49,723,1019,2
366,92,409,695,2
55,39,534,448,2
34,18,536,344,2
129,136,19,357,2
2,86,370,185,2
237,34,126,387,2
169,14,229,147,2
117,256,275,3,2
287,130,277,501,2
298,287,280,474,2
90,220,399,183,2
61,209,240,406,2
237,273,80,84,2
23,107,119,416,2
214,46,259,405,2
206,244,233,93,2
332,392,183,267,2
10,133,314,132,2
105,119,270,134,2
101,111,187,283,2
24,51,627,614,2
133,244,62,375,2
66,23,101,1023,2
76,293,257,265,2
67,32,56,92,2
231,362,285,359,2
20,82,319,324,2
47,36,254,19,2
207,12,196,246,2
174,177,43,16,2
78,32,42,146,2
80,235,183,165,2
11,71,88,0,2
230,91,107,67,2
98,14,486,342,2
39,169,14,134,2
331,472,283,410,2
6,39,68,177,2
49,235,232,677,2
434,366,711,753,2
146,89,431,858,2
397,234,573,255,2
253,321,12,185,2
30,20,105,167,2
30,83,225,211,2
44,153,37,290,2
114,94,178,331,2
42,75,291,149,2
57,106,524,672,2
266,124,448,81,2
11,246,476,796,2
154,8,406,522,2
10,43,45,0,2
223,10,231,404,2
36,104,177,214,2
1,238,34,37,2
159,14,49,127,2
86,183,93,197,2
16,360,533,339,2
116,168,311,86,2
94,133,267,317,2
185,6,315,449,2
208,236,87,289,2
134,314,55,10,2
59,70,264,126,2
239,261,429,278,2
61,95,77,5,2
42,38,253,395,2
169,285,15,89,2
55,183,73,196,2
219,326,142,221,2
50,183,206,218,2
200,326,166,193,2
71,289,29,5,2
71,151,184,84,2
11,218,382,467,2
88,10,267,39,2
178,240,210,392,2
548,611,198,325,2
46,218,115,2,2
290,163,159,41,2
131,116,328,271,2
139,103,420,314,2
3,204,87,105,2
99,32,139,170,2
28,181,69,431,2
15,153,154,310,2
20,142,102,141,2
127,172,138,18,2
61,46,95,1,2
88,32,275,359,2
140,190,455,489,2
11,21,203,171,2
178,175,632,420,2
1,158,303,230,2
11,237,35,95,2
11,42,139,71,2
114,57,204,2,2
59,8,63,30,2
125,28,18,102,2
155,286,173,259,2
51,173,411,286,2
7,50,82,102,2
29,124,84,227,2
49,103,12,77,2
113,171,294,337,2
4,118,447,429,2
62,24,150,102,2
23,156,190,142,2
3,195,664,442,2
108,36,160,289,2
253,11,254,136,2
40,55,125,25,2
395,145,448,388,2
39,189,405,216,2
149,124,210,212,2
6,40,115,130,2
86,49,204,604,2
101,57,36,82,2
110,72,287,406,2
144,101,190,112,2
269,72,42,16,2
4,321,390,483,2
53,175,10,195,2
27,176,118,221,2
177,273,117,305,2
68,171,265,176,2
80,174,139,109,2
205,200,456,423,2
72,120,158,113,2
189,212,364,339,2
320,348,393,386,2
314,308,124,317,2
53,37,31,0,2
148,29,101,151,2
7,95,14,106,2
187,207,328,366,2
150,72,345,250,2
2,90,10,152,2
231,85,505,863,2
89,407,100,56,2
9,306,453,533,2
114,241,295,270,2
138,377,375,327,2
17,126,169,220,2
23,64,54,39,2
193,247,80,116,2
42,27,614,679,2
97,308,137,71,2
157,27,379,503,2
22,17,83,109,2
32,87,214,259,2
105,98,345,216,2
46,217,2,217,2
290,42,23,0,2
53,115,60,66,2
172,68,89,197,2
18,95,296,222,2
9,39,107,41,2
135,25,280,255,2
264,404,149,178,2
226,92,142,220,2
165,158,149,232,2
126,18,274,59,2
9,163,59,58,2
84,228,461,309,2
19,112,49,200,2
6,53,413,403,2
131,90,274,120,2
200,69,170,286,2
52,51,257,141,2
265,146,145,51,2
116,150,154,147,2
231,7,157,222,2
169,126,83,169,2
218,273,54,12,2
243,79,66,43,2
101,56,104,161,2
115,84,185,237,2
47,42,204,118,2
89,233,217,159,2
34,177,91,89,2
152,28,276,107,2
138,189,286,297,2
119,39,67,59,2
5,161,163,1,2
125,9,239,244,2
12,49,15,47,2
83,56,312,355,2
168,47,202,143,2
49,38,212,178,2
162,12,234,131,2
117,90,73,25,2
74,70,16,0,2
4,92,364,339,2
53,181,238,208,2
85,24,397,377,2
195,135,110,13,2
111,251,313,326,2
22,90,20,172,2
32,157,117,199,2
16,115,123,7,2
107,46,21,108,2
117,279,52,3,2
131,272,204,173,2
12,23,291,137,2
61,101,144,157,2
185,179,63,65,2
0,126,208,228,2
203,182,176,107,2
128,196,161,93,2
149,86,4,0,2
109,147,95,104,2
168,61,32,30,2
79,55,139,202,2
70,133,229,207,2
166,11,164,49,2
44,73,172,2,2
36,137,256,82,2
207,115,140,200,2
239,334,4,0,2
25,93,287,225,2
259,264,72,51,2
88,250,302,200,2
88,46,94,58,2
203,326,89,69,2
66,127,18,38,2
75,175,61,98,2
35,290,107,162,2
62,175,31,54,2
51,161,50,43,2
36,208,60,79,2
82,146,54,27,2
171,71,4,60,2
110,102,84,71,2
56,33,42,70,2
208,169,119,97,2
49,19,87,11,2
216,90,16,33,2
196,315,27,5,2
50,26,76,59,2
75,25,115,41,2
103,135,57,97,2
8,149,20,0,2
16,144,2,37,2
2,47,101,94,2
40,20,31,49,2
169,211,2,0,2
100,288,75,87,2
4,125,41,65,2
17,95,54,29,2
199,114,24,85,2
171,193,6,0,2
4,64,63,85,2
61,10,42,59,2
66,150,67,72,2
40,41,37,0,2
77,35,34,31,2
58,235,206,212,2
39,109,19,0,3
127,208,142,147,3
91,14,31,16,3
52,107,114,65,3
0,173,46,160,3
32,185,83,151,3
34,139,114,126,3
19,104,28,65,3
141,121,37,20,3
51,223,80,107,3
134,43,45,53,3
113,192,39,33,3
12,91,98,73,3
85,127,11,0,3
235,339,1,36,3
68,87,91,102,3
192,281,79,80,3
45,66,254,184,3
8,50,111,203,3
12,127,23,139,3
6,122,41,38,3
32,19,35,24,3
47,76,149,154,3
72,33,62,25,3
105,13,249,260,3
86,77,9,8,3
117,83,106,85,3
122,29,83,32,3
15,51,23,14,3
311,239,71,16,3
194,89,93,77,3
94,102,12,0,3
99,67,109,109,3
152,141,124,65,3
112,30,92,99,3
15,149,2,4,3
3,15,5,38,3
8,161,49,0,3
166,116,118,118,3
28,184,59,99,3
91,13,236,178,3
48,7,119,203,3
6,155,135,110,3
23,35,131,100,3
23,136,81,48,3
95,22,8,7,3
18,86,126,64,3
201,118,33,16,3
140,84,117,30,3
153,213,15,0,3
68,87,31,53,3
96,98,6,0,3
56,41,36,51,3
98,157,77,32,3
27,105,83,12,3
264,208,224,163,3
132,188,121,46,3
19,221,6,23,3
96,156,153,100,3
155,324,183,42,3
88,225,77,168,3
131,216,11,0,3
137,219,104,148,3
41,102,181,151,3
67,193,50,91,3
126,265,15,12,3
64,144,96,57,3
23,111,169,81,3
56,70,70,121,3
46,59,43,16,3
125,188,57,60,3
154,268,184,89,3
199,335,19,73,3
71,50,45,0,3
176,281,159,126,3
189,166,21,0,3
226,337,174,64,3
204,312,42,40,3
95,79,177,88,3
81,226,5,20,3
33,122,45,70,3
112,177,20,43,3
60,177,87,0,3
27,87,87,33,3
168,111,274,228,3
37,164,35,46,3
168,178,239,256,3
83,124,225,65,3
186,384,86,0,3
149,68,266,218,3
21,116,93,70,3
5,92,46,72,3
191,239,324,372,3
7,63,114,60,3
197,30,325,350,3
108,62,135,337,3
80,124,175,311,3
7,57,358,381,3
7,41,32,114,3
145,79,17,137,3
12,197,480,338,3
150,231,379,47,3
88,113,355,334,3
17,18,68,23,3
163,30,157,36,3
154,188,93,143,3
101,67,206,185,3
164,21,206,46,3
45,151,66,24,3
45,376,496,304,3
30,105,244,135,3
214,549,5,93,3
207,326,530,436,3
74,64,105,180,3
73,207,9,67,3
191,149,8,3,3
274,294,404,626,3
152,207,355,371,3
230,130,76,170,3
133,136,45,183,3
128,126,167,228,3
83,56,281,297,3
18,87,35,16,3
54,41,167,187,3
40,146,39,56,3
30,174,351,294,3
121,45,343,312,3
157,7,594,494,3
392,282,191,319,3
212,14,258,398,3
395,365,194,63,3
305,513,292,0,3
337,288,60,113,3
8,242,587,260,3
386,191,174,43,3
21,47,334,344,3
308,32,110,103,3
50,12,288,247,3
74,71,143,210,3
47,30,176,268,3
208,19,3,0,3
61,150,19,106,3
72,208,61,300,3
62,146,1,0,3
132,300,197,406,3
293,23,89,46,3
284,288,110,119,3
260,23,351,285,3
192,217,26,15,3
4,75,142,160,3
34,61,264,628,3
244,311,49,185,3
39,186,230,524,3
453,195,4,49,3
234,218,181,253,3
289,24,11,328,3
194,282,420,468,3
963,413,150,461,3
256,105,213,236,3
326,31,609,666,3
66,136,254,30,3
308,76,212,539,3
141,42,228,322,3
185,51,31,105,3
103,143,187,194,3
150,163,281,395,3
60,252,138,54,3
76,6,291,422,3
300,98,54,184,3
310,218,339,541,3
246,26,800,647,3
111,271,113,101,3
381,406,362,597,3
191,296,70,202,3
126,205,10,31,3
272,362,194,416,3
215,71,217,215,3
585,213,496,630,3
234,351,100,192,3
496,66,138,687,3
220,39,268,288,3
263,254,466,597,3
148,19,91,358,3
85,23,473,712,3
13,7,90,11,3
244,57,149,780,3
355,8,311,585,3
199,226,28,170,3
134,216,18,171,3
39,176,289,11,3
237,104,319,217,3
210,52,167,283,3
40,26,61,291,3
262,180,30,241,3
61,103,403,487,3
90,210,291,247,3
13,99,131,262,3
44,168,100,158,3
444,22,340,345,3
400,393,191,105,3
263,243,129,261,3
150,167,128,464,3
297,46,97,482,3
395,477,160,62,3
42,564,213,720,3
39,26,39,60,3
196,282,21,422,3
184,82,31,81,3
228,99,3,406,3
109,9,602,879,3
50,259,100,460,3
10,265,468,573,3
309,185,110,527,3
243,257,18,59,3
208,72,34,133,3
292,210,3,250,3
20,298,133,232,3
376,17,150,797,3
71,10,117,369,3
13,21,203,0,3
109,45,466,394,3
192,124,51,42,3
415,425,195,272,3
258,42,84,129,3
201,168,36,394,3
445,197,3,40,3
435,20,401,478,3
86,158,381,407,3
8,165,75,195,3
158,147,580,1023,3
158,333,272,342,3
245,28,200,1023,3
595,269,221,319,3
368,394,207,202,3
26,319,36,155,3
113,199,178,111,3
10,58,105,14,3
258,11,164,481,3
104,107,125,354,3
53,113,35,429,3
352,273,219,680,3
438,223,388,424,3
39,42,82,61,3
167,146,537,668,3
454,73,472,792,3
387,451,91,494,3
250,13,22,312,3
39,122,206,2,3
206,109,624,705,3
72,32,324,901,3
67,129,179,866,3
260,279,97,659,3
206,115,53,340,3
1,235,157,294,3
126,174,369,600,3
170,133,70,120,3
263,466,194,41,3
542,766,129,1023,3
271,136,201,1010,3
767,614,429,211,3
121,165,237,934,3
468,400,44,125,3
388,161,5,0,3
95,31,627,1017,3
238,125,420,592,3
464,501,335,285,3
140,55,427,856,3
30,80,203,289,3
185,97,35,119,3
146,175,193,308,3
124,71,35,40,3
50,312,3,370,3
263,593,683,988,3
159,235,385,612,3
515,169,73,620,3
759,47,264,741,3
294,158,43,161,3
150,147,76,139,3
113,101,23,200,3
467,431,57,171,3
14,74,7,0,3
378,246,714,501,3
121,135,23,211,3
131,82,342,780,3
153,573,65,17,3
24,126,125,201,3
158,305,48,846,3
89,54,6,34,3
281,293,1,682,3
141,144,454,676,3
150,24,332,373,3
469,354,336,1023,3
101,95,295,230,3
3,286,519,1023,3
331,36,233,691,3
28,60,68,501,3
273,84,188,741,3
28,6,40,483,3
169,103,4,196,3
283,239,1,134,3
152,169,255,264,3
104,61,175,162,3
164,107,123,4,3
234,237,114,285,3
621,521,17,189,3
31,234,317,467,3
753,534,17,472,3
8,58,57,422,3
406,81,5,1023,3
286,256,145,0,3
154,44,22,776,3
171,23,2,87,3
123,143,222,1023,3
236,88,55,68,3
432,309,68,372,3
268,111,80,804,3
420,220,11,367,3
62,12,241,766,3
268,297,40,199,3
87,297,105,374,3
10,259,82,343,3
46,198,179,219,3
91,38,34,236,3
127,75,3,582,3
200,39,1,660,3
64,97,2,954,3
140,286,20,639,3
203,103,145,939,3
172,137,24,358,3
5,155,265,338,3
41,155,89,456,3
34,74,422,388,3
241,369,18,324,3
50,119,193,901,3
397,24,35,304,3
131,195,2,797,3
12,125,1,344,3
288,45,2,659,3
184,34,2,414,3
71,108,2,358,3
14,79,2,247,3
123,114,3,671,3
84,183,63,326,3
77,126,7,565,3
34,277,1,804,3
291,247,19,91,3
114,115,68,70,3
90,170,109,453,3
11,303,40,89,3
1,423,3,481,3
343,511,1,141,3
28,96,2,359,3
22,150,2,0,3
104,47,2,331,3
356,342,2,369,3
180,379,235,531,3
220,324,79,126,3
328,122,10,311,3
567,569,0,96,3
73,88,2,0,3
18,186,2,413,3
533,642,5,714,3
442,710,1,274,3
392,111,2,239,3
131,70,2,224,3
223,220,2,0,3
47,157,2,277,3
181,10,2,266,3
101,81,48,57,3
235,188,129,369,3
33,116,74,405,3
380,351,10,83,3
227,16,1,598,3
145,116,290,563,3
547,189,135,997,3
750,630,189,348,3
111,116,49,363,3
20,266,5,53,3
155,17,1,146,3
7,237,2,219,3
132,108,7,289,3
83,193,1,397,3
253,37,1,0,3
19,136,2,37,3
83,316,2,52,3
156,241,4,434,3
31,188,111,123,3
29,163,16,262,3
43,170,1,30,3
193,547,1,96,3
2,239,2,385,3
69,93,2,98,3
131,65,2,56,3
21,105,2,23,3
74,38,262,666,3
93,177,180,36,3
209,167,77,905,3
257,337,11,71,3
78,91,1,546,3
47,103,1,42,3
89,94,2,325,3
36,18,2,32,3
346,204,2,199,3
326,290,308,499,3
214,395,71,8,3
420,390,37,571,3
372,625,3,452,3
49,198,1,2,3
32,243,2,722,3
43,201,2,251,3
133,106,42,100,3
242,120,3,508,3
16,12,1,316,3
380,257,2,485,3
73,109,92,280,3
281,287,13,466,3
193,60,1,302,3
152,67,2,112,3
125,24,2,43,3
58,356,2,163,3
131,50,2,25,3
3,35,2,6,3
223,138,2,126,3
218,254,2,74,3
44,165,1,53,3
133,307,2,226,3
115,90,2,139,3
133,92,2,280,3
482,17,2,763,3
732,514,1,74,3
8,68,2,443,3
139,276,2,197,3
78,161,2,28,3
41,67,2,367,3
14,203,2,323,3
93,48,2,44,3
271,200,2,531,3
16,114,2,171,3
306,225,2,394,3
54,228,2,61,3
255,170,2,264,3
29,345,2,140,3
102,125,2,110,3
318,179,2,197,3
208,500,2,75,3
295,41,2,240,3
133,95,2,456,3
121,254,2,566,3
119,241,2,283,3
155,149,2,389,3
216,446,2,478,3
289,126,2,155,3
82,364,2,181,3
62,25,2,235,3
68,27,2,66,3
143,69,2,254,3
50,59,2,47,3
19,91,2,44,3
68,66,2,3,3
43,374,269,573,3
155,82,96,475,3
12,61,14,181,3
267,183,1,327,3
17,119,1,15,3
50,213,2,175,3
1,152,2,23,3
120,227,2,49,3
210,55,2,145,3
271,208,2,8,3
87,270,2,684,3
155,35,2,33,3
26,174,2,677,3
361,170,2,424,3
26,17,2,89,3
75,119,2,191,3
44,26,3,275,3
215,241,13,39,3
38,90,1,135,3
313,141,1,372,3
93,92,2,274,3
108,63,2,342,3
173,60,2,373,3
334,494,2,17,3
102,157,2,253,3
428,584,2,199,3
66,117,2,293,3
10,156,2,526,3
117,18,8,36,3
132,48,1,147,3
4,70,1,222,3
104,20,2,250,3
56,91,2,259,3
43,250,2,429,3
59,10,2,36,3
51,285,2,133,3
102,255,2,199,3
108,145,2,204,3
200,328,2,215,3
50,163,2,221,3
35,267,2,341,3
134,123,2,113,3
217,469,2,34,3
15,75,2,28,3
5,9,2,29,3
147,218,2,104,3
78,125,2,49,3
18,99,2,226,3
39,210,2,39,3
36,9,2,129,3
64,184,2,106,3
142,219,2,123,3
40,32,2,61,3
109,324,2,325,3
175,53,2,32,3
17,216,2,251,3
47,53,2,386,3
53,167,56,238,3
107,152,59,821,3
93,53,8,151,3
59,279,1,170,3
23,140,2,63,3
104,99,2,83,3
85,136,2,276,3
42,192,2,109,3
79,78,2,34,3
113,205,2,92,3
142,13,2,0,3
98,47,2,0,3
51,63,2,12,3
167,190,2,31,3
139,230,2,272,3
76,115,2,85,3
53,131,2,0,3
286,174,2,18,3
5,314,2,39,3
115,137,2,261,3
98,99,2,118,3
76,233,2,194,3
111,175,2,209,3
183,130,2,116,3
98,32,2,198,3
80,176,2,80,3
32,106,2,300,3
181,137,2,14,3
37,258,2,104,3
168,20,2,18,3
46,115,2,291,3
78,7,2,69,3
1,87,2,0,3
75,215,2,17,3
19,85,2,62,3
7,15,2,59,3
189,225,2,127,3
110,75,2,0,3
277,473,2,71,3
11,130,2,146,3
117,220,2,358,3
64,180,2,86,3
59,105,2,344,3
152,8,2,87,3
91,83,2,174,3
96,10,2,105,3
15,133,2,84,3
172,216,2,46,3
78,217,2,262,3
9,182,2,78,3
85,135,2,54,3
43,172,2,26,3
5,46,2,96,3
18,75,2,200,3
4,71,2,72,3
151,87,2,0,3
4,262,2,30,3
224,455,2,240,3
73,248,2,177,3
36,175,2,73,3
108,113,2,194,3
127,10,2,15,3
62,54,2,15,3
24,143,2,40,3
18,100,2,101,3
3,14,2,35,3
109,88,2,237,3
155,57,2,73,3
58,173,2,174,3
88,50,2,87,3
30,44,2,38,3
53,143,2,0,3
61,181,2,105,3
40,40,2,91,3
92,226,2,43,3
13,68,2,16,3
7,145,2,219,3
139,87,2,54,3
116,238,2,152,3
22,168,2,169,3
36,74,2,1,3
83,58,2,12,3
133,77,2,124,3
148,285,2,149,3
5,82,2,171,3
309,358,2,0,3
71,256,2,160,3
21,59,2,42,3
14,71,2,0,3
174,294,2,64,3
103,138,2,90,3
17,204,2,135,3
5,90,2,66,3
18,186,2,160,3
93,47,2,3,3
156,175,2,38,3
44,196,2,69,3
24,32,2,0,3
20,151,2,114,3
155,340,2,0,3
206,81,2,3,3
140,433,2,49,3
10,86,2,134,3
90,231,2,179,3
22,34,2,38,3
401,384,2,145,3
13,94,2,59,3
138,115,2,41,3
88,218,2,35,3
46,94,2,96,3
7,63,2,32,3
11,156,2,110,3
7,57,2,40,3
103,241,2,170,3
33,192,2,0,3
35,89,2,47,3
17,122,2,0,3
36,9,2,126,3
49,163,2,84,3
39,163,2,108,3
46,18,2,102,3
113,43,2,113,3
67,37,2,6,3
82,122,2,107,3
87,163,2,36,3
26,23,2,0,3
39,89,2,143,3
53,36,2,33,3
62,112,2,106,3
29,11,2,54,3
40,74,2,34,3
35,63,2,18,3
4,47,2,134,3
2,154,2,3,3
214,172,2,110,3
12,112,2,18,3
267,136,2,181,3
162,20,2,60,3
75,44,2,91,3
1,65,2,48,3
120,196,2,0,3
5,110,2,123,3
181,143,2,83,3
85,146,2,217,3
92,61,2,23,3
110,173,2,54,3
52,28,2,5,3
105,91,2,98,3
34,87,2,78,3
2,104,2,61,3
22,15,2,33,3
63,125,2,80,3
108,85,2,30,3
101,219,2,96,3
132,51,2,46,3
38,116,2,27,3
19,68,2,232,3
98,76,2,18,3
160,279,2,172,3
14,127,2,31,3
4,54,2,200,3
92,6,2,127,3
14,73,2,172,3
61,9,2,228,3
0,125,2,38,3
8,16,2,141,3
55,58,2,33,3
126,40,2,18,3
167,269,2,0,3
117,182,2,196,3
206,282,2,143,3
75,259,2,205,3
74,6,2,161,3
19,132,2,54,3
68,41,2,12,3
4,80,2,87,3
6,123,2,286,3
65,27,2,164,3
132,248,2,52,3
9,15,2,301,3
3,47,2,77,3
54,29,2,201,3
138,162,2,45,3
34,13,2,21,3
4,143,2,130,3
99,99,2,44,3
95,31,2,463,3
185,142,2,0,3
98,320,2,406,3
43,143,2,24,3
177,284,2,0,3
279,368,2,35,3
46,191,2,173,3
50,23,2,82,3
183,14,2,286,3
32,67,2,0,3
187,292,2,163,3
34,124,2,155,3
48,78,2,198,3
169,17,2,302,3
61,153,2,379,3
246,76,2,220,3
236,256,2,302,3
428,287,2,13,3
23,250,2,32,3
13,51,2,105,3
6,118,2,177,3
289,81,2,2,3
145,86,2,101,3
34,93,2,18,3
10,27,2,44,3
269,73,2,236,3
66,33,2,213,3
165,195,2,351,3
105,54,2,195,3
24,16,2,267,3
93,295,2,79,3
9,6,2,45,3
306,71,2,158,3
36,15,2,286,3
99,73,2,222,3
34,148,2,360,3
97,228,2,68,3
155,163,2,203,3
246,83,2,150,3
351,323,2,67,3
386,428,2,46,3
276,287,2,131,3
51,28,2,440,3
266,95,3,416,3
439,146,2,473,3
252,377,2,176,3
41,360,2,0,3
299,16,2,328,3
155,321,1,205,3
186,45,2,726,3
296,446,2,425,3
198,126,2,630,3
364,382,2,175,3
377,223,2,530,3
164,199,1,193,3
338,87,2,407,3
160,36,2,276,3
268,223,2,307,3
266,63,2,227,3
57,40,2,318,3
297,36,2,129,3
298,86,2,0,3
156,58,2,0,3
65,90,2,145,3
1,9,2,27,3
115,79,2,147,3
15,63,2,40,3
82,43,2,88,3
401,89,2,272,3
219,233,2,181,3
219,159,2,448,3
87,161,2,332,3
93,135,2,152,3
137,114,2,568,3
123,117,2,309,3
271,89,3,591,3
79,65,2,454,3
336,35,2,526,3
268,254,2,400,3
70,197,2,0,3
84,91,2,82,3
150,153,2,319,3
73,45,2,3,3
584,682,287,900,3
472,609,114,339,3
60,255,16,930,3
458,15,2,7,3
301,320,1,494,3
112,37,2,245,3
83,54,2,331,3
43,44,2,239,3
615,511,2,90,3
285,573,2,495,3
89,206,2,618,3
342,373,2,285,3
226,27,2,167,3
356,207,2,5,3
280,446,2,316,3
190,224,2,192,3
160,314,2,548,3
143,243,2,389,3
217,420,2,436,3
147,849,2,474,3
132,39,2,726,3
120,129,2,459,3
199,47,3,961,3
130,21,2,135,3
5,241,2,758,3
33,95,2,179,3
441,238,2,643,3
252,23,2,353,3
317,323,2,139,3
220,171,2,568,3
308,592,2,443,3
423,192,2,0,3
351,441,2,59,3
143,437,2,192,3
142,111,2,192,3
267,316,2,183,3
99,62,2,247,3
27,372,2,43,3
211,74,2,446,3
176,175,2,237,3
180,223,3,1023,3
235,98,1,237,3
358,418,2,548,3
211,487,2,708,3
83,110,2,420,3
266,250,2,258,3
78,124,2,218,3
171,73,2,330,3
396,275,2,73,3
49,328,3,795,3
367,6,2,638,3
520,477,2,317,3
17,359,2,874,3
135,222,2,61,3
11,10,2,93,3
278,209,2,420,3
115,59,2,193,3
95,151,2,1,3
69,60,2,55,3
2,53,2,248,3
59,137,2,421,3
381,183,9,223,3
302,545,1,922,3
114,17,1,746,3
296,182,46,837,3
324,40,2,965,3
42,173,1,193,3
169,373,2,364,3
15,254,1,3,3
6,287,3,786,3
126,155,2,7,3
6,329,2,856,3
191,346,2,174,3
14,512,2,75,3
493,187,2,197,3
23,137,2,97,3
325,398,2,582,3
42,14,2,311,3
68,139,2,278,3
185,8,2,176,3
170,315,2,420,3
470,185,2,38,3
353,28,2,785,3
283,228,2,0,3
13,65,2,476,3
164,27,2,168,3
80,9,2,22,3
135,212,2,63,3
81,169,2,424,3
127,70,2,548,3
186,205,2,1007,3
19,285,205,884,3
551,332,102,903,3
376,71,16,255,3
402,310,0,473,3
521,360,2,364,3
9,27,3,933,3
606,615,2,260,3
201,467,2,561,3
743,741,68,357,3
118,323,25,0,3
144,84,1,1023,3
175,219,1,677,3
126,118,2,239,3
343,174,2,202,3
433,61,3,980,3
0,9,2,194,3
116,216,2,401,3
110,155,21,679,3
22,240,46,1023,3
211,191,155,719,3
224,316,37,389,3
447,236,2,983,3
4,55,1,189,3
136,172,2,267,3
621,200,2,9,3
61,55,2,711,3
215,360,2,697,3
81,25,2,327,3
315,429,2,962,3
34,72,2,669,3
18,216,3,774,3
246,406,476,1023,3
593,720,394,486,3
148,171,417,1023,3
274,185,299,359,3
116,50,65,814,3
153,270,6,943,3
163,16,1,169,3
183,137,442,1023,3
184,79,168,888,3
312,71,30,240,3
197,67,2,184,3
38,27,2,209,3
28,68,3,959,3
34,95,2,429,3
90,38,27,27,3
227,265,5,829,3
242,42,1,380,3
220,330,2,717,3
119,177,2,168,3
165,564,474,1023,3
293,123,254,1023,3
180,449,298,167,3
13,103,63,903,3
276,483,42,510,3
95,135,510,1023,3
327,219,233,500,3
124,82,93,747,3
466,313,18,700,3
192,130,1,198,3
32,129,2,38,3
99,223,2,109,3
40,196,2,236,3
178,304,2,183,3
187,16,3,31,3
143,36,2,121,3
408,423,2,47,3
108,195,3,976,3
270,296,2,260,3
112,161,2,42,3
377,223,3,653,3
585,591,2,925,3
302,309,2,426,3
13,104,2,117,3
77,15,2,569,3
251,185,2,220,3
127,67,2,339,3
191,108,2,270,3
42,127,2,172,3
2,180,2,649,3
13,89,2,410,3
35,44,2,39,3
215,215,2,169,3
84,7,3,872,3
155,100,2,41,3
261,137,2,69,3
42,183,2,440,3
77,24,2,437,3
109,76,2,9,3
45,313,2,702,3
574,662,2,42,3
177,202,2,502,3
166,226,2,485,3
373,496,2,61,3
36,70,2,282,3
43,83,2,91,3
187,32,2,136,3
3,8,2,360,3
55,54,2,158,3
187,149,2,445,3
327,251,2,406,3
218,10,2,127,3
1,41,2,196,3
18,30,2,253,3
152,265,2,183,3
20,37,3,568,3
19,339,2,741,3
393,87,2,533,3
9,52,2,621,3
75,22,2,90,3
46,152,2,418,3
195,294,2,429,3
191,326,2,298,3
422,152,3,1023,3
495,343,113,390,3
21,21,22,568,3
78,247,1,404,3
96,221,1,219,3
110,212,3,725,3
39,5,2,197,3
80,282,2,317,3
59,208,3,50,3
258,411,2,42,3
37,186,2,306,3
246,323,2,178,3
385,348,2,26,3
354,228,2,461,3
229,261,2,351,3
20,267,2,84,3
25,187,2,470,3
41,58,2,474,3
67,77,2,460,3
256,106,3,414,3
7,10,2,381,3
146,120,2,289,3
43,9,2,332,3
41,246,2,732,3
550,434,2,399,3
119,369,2,738,3
76,84,1,191,3
88,111,2,431,3
126,34,2,397,3
280,9,2,133,3
3,64,2,485,3
41,299,2,141,3
4,104,2,945,3
84,261,2,277,3
560,263,2,812,3
662,769,2,123,3
230,27,2,336,3
280,295,2,176,3
384,25,2,398,3
293,151,2,288,3
111,184,2,104,3
171,40,2,0,3
215,110,2,431,3
42,215,2,985,3
401,244,2,8,3
27,250,2,851,3
421,414,2,314,3
74,227,2,706,3
290,49,2,487,3
36,107,2,193,3
124,166,2,648,3
59,288,2,650,3
414,347,2,435,3
86,295,2,646,3
142,165,2,333,3
0,315,2,470,3
104,190,2,27,3
27,52,2,332,3
71,81,2,219,3
198,392,2,261,3
7,46,2,264,3
161,6,3,549,3
199,210,2,124,3
23,240,2,888,3
198,18,1,226,3
26,24,3,648,3
97,15,2,221,3
120,152,2,103,3
37,68,2,493,3
106,229,2,99,3
62,74,3,480,3
19,113,2,68,3
140,16,2,296,3
461,477,2,55,3
95,130,2,219,3
59,83,2,288,3
79,199,2,11,3
201,186,2,63,3
62,108,1,0,3
117,260,2,484,3
63,114,2,426,3
168,372,2,404,3
114,95,2,206,3
97,282,2,92,3
220,216,2,89,3
214,269,2,0,3
1,94,2,230,3
95,55,2,217,3
18,192,2,447,3
161,48,2,91,3
267,77,2,609,3
284,212,2,95,3
258,173,2,420,3
49,18,2,11,3
157,167,2,366,3
9,41,2,422,3
333,326,2,51,3
191,271,2,555,3
241,329,2,202,3
22,82,2,417,3
201,459,2,629,3
180,45,2,381,3
22,68,2,597,3
165,86,2,437,3
160,175,2,325,3
143,24,2,15,3
3,123,2,254,3
174,140,2,435,3
304,455,2,252,3
57,166,2,253,3
3,151,2,317,3
118,93,2,53,3
362,400,2,53,3
172,350,2,149,3
29,8,2,165,3
175,293,2,391,3
74,178,2,177,3
306,194,2,482,3
10,206,2,564,3
10,151,2,8,3
260,108,2,279,3
23,19,2,22,3
83,21,2,0,3
98,39,2,360,3
175,60,2,0,3
120,7,2,301,3
3,258,2,10,3
6,24,2,145,3
78,13,2,83,3
64,14,2,678,3
63,113,2,43,3
39,165,2,762,3
192,186,2,47,3
173,432,2,342,3
36,311,2,95,3
109,102,2,97,3
21,145,2,246,3
71,24,2,41,3
7,120,2,311,3
67,87,2,2,3
14,48,2,56,3
78,40,2,0,3
87,153,2,73,3
16,26,2,15,3
45,105,2,110,3
54,97,2,11,3
26,233,2,197,3
82,229,2,0,3
135,17,2,118,3
92,14,2,89,3
257,118,2,51,3
205,21,2,76,3
128,52,2,43,3
38,183,2,54,3
137,14,2,45,3
172,237,2,67,3
108,18,2,162,3
41,77,2,61,3
12,100,2,105,3
108,185,2,0,3
127,118,2,7,3
10,23,2,35,3
242,212,2,41,3
15,105,2,67,3
206,174,2,19,3
51,179,2,0,3
85,42,2,55,3
104,47,2,0,3
102,274,2,122,3
149,49,2,83,3
133,243,2,81,3
215,137,2,46,3
73,38,2,57,3
31,53,2,100,3
159,54,2,129,3
19,45,2,59,3
79,173,2,81,3
25,9,2,0,3
62,149,2,77,3
10,89,2,69,3
65,150,2,52,3
42,101,2,75,3
50,20,2,46,3
24,64,2,185,3
15,117,2,14,3
115,33,2,43,3
188,70,2,123,3
123,168,2,0,3
63,107,2,227,3
55,80,2,39,3
126,189,2,108,3
2,95,2,49,3
25,58,2,32,3
2,142,2,76,3
25,110,2,46,3
205,243,2,17,3
51,106,2,117,3
79,83,2,62,3
77,160,2,90,3
45,46,2,5,3
47,67,2,5,3
57,8,2,46,3
80,81,2,63,3
65,6,2,176,3
95,32,2,16,3
114,237,2,14,3
44,17,2,45,3
102,71,2,120,3
78,173,2,79,3
55,58,2,123,3
102,108,2,92,3
9,85,2,14,3
8,60,2,0,3
85,9,2,75,3
120,25,2,147,3
118,163,2,49,3
84,30,2,88,3
33,14,2,0,3
23,71,2,78,3
80,20,2,71,3
49,113,2,79,3
35,17,2,81,3
40,48,2,86,3
84,11,2,214,3
112,12,2,125,3
68,70,2,273,3
31,105,2,60,3
163,153,2,9,3
17,135,2,40,3
127,116,2,147,3
45,107,2,0,3
137,22,2,172,3
14,92,2,135,3
93,11,2,150,3
23,27,2,55,3
45,13,2,89,3
88,12,2,39,3
108,107,2,17,3
63,235,2,91,3
70,229,2,85,3
40,21,2,177,3
10,99,2,169,3
16,9,2,55,3
21,108,2,296,3
32,51,2,49,3
115,111,2,148,3
41,121,2,48,3
10,10,2,67,3
7,177,2,11,3
79,87,2,13,3
101,183,2,15,3
220,251,2,4,3
242,205,2,21,3
90,219,2,83,3
77,14,2,89,3
73,195,2,47,3
1,98,2,13,3
73,52,2,90,3
202,89,2,284,3
263,213,2,175,3
3,19,2,415,3
294,191,2,160,3
152,200,2,223,3
17,116,2,96,3
139,91,2,81,3
418,575,2,62,3
250,380,2,216,3
101,124,2,5,3
43,56,2,93,3
51,89,2,2,3
73,85,2,5,3
151,192,2,91,3
105,159,2,229,3
96,50,2,0,3
35,43,2,406,3
40,60,2,376,3
430,269,2,468,3
315,310,2,527,3
497,420,2,201,3
18,115,2,409,3
39,156,2,318,3
245,97,2,74,3
58,149,2,439,3
176,52,2,48,3
9,74,2,76,3
161,154,2,68,3
204,286,2,47,3
184,80,2,369,3
103,120,2,71,3
146,110,2,0,3
122,60,2,27,3
176,76,2,161,3
311,257,2,0,3
433,314,2,0,3
128,324,2,0,3
51,19,2,90,3
258,442,2,421,3
346,460,2,464,3
26,27,2,664,3
415,522,2,288,3
87,39,2,648,3
131,282,2,284,3
164,22,2,51,3
333,446,2,94,3
59,47,2,236,3
212,484,2,157,3
354,22,2,811,3
209,281,2,269,3
426,19,3,747,3
282,144,2,224,3
74,425,2,670,3
180,180,2,599,3
698,347,2,611,3
190,129,2,393,3
489,252,2,161,3
17,255,2,400,3
54,221,2,373,3
179,111,2,247,3
77,114,2,93,3
83,78,2,294,3
465,291,2,101,3
431,499,2,244,3
162,167,2,12,3
58,201,2,343,3
401,291,2,262,3
108,257,2,42,3
225,174,2,401,3
327,338,2,42,3
76,45,2,0,3
238,107,2,353,3
505,294,2,423,3
405,46,2,137,3
573,53,2,688,3
227,106,2,60,3
203,137,2,649,3
321,411,2,272,3
25,259,2,336,3
114,114,2,15,3
87,45,2,519,3
379,182,2,58,3
149,151,2,835,3
310,220,2,489,3
13,34,2,604,3
291,177,2,356,3
57,135,2,156,3
30,198,2,115,3
73,115,2,196,3
2,318,2,295,3
41,131,2,466,3
91,16,2,513,3
101,147,2,471,3
167,256,1,489,3
17,72,2,391,3
43,47,2,215,3
271,122,2,171,3
260,112,2,154,3
9,89,2,292,3
296,251,2,58,3
385,279,2,621,3
214,255,2,403,3
666,475,1,114,3
281,358,2,263,3
174,100,2,172,3
432,341,2,43,3
473,399,2,68,3
454,448,2,304,3
492,507,1,18,3
391,529,2,363,3
155,38,2,92,3
198,9,2,127,3
109,300,2,193,3
324,54,2,0,3
171,213,3,792,3
222,47,2,156,3
124,208,2,369,3
239,261,2,0,3
27,37,2,410,3
197,83,2,109,3
446,160,2,697,3
83,325,2,553,3
344,166,2,472,3
159,160,1,577,3
231,175,2,214,3
59,173,1,1023,3
193,76,1,968,3
163,55,2,710,3
106,130,2,343,3
35,163,2,790,3
179,354,2,233,3
58,197,2,551,3
133,253,2,207,3
110,311,2,326,3
122,130,2,248,3
104,270,2,401,3
4,156,2,0,3
56,30,2,363,3
98,87,2,346,3
145,15,2,146,3
254,188,2,371,3
689,332,4,1023,3
436,235,224,154,3
306,432,51,371,3
141,6,5,754,3
164,511,1,877,3
520,41,2,382,3
335,213,2,584,3
209,69,2,77,3
508,257,2,138,3
450,12,2,14,3
211,129,2,152,3
93,297,2,403,3
436,206,2,363,3
249,227,2,136,3
721,193,2,711,3
789,157,551,1023,3
611,694,411,528,3
213,23,453,1023,3
397,528,344,191,3
2,301,470,1023,3
373,228,236,638,3
296,202,46,1023,3
163,75,6,752,3
21,12,2,924,3
87,256,5,1023,3
134,303,35,614,3
16,31,3,940,3
394,293,1,164,3
379,309,2,384,3
128,11,2,19,3
131,181,2,50,3
22,337,2,229,3
325,396,2,410,3
151,72,2,231,3
109,237,3,868,3
217,251,2,474,3
186,71,2,974,3
334,243,2,415,3
193,7,2,439,3
151,248,2,211,3
92,496,2,579,3
116,309,3,859,3
58,44,2,221,3
295,9,2,720,3
396,323,2,27,3
156,28,2,450,3
547,597,2,0,3
44,242,2,353,3
499,422,2,668,3
65,124,484,1023,3
360,67,234,11,3
561,61,49,862,3
619,413,5,148,3
157,28,1,620,3
549,522,2,305,3
264,31,2,489,3
415,21,2,364,3
325,28,2,334,3
150,21,2,73,3
126,20,2,177,3
6,138,2,181,3
438,353,2,296,3
40,50,2,494,3
369,25,2,139,3
95,275,2,69,3
267,298,2,420,3
289,106,2,617,3
75,48,2,266,3
327,391,2,208,3
311,469,2,395,3
408,119,2,177,3
13,105,31,1023,3
402,346,109,46,3
521,99,19,620,3
742,50,1,257,3
389,280,2,766,3
228,271,1,175,3
126,101,3,687,3
178,444,2,489,3
108,36,2,24,3
241,311,2,192,3
164,54,2,75,3
32,135,2,434,3
41,132,412,1023,3
328,370,68,47,3
20,121,32,1023,3
187,131,94,850,3
27,33,14,141,3
330,208,1,49,3
103,123,2,555,3
278,65,2,22,3
44,12,2,260,3
201,18,3,521,3
629,357,2,78,3
42,329,2,416,3
317,69,2,83,3
107,14,2,265,3
43,55,2,155,3
166,148,2,463,3
30,135,2,311,3
76,182,2,193,3
21,140,2,361,3
97,17,2,15,3
203,142,2,69,3
221,19,3,437,3
140,203,2,174,3
60,84,2,340,3
42,317,2,664,3
178,213,2,777,3
188,423,2,419,3
199,101,2,465,3
161,188,1,262,3
186,7,2,202,3
175,83,2,213,3
31,147,2,22,3
59,99,2,48,3
47,31,2,350,3
24,158,2,134,3
401,325,2,223,3
136,250,2,183,3
295,99,2,110,3
47,52,2,151,3
178,23,2,63,3
175,134,2,621,3
35,28,2,310,3
80,199,2,519,3
145,145,2,5,3
74,118,3,884,3
560,423,2,214,3
244,25,3,1019,3
304,298,2,377,3
241,286,2,123,3
23,14,3,754,3
205,453,2,845,3
51,24,2,423,3
370,481,2,706,3
267,298,1,440,3
260,714,55,1023,3
617,203,12,166,3
578,541,563,1023,3
388,484,135,127,3
254,376,22,765,3
597,511,6,250,3
219,241,1,664,3
169,51,2,64,3
116,19,3,513,3
62,57,2,177,3
154,159,2,879,3
262,190,2,874,3
193,114,2,972,3
27,375,1,120,3
293,104,2,872,3
177,86,1,34,3
183,69,2,538,3
178,93,2,349,3
150,31,2,186,3
193,174,2,172,3
391,201,2,289,3
440,194,2,536,3
182,311,2,157,3
315,396,2,331,3
114,21,2,407,3
280,499,2,140,3
171,471,2,303,3
282,160,2,210,3
240,22,2,226,3
584,768,2,141,3
513,221,2,572,3
272,267,2,71,3
150,124,2,287,3
300,33,2,209,3
299,315,2,111,3
133,275,2,244,3
220,126,2,342,3
197,9,2,108,3
545,228,2,318,3
138,11,2,214,3
9,93,2,91,3
223,178,2,124,3
276,255,2,84,3
107,139,2,190,3
130,116,2,68,3
231,257,2,222,3
79,17,2,0,3
36,238,2,735,3
157,44,2,272,3
89,174,2,663,3
138,124,2,176,3
47,33,2,18,3
96,35,2,255,3
7,14,2,232,3
225,309,2,144,3
33,70,2,187,3
174,56,2,37,3
75,187,2,232,3
5,107,2,345,3
85,144,2,110,3
1,162,2,128,3
10,13,2,105,3
27,14,2,24,3
32,25,2,32,3
86,39,2,8,3
69,279,2,30,3
7,76,2,167,3
172,142,2,70,3
124,204,2,18,3
77,58,2,85,3
68,313,2,46,3
151,14,2,126,3
0,105,2,164,3
155,313,2,131,3
8,40,2,243,3
375,17,2,160,3
83,81,2,0,3
120,110,2,183,3
101,31,2,312,3
2,53,2,15,3
73,89,2,237,3
71,22,2,0,3
3,96,2,20,3
98,43,2,67,3
111,145,2,145,3
69,151,2,0,3
263,186,2,32,3
20,105,2,33,3
102,8,2,46,3
87,50,2,79,3
150,217,2,150,3
44,137,2,193,3
75,43,2,150,3
92,121,2,394,3
221,289,2,194,3
245,290,2,447,3
60,41,2,232,3
276,353,2,65,3
272,380,2,0,3
20,31,2,126,3
9,173,2,138,3
140,16,2,64,3
48,127,2,67,3
29,117,2,94,3
141,59,2,46,3
121,58,2,133,3
315,311,2,60,3
24,172,2,99,3
204,143,2,57,3
83,162,2,0,3
50,231,2,104,3
41,103,2,3,3
93,202,2,45,3
162,23,2,0,3
50,62,2,0,3
159,388,2,80,3
104,172,2,36,3
91,42,2,0,3
126,37,2,44,3
22,13,2,28,3
83,348,2,165,3
368,548,2,28,3
80,198,2,85,3
103,201,2,97,3
13,14,2,35,3
100,117,2,107,3
4,88,2,34,3
99,243,2,122,3
170,372,2,0,3
52,92,2,0,3
127,46,2,48,3
117,9,2,25,3
116,174,2,80,3
174,83,2,63,3
50,89,2,16,3
142,21,2,125,3
55,194,2,84,3
43,222,2,64,3
17,181,2,64,3
150,225,2,13,3
13,190,2,152,3
0,61,2,33,3
106,212,2,100,3
40,188,2,59,3
26,73,2,23,3
40,260,2,102,3
101,30,2,52,3
154,269,2,60,3
175,254,2,77,3
52,45,2,23,3
5,174,2,158,3
105,13,2,18,3
228,382,2,94,3
3,151,2,70,3
197,214,2,48,3
137,6,2,119,3
119,8,2,42,3
4,63,2,103,3
121,28,2,46,3
35,70,2,0,3
136,322,2,143,3
162,337,2,30,3
60,38,2,72,3
23,167,2,67,3
24,39,2,13,3
69,235,2,139,3
95,8,2,40,3
109,241,2,78,3
22,120,2,57,3
81,105,2,0,3
28,219,2,144,3
26,103,2,65,3
179,198,2,111,3
94,15,2,45,3
123,93,2,1,3
49,58,2,121,3
141,16,2,32,3
46,122,2,104,3
106,15,2,64,3
346,359,2,0,3
29,193,2,136,3
135,61,2,3,3
11,91,2,36,3
57,196,2,84,3
59,96,2,0,3
250,379,2,121,3
39,75,2,7,3
240,262,2,87,3
5,145,2,48,3
62,31,2,0,3
54,50,2,140,3
88,37,2,22,3
60,138,2,20,3
136,123,2,135,3
190,224,2,13,3
26,97,2,143,3
87,14,2,19,3
128,58,2,78,3
120,8,2,10,3
12,11,2,62,3
68,89,2,0,3
31,113,2,93,3
21,66,2,0,3
90,118,2,85,3
108,156,2,0,3
121,38,2,83,3
16,136,2,184,3
151,246,2,261,3
4,118,2,133,3
24,39,2,184,3
29,139,2,152,3
245,343,2,24,3
84,34,2,9,3
116,224,2,141,3
44,29,2,99,3
72,76,2,0,3
87,14,2,42,3
78,171,2,71,3
102,65,2,122,3
79,88,2,23,3
22,145,2,247,3
10,69,2,20,3
29,78,2,17,3
140,269,2,208,3
13,39,2,86,3
112,7,3,48,3
63,38,3,292,3
170,183,2,103,3
111,17,2,47,3
247,318,2,168,3
73,59,2,135,3
111,33,2,220,3
2,112,2,19,3
131,292,2,97,3
98,92,2,104,3
139,8,2,271,3
55,145,2,70,3
489,411,2,282,3
150,39,2,283,3
95,76,2,254,3
145,351,2,179,3
112,254,2,336,3
161,259,2,118,3
52,317,2,35,3
109,143,2,113,3
157,135,2,232,3
34,31,2,81,3
125,87,2,364,3
149,310,2,180,3
152,91,2,104,3
387,441,2,192,3
186,189,2,48,3
137,161,2,415,3
139,129,2,125,3
314,467,2,288,3
258,471,2,235,3
80,135,2,523,3
107,218,2,88,3
60,96,2,63,3
1,163,2,207,3
141,82,2,306,3
40,123,2,25,3
63,66,2,107,3
41,45,2,102,3
115,91,2,35,3
149,123,2,155,3
137,339,2,77,3
88,154,2,60,3
185,540,2,24,3
36,18,2,360,3
156,462,2,17,3
281,96,2,60,3
387,280,2,151,3
264,93,2,484,3
532,304,2,74,3
166,345,2,333,3
37,21,2,88,3
47,255,2,202,3
94,346,2,32,3
232,65,2,201,3
23,185,2,299,3
7,95,2,1,3
238,233,2,325,3
167,50,2,328,3
174,227,2,116,3
399,227,2,109,3
335,167,2,125,3
108,51,2,69,3
181,139,2,297,3
213,88,2,328,3
120,306,2,5,3
213,390,2,289,3
215,329,2,266,3
240,143,2,426,3
12,16,2,343,3
43,27,2,236,3
122,152,2,568,3
273,371,2,419,3
69,497,2,671,3
664,121,2,660,3
297,205,2,458,3
161,186,2,633,3
248,231,2,625,3
117,495,1,378,3
148,597,2,265,3
380,321,2,252,3
268,310,2,145,3
77,445,2,435,3
81,100,2,390,3
585,295,2,127,3
209,48,2,5,3
200,298,2,81,3
251,174,2,171,3
310,226,2,0,3
87,42,2,330,3
57,99,1,346,3
153,173,2,469,3
300,158,2,287,3
67,53,2,50,3
224,238,2,718,3
32,53,1,311,3
479,523,3,762,3
445,321,2,267,3
354,274,2,656,3
345,261,2,270,3
8,136,3,1010,3
135,164,1,102,3
72,236,2,16,3
277,343,2,0,3
78,170,2,919,3
340,965,2,351,3
2,350,2,872,3
94,367,2,412,3
0,70,2,221,3
38,9,2,243,3
123,239,2,445,3
347,303,2,126,3
140,73,2,439,3
161,24,2,678,3
860,409,2,619,3
337,26,2,423,3
368,538,2,590,3
239,123,2,113,3
92,202,2,241,3
406,239,2,63,3
32,325,2,483,3
114,51,3,878,3
130,331,2,309,3
416,116,3,987,3
281,47,2,494,3
87,70,2,661,3
346,88,2,623,3
164,33,2,78,3
444,414,2,93,3
305,71,2,212,3
313,208,2,260,3
180,322,2,123,3
244,331,2,898,3
148,385,2,50,3
