Ch1,Ch2,Ch3,Ch4,label
116,194,21,24,1
108,126,0,18,1
25,25,0,14,1
225,138,0,4,1
133,81,47,4,1
60,18,1,40,1
100,93,17,2,1
24,91,8,23,1
110,82,64,25,1
130,149,43,46,1
120,64,106,157,1
137,107,41,2,1
30,241,99,136,1
117,32,42,14,1
188,200,0,72,1
8,22,115,130,1
96,79,26,3,1
19,20,39,73,1
48,15,4,3,1
205,151,12,96,1
1,11,18,69,1
16,26,0,16,1
39,42,5,84,1
120,64,0,36,1
120,91,52,9,1
34,217,25,38,1
34,10,151,24,1
72,98,0,71,1
115,82,101,88,1
102,247,71,65,1
255,485,6,85,1
84,7,30,45,1
97,103,0,18,1
196,122,31,42,1
82,42,55,6,1
10,23,85,149,1
142,148,4,2,1
123,108,52,64,1
161,28,21,41,1
195,239,22,108,1
142,27,69,83,1
154,27,37,3,1
36,7,87,129,1
123,145,23,9,1
8,12,23,110,1
132,51,5,72,1
90,64,20,31,1
96,108,38,1,1
39,87,39,51,1
100,48,26,8,1
100,126,37,70,1
155,223,18,51,1
39,46,4,1,1
218,245,13,33,1
40,53,74,38,1
63,201,16,9,1
39,111,68,41,1
88,166,0,26,1
119,25,83,4,1
85,279,2,6,1
63,22,20,47,1
42,133,43,16,1
42,38,0,39,1
3,47,0,19,1
14,26,0,29,1
151,125,82,96,1
4,63,113,71,1
81,259,37,131,1
12,6,75,67,1
16,192,4,9,1
123,260,0,30,1
44,232,22,28,1
31,249,0,13,1
63,96,6,10,1
114,7,67,14,1
22,36,65,128,1
108,210,37,50,1
21,86,91,81,1
61,59,11,2,1
138,92,45,4,1
80,46,106,52,1
76,40,0,42,1
11,18,158,134,1
191,242,1,5,1
8,82,8,1,1
10,77,30,7,1
103,72,52,43,1
53,62,52,41,1
159,8,34,35,1
78,97,58,33,1
32,73,76,5,1
138,5,54,2,1
184,307,56,42,1
89,61,98,67,1
50,45,87,22,1
77,102,129,142,1
83,138,82,23,1
76,5,115,142,1
144,29,98,49,1
62,81,97,159,1
127,97,36,63,1
39,191,23,22,1
169,55,53,45,1
105,43,39,93,1
156,237,131,95,1
6,152,28,14,1
182,267,73,70,1
24,117,43,34,1
227,45,263,121,1
190,108,0,132,1
56,160,272,263,1
3,21,65,38,1
87,20,132,159,1
76,51,0,93,1
214,176,24,1,1
11,6,4,191,1
248,330,118,51,1
38,17,274,129,1
244,157,228,101,1
55,156,360,63,1
254,134,43,5,1
148,105,141,5,1
32,13,54,55,1
53,198,16,109,1
59,20,211,110,1
275,241,126,158,1
106,50,41,147,1
77,113,0,111,1
128,85,170,69,1
86,12,123,192,1
4,52,125,39,1
77,243,10,4,1
86,50,22,6,1
282,196,23,180,1
4,98,43,54,1
146,66,87,11,1
100,13,56,13,1
0,87,22,160,1
3,136,270,17,1
144,304,5,66,1
182,195,279,133,1
45,234,114,192,1
26,6,132,134,1
31,29,0,29,1
187,27,183,184,1
18,68,132,99,1
68,42,208,81,1
179,91,223,335,1
174,273,622,192,1
67,34,15,327,1
154,12,449,17,1
96,19,119,139,1
63,215,127,85,1
51,219,223,80,1
190,279,7,65,1
62,47,56,45,1
116,126,41,79,1
129,90,28,98,1
84,162,221,316,1
37,113,170,101,1
173,120,221,278,1
114,277,264,17,1
15,105,131,45,1
40,193,143,266,1
39,55,27,91,1
130,44,140,28,1
190,50,17,223,1
74,58,0,121,1
7,111,115,69,1
23,50,154,133,1
157,6,77,253,1
34,7,209,112,1
102,224,68,48,1
198,191,102,65,1
15,10,66,134,1
268,108,7,16,1
30,413,159,42,1
106,172,59,71,1
3,145,0,91,1
225,290,177,199,1
227,179,241,327,1
281,338,234,123,1
33,277,92,125,1
107,294,55,46,1
20,41,0,198,1
112,210,22,58,1
232,8,170,251,1
76,136,124,415,1
38,40,23,286,1
236,132,12,57,1
141,129,25,48,1
126,27,103,119,1
102,110,236,195,1
169,182,71,285,1
289,361,108,95,1
44,10,23,143,1
41,89,82,216,1
211,368,194,362,1
0,276,364,322,1
186,261,89,3,1
25,23,231,43,1
232,151,227,221,1
196,135,44,19,1
173,57,50,176,1
73,135,158,115,1
38,68,147,198,1
117,61,223,22,1
34,17,161,144,1
54,197,193,249,1
18,50,229,37,1
97,70,101,241,1
123,310,173,170,1
47,175,74,129,1
203,75,21,206,1
143,116,307,452,1
100,46,145,223,1
384,324,283,162,1
437,47,64,3,1
188,330,69,19,1
21,242,93,19,1
140,179,104,33,1
59,141,226,99,1
27,220,54,119,1
29,20,10,95,1
108,21,50,138,1
30,119,48,123,1
9,101,131,161,1
168,80,260,101,1
207,111,9,275,1
99,121,252,247,1
48,32,222,30,1
197,24,245,17,1
19,228,0,20,1
9,910,140,4,1
92,378,241,162,1
198,58,119,276,1
107,171,200,353,1
0,292,128,250,1
165,145,186,8,1
185,147,0,183,1
159,65,5,181,1
65,39,57,315,1
11,13,4,229,1
151,163,183,95,1
1,60,57,167,1
51,124,223,81,1
13,334,0,200,1
50,173,13,172,1
3,161,216,35,1
66,225,103,354,1
89,13,213,151,1
91,142,324,168,1
64,214,10,272,1
123,231,180,420,1
75,127,175,49,1
195,72,63,78,1
234,71,55,27,1
67,127,150,138,1
76,60,279,198,1
72,103,264,296,1
80,9,32,351,1
118,36,490,612,1
38,136,212,73,1
198,45,26,177,1
34,410,115,7,1
113,191,95,16,1
139,59,501,338,1
139,256,418,54,1
11,48,267,424,1
2,182,393,4,1
124,75,55,442,1
65,198,262,108,1
126,158,8,695,1
72,266,339,397,1
125,95,243,74,1
28,40,233,54,1
6,97,363,76,1
36,130,321,78,1
93,37,0,75,1
250,18,204,510,1
31,61,309,71,1
98,233,209,87,1
45,64,305,107,1
129,1023,194,22,1
222,170,722,105,1
148,15,180,20,1
48,486,740,2,1
53,486,0,484,1
198,120,459,52,1
163,47,265,282,1
30,20,186,269,1
193,52,167,150,1
74,14,411,243,1
116,49,279,50,1
131,59,243,18,1
114,56,167,68,1
186,265,350,281,1
59,358,45,31,1
156,42,257,19,1
50,409,308,234,1
123,32,477,9,1
200,102,112,413,1
48,156,382,323,1
68,44,108,250,1
26,264,169,377,1
154,365,108,194,1
181,7,0,275,1
135,207,331,440,1
66,201,240,7,1
136,170,250,259,1
215,94,556,269,1
241,200,47,161,1
33,138,211,509,1
192,335,37,233,1
50,56,138,77,1
68,216,54,71,1
287,183,89,26,1
106,139,194,185,1
241,261,282,79,1
18,848,54,46,1
37,337,211,23,1
2,169,70,27,1
7,9,591,268,1
152,117,434,417,1
331,180,288,407,1
6,80,181,432,1
33,15,97,80,1
8,44,177,159,1
196,255,190,445,1
108,22,810,584,1
70,7,17,114,1
109,52,554,227,1
76,12,30,90,1
200,14,355,56,1
0,339,427,591,1
25,146,280,169,1
17,97,187,261,1
146,151,2,78,1
106,38,88,375,1
109,22,42,134,1
158,120,105,217,1
38,106,178,30,1
8,73,0,81,1
176,101,43,48,1
35,85,378,98,1
165,112,100,19,1
143,104,322,96,1
132,44,29,192,1
107,27,14,65,1
3,59,119,585,1
390,91,32,69,1
252,179,157,72,1
92,104,25,255,1
123,223,55,51,1
76,20,120,7,1
164,354,66,36,1
142,193,155,46,1
35,109,65,73,1
113,66,467,232,1
115,71,142,21,1
31,119,136,66,1
104,64,139,13,1
55,134,1,72,1
188,105,17,70,1
29,101,42,151,1
156,108,0,10,1
64,36,150,311,1
32,25,0,115,1
54,127,108,18,1
56,102,0,56,1
106,72,110,89,1
137,115,172,32,1
16,131,202,162,1
62,85,0,5,1
22,23,28,59,1
196,96,97,46,1
17,129,53,80,1
27,89,265,141,1
53,157,210,35,1
37,163,77,87,1
63,50,102,75,1
62,31,126,27,1
17,70,207,151,1
165,70,106,58,1
16,62,138,125,1
32,18,188,167,1
93,331,183,70,1
22,51,78,242,1
125,121,177,110,1
49,87,78,153,1
83,67,5,59,1
199,210,48,19,1
60,163,57,27,1
119,93,21,6,1
30,6,81,7,1
35,105,75,105,1
68,54,119,75,1
12,79,13,87,1
167,82,124,10,1
97,83,26,165,1
117,245,126,279,1
112,55,156,27,1
15,29,49,149,1
168,106,52,24,1
17,9,129,38,1
125,83,30,66,1
7,96,58,133,1
112,104,130,253,1
237,150,37,40,1
55,44,141,159,1
97,68,159,175,1
201,104,64,8,1
13,33,0,106,1
271,185,14,126,1
12,17,147,123,1
83,62,159,26,1
301,135,106,85,1
1,273,417,156,1
169,72,109,48,1
169,47,91,210,1
112,208,176,69,1
147,119,233,41,1
3,73,33,125,1
34,104,67,96,1
187,117,70,51,1
86,145,169,91,1
149,223,105,16,1
51,37,255,209,1
51,75,147,22,1
306,193,164,208,1
113,172,344,182,1
54,46,133,111,1
39,11,203,336,1
126,38,0,125,1
122,304,170,181,1
69,25,115,63,1
29,319,45,48,1
49,311,125,3,1
199,224,0,45,1
95,111,7,40,1
0,94,6,9,1
120,174,251,28,1
31,255,38,250,1
47,147,354,250,1
48,50,0,22,1
123,43,369,188,1
46,10,112,103,1
6,132,252,38,1
119,39,146,226,1
91,191,145,138,1
131,8,21,88,1
96,163,0,152,1
53,23,0,9,1
33,42,8,43,1
119,116,123,10,1
259,19,22,68,1
133,23,253,128,1
47,138,35,83,1
142,44,306,7,1
2,148,11,191,1
56,209,190,19,1
14,169,7,191,1
10,89,95,196,1
221,97,83,80,1
56,51,0,22,1
72,7,204,209,1
82,33,227,169,1
31,77,98,61,1
103,91,200,178,1
277,197,302,45,1
75,381,164,189,1
109,207,236,148,1
9,110,38,106,1
102,178,215,137,1
35,243,13,79,1
51,241,78,21,1
31,84,105,204,1
63,30,8,87,1
132,174,7,1,1
195,202,66,75,1
248,86,58,86,1
58,79,0,79,1
6,11,32,46,1
196,62,92,43,1
85,102,1,120,1
42,107,105,99,1
33,129,168,137,1
166,207,10,137,1
169,39,34,2,1
126,145,46,31,1
32,48,12,71,1
9,36,28,45,1
76,171,66,117,1
154,132,11,40,1
27,83,79,128,1
115,20,0,45,1
167,68,101,141,1
80,68,41,1,1
297,194,137,2,1
142,181,29,102,1
34,119,46,90,1
155,122,147,98,1
13,13,69,55,1
277,137,9,142,1
84,158,93,117,1
0,46,0,34,1
94,6,62,57,1
58,116,52,61,1
51,152,20,110,1
76,207,164,68,1
141,22,115,140,1
72,36,138,69,1
0,25,294,241,1
1,122,107,35,1
56,75,197,181,1
114,59,161,99,1
3,19,35,71,1
29,47,90,129,1
3,92,45,1,1
201,75,149,105,1
17,83,14,66,1
46,96,89,72,1
113,127,2,2,1
12,130,16,15,1
82,43,17,86,1
119,14,107,117,1
164,157,0,16,1
91,110,0,31,1
107,119,12,8,1
62,74,93,18,1
104,19,12,7,1
150,123,70,25,1
17,31,52,33,1
129,279,31,20,1
22,7,6,57,1
0,146,106,26,1
51,186,17,52,1
63,93,26,76,1
88,11,20,27,1
31,36,2,27,1
18,190,0,69,1
69,18,92,18,1
56,23,29,147,1
155,64,61,49,1
131,109,26,65,1
71,45,115,115,1
66,108,64,32,1
128,199,143,187,1
93,30,83,21,1
112,94,128,120,1
133,39,0,5,1
154,79,21,2,1
43,39,29,54,1
113,53,27,1,1
8,153,44,59,1
102,153,94,113,1
0,168,14,1,1
51,21,0,9,1
60,12,37,30,1
66,61,18,6,1
49,94,44,15,1
10,6,63,49,1
101,5,103,129,1
62,12,49,21,1
239,216,0,1,1
165,8,98,47,1
83,93,27,14,1
74,47,33,28,1
5,7,0,26,1
6,25,0,38,1
133,7,55,77,1
4,14,96,33,1
61,62,90,169,1
110,25,61,32,1
9,16,37,95,1
88,35,82,92,1
146,165,13,53,1
9,75,23,69,1
116,69,35,20,1
12,9,0,38,1
134,216,30,46,1
19,67,57,15,1
11,27,67,108,1
78,186,31,74,1
4,59,0,104,1
82,92,48,74,1
102,30,7,28,1
29,22,45,112,1
46,7,43,27,1
59,114,9,64,1
285,211,48,72,1
122,86,28,7,1
75,90,64,117,1
49,61,17,25,1
3,36,16,18,1
75,64,67,83,1
4,69,0,14,1
0,17,27,68,1
112,123,55,37,1
208,172,0,79,1
24,13,44,59,1
103,66,24,16,1
99,48,0,105,1
39,56,33,24,1
90,105,10,64,1
40,27,61,81,1
47,36,15,10,1
5,45,41,71,1
82,8,25,21,1
0,82,0,61,1
20,51,110,98,1
240,120,0,3,1
90,197,34,97,1
123,112,20,18,1
113,175,2,33,1
11,107,54,97,1
180,97,30,13,1
15,61,12,59,1
188,43,96,67,1
84,23,17,25,1
68,20,90,97,1
88,65,32,8,1
2,15,62,82,1
142,139,41,51,1
38,9,0,31,1
84,19,63,79,1
0,114,0,5,1
29,38,38,4,1
77,46,16,34,1
38,7,37,7,1
129,121,166,120,1
3,7,46,9,1
67,129,66,91,1
64,88,0,10,1
75,35,0,45,1
36,177,103,109,1
81,85,0,32,1
23,36,66,97,1
107,34,82,11,1
36,19,123,132,1
152,108,65,24,1
79,16,16,24,1
13,7,41,62,1
56,18,55,82,1
25,34,50,14,1
11,34,31,89,1
14,60,54,3,1
79,128,119,145,1
35,43,139,9,1
14,9,100,142,1
76,76,0,19,1
89,114,17,109,1
6,108,88,193,1
22,102,118,2,1
1,43,59,234,1
183,178,126,146,1
6,84,7,47,1
47,71,0,39,1
89,52,19,5,1
128,11,46,49,1
34,90,74,64,1
66,34,18,56,1
98,88,31,38,1
217,174,69,36,1
78,118,11,35,1
79,55,0,136,1
156,117,0,8,1
43,41,29,61,1
90,127,101,144,1
51,42,82,161,1
20,126,212,125,1
21,43,146,202,1
41,6,199,133,1
143,243,20,93,1
30,75,136,131,1
189,311,155,4,1
71,31,331,152,1
28,16,173,26,1
147,66,247,91,1
86,29,34,99,1
68,26,31,6,1
151,31,23,122,1
3,58,0,22,1
88,25,119,41,1
70,105,117,20,1
120,17,19,118,1
140,324,164,164,1
40,180,24,3,1
148,133,68,33,1
110,276,22,101,1
46,53,68,16,1
6,5,22,2,1
0,23,327,136,1
29,96,44,7,1
77,83,186,81,1
30,79,102,3,1
42,60,0,3,1
77,202,57,27,1
213,63,316,6,1
161,205,246,180,1
165,106,4,97,1
165,10,168,185,1
48,43,0,100,1
59,79,176,48,1
240,150,30,178,1
86,60,106,270,1
7,70,109,16,1
75,44,61,11,1
80,67,143,88,1
116,166,104,31,1
53,6,175,228,1
185,38,87,26,1
289,70,365,467,1
303,7,173,74,1
104,45,230,279,1
117,215,390,207,1
119,186,99,120,1
15,149,377,240,1
77,134,186,213,1
140,35,15,44,1
176,7,225,78,1
179,85,114,14,1
85,33,173,28,1
164,115,137,178,1
5,155,144,111,1
22,62,185,119,1
279,12,197,195,1
145,135,123,74,1
32,7,65,8,1
80,55,102,9,1
196,128,209,66,1
67,24,43,6,1
85,166,321,35,1
153,12,0,12,1
41,40,128,134,1
115,17,38,17,1
203,31,25,91,1
111,111,238,20,1
20,5,3,106,1
234,31,162,89,1
31,49,295,46,1
8,161,69,174,1
99,69,115,170,1
260,10,88,70,1
190,157,105,168,1
172,232,146,206,1
301,126,42,1,1
38,83,38,98,1
14,16,7,126,1
20,22,6,36,1
218,73,36,20,1
15,108,9,230,1
205,50,0,169,1
234,168,276,180,1
39,45,24,174,1
9,77,365,115,1
7,246,140,19,1
98,11,304,447,1
255,14,157,441,1
142,21,372,33,1
73,103,185,72,1
561,295,43,23,1
319,241,185,244,1
135,94,277,216,1
16,196,91,88,1
7,48,0,91,1
62,87,196,195,1
46,247,66,57,1
118,16,410,219,1
159,45,193,139,1
241,33,86,27,1
156,107,0,240,1
207,69,103,331,1
220,107,65,164,1
155,54,115,220,1
61,5,18,52,1
118,95,68,43,1
220,107,138,98,1
225,128,76,190,1
42,69,134,134,1
160,51,140,88,1
37,71,81,17,1
223,17,112,80,1
45,180,268,81,1
127,88,386,289,1
66,15,589,231,1
40,127,16,95,1
102,47,244,304,1
173,123,98,109,1
101,57,313,340,1
50,137,221,139,1
106,103,51,9,1
101,45,295,447,1
220,222,348,294,1
174,37,341,97,1
128,8,139,204,1
48,124,242,143,1
118,158,274,165,1
7,124,477,1,1
0,69,22,159,1
195,252,254,20,1
60,8,59,90,1
49,63,192,119,1
177,111,92,71,1
3,162,147,33,1
77,61,528,464,1
122,72,211,67,1
54,24,67,9,1
42,7,65,61,1
207,110,108,28,1
57,184,297,156,1
52,60,208,283,1
62,9,373,181,1
2,12,198,80,1
14,255,171,73,1
96,103,147,29,1
158,63,211,72,1
171,332,0,130,1
92,53,1,10,1
166,49,118,90,1
6,17,45,23,1
141,179,332,39,1
91,9,167,47,1
119,153,209,50,1
2,33,198,60,1
112,71,73,17,1
22,101,768,430,1
23,35,178,15,1
108,142,392,371,1
315,6,36,194,1
164,93,53,53,1
51,251,224,221,1
100,260,137,7,1
145,46,306,203,1
84,347,23,83,1
207,278,315,268,1
14,193,205,62,1
159,20,201,145,1
168,167,62,5,1
113,135,351,226,1
41,108,0,6,1
56,19,489,223,1
96,47,164,111,1
215,87,66,100,1
192,166,145,10,1
150,138,289,195,1
134,210,220,163,1
86,91,77,246,1
201,35,181,229,1
34,315,279,268,1
102,87,59,28,1
159,20,54,125,1
121,70,194,89,1
47,60,51,77,1
25,39,70,3,1
178,133,131,55,1
52,9,0,39,1
104,30,445,302,1
124,57,521,118,1
29,59,59,80,1
82,209,199,90,1
151,164,191,96,1
13,242,153,139,1
202,88,79,85,1
210,21,59,6,1
44,7,555,455,1
164,301,399,197,1
74,143,252,182,1
162,147,251,231,1
194,120,437,272,1
80,144,235,158,1
123,112,597,14,1
41,20,327,507,1
66,85,786,424,1
93,71,207,4,1
26,70,358,315,1
95,116,282,191,1
21,84,31,66,1
106,211,52,158,1
2,93,156,166,1
171,141,149,89,1
30,118,197,41,1
108,37,411,573,1
151,205,534,84,1
17,113,17,78,1
58,12,68,17,1
16,59,110,39,1
19,70,24,6,1
58,63,15,133,1
87,18,154,19,1
80,78,5,11,1
162,84,48,176,1
40,60,326,428,1
132,234,147,7,1
57,26,158,266,1
105,147,202,336,1
292,28,265,185,1
53,113,0,38,1
175,122,179,2,1
59,42,226,23,1
170,112,42,23,1
101,69,218,52,1
3,24,61,33,1
98,51,114,204,1
21,13,0,159,1
162,124,404,236,1
170,199,146,101,1
36,32,207,354,1
73,142,128,236,1
48,103,134,76,1
100,98,40,48,1
114,169,260,65,1
28,48,210,28,1
117,143,124,55,1
27,45,10,109,1
189,141,41,14,1
213,140,62,40,1
37,42,30,37,1
65,98,31,19,1
162,12,82,156,1
174,18,20,14,1
159,123,89,3,1
16,87,202,173,1
6,95,78,103,1
158,359,182,55,1
92,271,119,254,1
227,628,56,2,1
59,191,10,210,1
119,50,227,121,1
160,56,308,3,1
89,110,50,22,1
101,84,308,146,1
43,22,98,17,1
185,114,203,156,1
9,9,54,37,1
133,95,108,68,1
40,51,0,35,1
154,286,0,17,1
180,88,2,95,1
11,214,145,270,1
89,267,177,87,1
27,68,63,25,1
63,168,113,82,1
95,265,123,50,1
0,112,91,95,1
179,58,189,28,1
184,155,0,18,1
7,9,256,215,1
41,70,0,81,1
62,23,107,103,1
66,74,49,86,1
63,79,61,104,1
39,6,39,16,1
192,30,209,175,1
92,10,226,63,1
57,17,25,218,1
103,136,13,91,1
44,27,105,59,1
248,37,39,86,1
92,35,25,89,1
149,140,0,4,1
177,182,5,78,1
59,36,8,14,1
128,20,0,94,1
50,137,59,10,1
87,76,222,104,1
53,104,177,108,1
13,7,71,164,1
71,54,124,12,1
59,143,16,128,1
106,97,39,4,1
60,63,56,19,1
18,111,5,29,1
70,9,183,2,1
22,80,31,39,1
59,18,70,184,1
96,25,191,137,1
1,49,8,96,1
76,80,160,86,1
10,91,128,38,1
228,137,17,20,1
56,81,0,163,1
18,101,263,277,1
54,228,231,58,1
34,98,7,85,1
175,103,103,71,1
173,92,137,18,1
59,164,37,78,1
123,86,27,40,1
81,23,104,131,1
95,379,42,81,1
187,50,36,65,1
39,38,139,63,1
119,195,50,109,1
103,31,80,252,1
236,189,8,79,1
181,73,163,162,1
46,23,37,119,1
36,83,0,12,1
11,7,114,17,1
216,202,4,175,1
125,183,275,160,1
43,154,33,84,1
36,24,195,274,1
40,59,107,17,1
97,223,34,43,1
7,88,26,5,1
47,58,55,119,1
82,99,25,42,1
123,162,28,42,1
83,235,198,187,1
58,7,246,4,1
61,14,104,220,1
93,52,220,100,1
19,66,0,55,1
145,41,59,126,1
21,15,10,80,1
89,93,63,74,1
18,125,0,44,1
26,82,135,92,1
130,165,133,60,1
189,122,23,35,1
136,8,38,72,1
27,89,175,204,1
86,268,130,1,1
135,95,27,46,1
17,43,34,5,1
54,17,10,44,1
123,118,15,59,1
156,144,3,31,1
211,193,8,80,1
108,214,39,10,1
4,76,43,25,1
46,49,63,5,1
41,56,43,8,1
50,67,44,6,1
54,86,0,12,1
152,236,47,41,1
73,103,131,8,1
58,166,30,113,1
136,161,247,127,1
127,23,7,89,1
85,211,174,212,1
108,223,112,96,1
9,37,16,53,1
121,30,52,13,1
5,29,32,26,1
34,67,16,134,1
127,91,111,67,1
109,108,108,138,1
110,43,99,125,1
31,19,49,33,1
18,73,102,143,1
124,67,1,50,1
106,174,78,16,1
29,34,51,9,1
33,196,96,9,1
42,210,12,82,1
67,36,52,60,1
97,32,159,109,1
48,42,92,42,1
50,48,178,65,1
69,53,126,61,1
92,30,42,25,1
82,82,15,61,1
52,29,125,151,1
90,64,75,104,1
44,33,118,112,1
107,51,78,35,1
48,134,97,127,1
230,153,48,66,1
65,60,80,79,1
49,14,96,116,1
85,167,0,29,1
0,90,22,67,1
106,43,56,63,1
42,7,0,50,1
104,175,30,69,1
184,184,25,9,1
23,68,10,43,1
17,6,37,67,1
82,12,60,8,1
167,186,85,18,1
238,9,63,33,1
11,119,46,31,1
7,38,19,3,1
208,230,151,98,1
17,64,0,68,1
201,120,94,62,1
2,20,55,91,1
191,170,75,39,1
135,169,0,34,1
18,18,72,115,1
151,73,17,4,1
65,58,0,43,1
82,26,54,81,1
23,118,9,41,1
42,136,37,44,1
63,45,62,20,1
60,77,0,114,1
56,40,28,14,1
192,151,20,19,1
161,70,20,126,1
90,30,8,1,1
43,40,2,36,1
155,7,127,79,1
193,15,1,44,1
53,102,53,81,1
63,18,70,67,1
29,59,20,88,1
58,74,76,91,1
29,37,18,1,1
103,118,86,112,1
77,87,23,9,1
6,13,18,10,1
92,9,110,83,1
97,77,24,6,1
18,6,54,103,1
73,49,0,2,1
59,67,0,72,1
190,40,39,78,1
119,70,0,3,1
64,42,55,121,1
111,165,30,5,1
0,35,26,64,1
128,107,42,57,1
71,54,0,40,1
60,136,18,81,1
64,31,16,30,1
28,51,27,88,1
116,103,56,51,1
137,46,5,9,1
23,52,31,97,1
92,71,0,2,1
99,54,12,48,1
101,74,52,64,1
101,68,0,16,1
27,85,30,75,1
66,72,47,26,1
62,78,0,110,1
91,61,63,43,1
60,59,45,4,1
12,13,29,88,1
49,63,18,5,1
54,56,17,54,1
142,107,91,67,1
73,58,11,8,1
54,43,0,39,1
13,70,76,65,1
138,86,8,68,1
61,11,39,58,1
105,31,24,34,1
37,10,69,118,1
157,101,61,11,1
29,23,17,105,1
48,12,92,102,1
95,9,0,46,1
0,18,9,73,1
66,70,21,21,1
28,7,1,79,1
11,89,19,37,1
130,59,23,3,1
2,53,59,67,1
47,16,23,16,1
72,64,26,79,1
72,13,62,95,1
29,63,0,20,1
5,48,46,132,1
87,14,59,50,1
208,277,0,74,1
126,9,103,111,1
177,229,30,3,1
37,39,71,129,1
150,190,0,1,1
9,61,11,5,1
128,127,0,39,1
113,155,15,10,1
6,12,23,23,1
33,8,116,92,1
112,73,131,18,1
194,132,24,72,1
79,30,32,34,1
58,42,25,79,1
12,65,44,48,1
9,53,64,112,1
19,117,91,184,1
48,71,76,24,1
34,49,26,224,1
91,31,15,2,1
9,79,56,71,1
113,147,0,26,1
85,76,33,33,1
79,15,0,1,1
115,31,18,64,1
43,53,0,51,1
99,44,57,105,1
74,134,85,59,1
37,9,26,73,1
59,47,103,2,1
88,147,2,90,1
177,108,53,4,1
255,149,25,159,1
25,11,20,145,1
136,88,83,47,1
0,40,180,82,1
130,94,0,36,1
91,98,56,107,1
1,81,133,179,1
71,113,116,121,1
280,119,2,43,1
86,68,334,34,1
138,10,102,31,1
103,144,72,27,1
66,15,82,79,1
23,23,40,29,1
293,63,57,63,1
71,95,8,100,1
41,44,8,62,1
106,44,78,28,1
85,114,98,157,1
126,85,149,29,1
143,11,51,4,1
25,39,58,183,1
327,234,193,9,1
197,165,0,64,1
179,228,55,34,1
225,184,42,115,1
148,113,0,38,1
229,283,168,225,1
70,82,120,18,1
83,29,158,113,1
116,41,120,1,1
113,78,0,1,1
12,10,71,9,1
46,26,14,118,1
71,109,77,92,1
16,191,53,46,1
93,37,244,41,1
80,99,50,63,1
144,158,94,45,1
81,24,139,24,1
93,228,39,39,1
222,153,265,34,1
78,45,35,387,1
55,119,130,432,1
248,121,123,177,1
119,276,68,36,1
186,8,9,243,1
215,24,155,250,1
96,78,61,81,1
7,47,170,196,1
86,12,191,3,1
50,200,96,35,1
8,60,109,55,1
51,200,139,69,1
155,22,40,70,1
57,86,145,61,1
37,136,148,19,1
160,186,67,136,1
358,12,51,160,1
133,89,24,1,1
49,18,242,141,1
7,114,150,186,1
95,212,497,252,1
8,128,161,150,1
95,132,100,73,1
182,102,5,42,1
309,233,60,48,1
77,140,191,273,1
45,15,219,26,1
233,25,82,157,1
69,7,77,2,1
2,38,62,88,1
126,15,82,145,1
115,135,20,52,1
118,163,93,118,1
189,283,108,60,1
36,49,374,234,1
88,166,325,47,1
76,13,404,365,1
43,36,354,51,1
61,23,254,303,1
84,209,277,186,1
21,22,0,191,1
296,305,125,123,1
135,141,0,157,1
168,223,93,109,1
1,32,46,137,1
107,73,0,149,1
79,130,480,89,1
269,137,129,279,1
54,55,558,136,1
84,103,119,44,1
18,156,132,56,1
141,200,80,151,1
106,22,146,134,1
326,317,222,93,1
27,207,109,325,1
217,199,323,249,1
51,173,55,163,1
46,44,333,525,1
10,199,234,186,1
200,94,188,111,1
58,116,95,31,1
21,48,495,275,1
125,63,254,0,1
265,94,0,57,1
134,127,19,344,1
41,15,139,115,1
63,7,208,385,1
82,340,81,62,1
118,119,76,115,1
334,87,656,87,1
333,219,210,199,1
43,80,469,616,1
108,27,325,259,1
342,530,50,467,1
5,146,11,550,1
189,100,7,214,1
39,203,279,511,1
274,130,333,15,1
162,179,89,105,1
40,24,477,114,1
164,35,209,186,1
60,49,359,460,1
32,27,370,125,1
221,30,145,17,1
206,90,24,3,1
384,89,20,39,1
140,171,32,136,1
81,59,0,47,1
92,43,125,31,1
91,284,186,241,1
84,118,40,9,1
21,29,142,60,1
167,49,85,26,1
84,245,367,116,1
74,29,81,74,1
4,183,559,378,1
28,79,328,250,1
217,56,108,11,1
270,96,150,263,1
62,109,154,19,1
92,16,77,267,1
29,100,218,317,1
229,13,93,108,1
36,59,197,25,1
37,65,328,216,1
108,10,676,78,1
8,84,198,88,1
290,49,233,14,1
295,193,306,58,1
82,95,112,75,1
100,434,397,76,1
61,196,153,195,1
177,181,380,136,1
90,97,129,326,1
192,5,390,272,1
175,50,0,162,1
45,25,244,192,1
247,252,0,40,1
48,17,163,54,1
86,78,160,230,1
119,158,394,189,1
156,85,131,223,1
106,172,345,219,1
84,162,156,34,1
141,36,601,456,1
5,86,101,152,1
298,90,161,301,1
32,41,74,58,1
0,213,47,42,1
111,38,241,22,1
95,67,85,83,1
20,136,209,43,1
156,44,239,248,1
124,82,40,77,1
64,13,0,84,1
125,93,4,16,1
84,78,219,163,1
121,52,5,5,1
1,45,117,89,1
124,62,33,1,1
159,33,95,103,1
30,26,101,37,1
222,64,120,81,1
83,43,463,148,1
68,23,210,340,1
15,58,266,116,1
40,17,70,229,1
274,68,141,41,1
171,86,39,89,1
33,119,114,212,1
28,166,93,102,1
7,123,0,152,1
146,91,279,209,1
141,46,92,134,1
141,31,400,172,1
191,70,27,117,1
67,108,278,123,1
217,92,43,142,1
125,94,253,8,1
3,13,265,257,1
61,81,213,77,1
30,73,333,178,1
55,63,151,76,1
87,13,105,238,1
115,15,48,186,1
115,157,186,171,1
0,474,0,53,1
107,22,126,89,1
83,24,53,125,1
3,76,264,290,1
184,34,70,86,1
139,76,207,265,1
124,96,391,350,1
121,23,124,62,1
1,104,194,189,1
6,136,34,6,1
56,316,25,196,1
225,101,466,300,1
75,33,41,72,1
78,34,149,369,1
127,24,81,22,1
76,20,202,256,1
40,9,296,262,1
251,70,14,117,1
4,34,171,176,1
81,54,254,109,1
65,41,19,259,1
60,125,494,221,1
1,54,184,48,1
32,12,170,269,1
132,88,115,32,1
11,38,145,13,1
72,66,74,33,1
83,40,123,41,1
151,118,66,227,1
114,218,199,140,1
10,118,7,29,1
48,99,16,92,1
59,44,11,16,1
361,21,74,18,1
48,67,238,219,1
6,46,139,42,1
152,84,157,87,1
58,31,71,144,1
50,40,143,108,1
89,8,60,16,1
42,111,179,245,1
38,212,196,83,1
22,53,162,190,1
116,18,48,115,1
118,79,80,15,1
78,105,102,80,1
167,71,177,285,1
147,56,91,7,1
53,37,139,211,1
38,113,146,55,1
105,47,46,157,1
126,117,134,93,1
96,118,103,46,1
5,32,171,308,1
176,274,99,49,1
31,39,5,120,1
107,67,14,35,1
102,130,41,77,1
6,9,3,51,1
152,103,62,63,1
8,40,122,82,1
204,155,372,123,1
160,182,120,6,1
4,25,40,26,1
15,23,138,3,1
22,15,58,130,1
144,162,125,153,1
167,9,67,129,1
73,45,32,53,1
0,211,65,15,1
42,98,319,291,1
81,16,269,178,1
3,15,186,117,1
32,136,110,191,1
101,193,57,1,1
80,118,11,19,1
83,50,121,130,1
134,51,57,21,1
109,75,79,81,1
147,225,64,15,1
34,124,64,43,1
91,40,217,222,1
98,100,130,3,1
27,13,232,268,1
15,134,0,61,1
54,39,359,311,1
75,11,150,203,1
19,7,149,79,1
76,49,55,47,1
159,160,23,34,1
42,56,25,85,1
95,41,111,17,1
159,58,26,27,1
26,15,400,259,1
305,360,204,142,1
32,95,9,8,1
68,129,60,136,1
16,6,111,119,1
1,7,11,3,1
77,92,39,95,1
74,95,155,146,1
162,10,52,1,1
240,189,69,114,1
37,142,180,185,1
147,100,71,57,1
10,35,66,45,1
159,93,135,44,1
108,137,157,5,1
58,126,94,45,1
50,46,61,76,1
64,46,10,24,1
203,196,44,91,1
76,54,0,16,1
20,9,57,11,1
135,106,12,57,1
8,57,125,9,1
38,27,11,9,1
77,146,82,97,1
184,5,0,71,1
107,95,47,25,1
111,43,53,9,1
44,18,11,82,1
56,71,269,83,1
9,92,94,167,1
111,111,274,243,1
57,19,45,3,1
107,129,46,36,1
167,141,144,233,1
4,166,210,183,1
5,15,144,365,1
133,109,125,5,1
70,27,0,19,1
49,43,69,122,1
20,34,40,53,1
176,43,82,121,1
69,111,26,136,1
141,19,55,64,1
60,15,33,126,1
97,77,53,98,1
92,6,77,32,1
52,91,144,87,1
67,29,0,15,1
105,81,78,158,1
55,14,11,24,1
143,32,6,61,1
23,17,0,1,1
53,80,28,29,1
72,139,125,14,1
43,18,1,19,1
15,21,124,55,1
28,166,23,205,1
265,110,84,60,1
49,31,77,199,1
70,20,37,66,1
166,36,111,11,1
55,83,44,76,1
88,6,134,113,1
171,116,6,19,1
14,34,89,96,1
96,35,42,17,1
44,95,95,92,1
150,64,79,1,1
35,87,159,39,1
52,127,226,78,1
132,6,79,34,1
24,61,11,21,1
271,142,154,136,1
14,39,15,86,1
69,29,215,155,1
8,20,13,37,1
84,44,141,86,1
120,55,39,45,1
182,221,90,204,1
57,108,0,2,1
18,63,82,68,1
37,31,6,28,1
124,55,0,20,1
109,14,0,5,1
66,35,108,158,1
77,12,128,108,1
63,105,78,123,1
102,169,102,15,1
93,82,128,164,1
73,114,66,71,1
145,47,0,17,1
24,73,79,9,1
53,115,141,133,1
87,31,167,87,1
91,28,45,89,1
2,114,76,78,1
44,119,62,11,1
215,106,90,109,1
142,108,91,49,1
8,17,254,129,1
107,24,55,39,1
1,34,206,217,1
70,27,90,50,1
191,135,32,72,1
120,58,0,30,1
151,33,105,37,1
114,72,0,41,1
135,57,121,83,1
133,216,12,13,1
1,7,64,131,1
152,23,0,6,1
65,20,5,80,1
101,137,58,83,1
97,90,0,38,1
8,58,32,81,1
136,80,115,18,1
32,30,16,126,1
113,43,103,12,1
48,11,5,20,1
43,53,48,88,1
87,73,7,14,1
17,137,0,72,1
258,80,103,88,1
125,30,0,96,1
148,180,71,91,1
89,70,37,2,1
59,97,27,79,1
58,27,38,18,1
89,95,5,33,1
49,7,82,144,1
74,53,41,0,1
46,168,0,31,1
87,37,90,59,1
103,101,0,16,1
32,55,37,77,1
117,10,28,4,1
1,153,0,69,1
149,118,54,50,1
55,22,0,40,1
6,77,28,94,1
63,15,0,10,1
32,37,0,19,1
83,70,62,31,1
26,11,13,31,1
76,93,56,110,1
170,148,28,3,1
38,23,27,75,1
133,75,46,59,1
22,5,0,43,1
81,42,52,111,1
34,10,12,4,1
16,28,11,97,1
36,61,71,54,1
99,12,0,35,1
100,11,40,66,1
72,31,50,20,1
34,7,44,52,1
81,19,56,60,1
28,120,0,9,1
2,46,80,120,1
24,15,47,5,1
16,32,0,45,1
146,63,41,25,1
156,129,0,47,1
34,24,10,44,1
76,9,9,11,1
38,44,3,81,1
134,97,84,39,1
36,35,17,24,1
81,98,61,120,1
156,176,3,70,1
20,23,31,85,1
72,39,72,36,1
30,35,5,59,1
19,134,45,110,1
48,107,31,7,1
78,110,17,97,1
147,118,14,43,1
136,41,0,6,1
34,59,12,65,1
106,49,9,3,1
32,83,0,53,1
84,55,72,66,1
120,108,45,7,1
107,64,111,85,1
24,51,58,11,1
37,74,67,100,1
124,8,60,53,1
44,11,16,18,1
9,59,94,107,1
96,42,0,12,1
6,5,16,78,1
63,8,88,74,1
131,87,0,63,1
42,13,92,78,1
80,60,15,28,1
17,70,80,120,1
71,19,35,26,1
105,86,28,8,1
38,31,0,41,1
142,86,0,4,1
66,127,3,67,1
106,31,97,77,1
99,143,0,84,1
84,9,31,101,1
124,38,14,30,1
53,15,16,66,1
132,134,28,80,1
95,15,24,31,1
153,282,0,50,1
133,122,47,8,1
71,90,41,116,1
99,51,100,52,1
91,94,66,45,1
3,67,0,28,1
135,91,22,41,1
3,50,54,16,1
85,12,18,86,1
65,35,69,26,1
25,36,77,114,1
135,205,13,29,1
29,121,133,183,1
157,290,81,3,1
33,53,0,54,1
101,7,91,88,1
116,7,69,42,1
116,183,216,133,1
179,115,69,52,1
249,402,174,125,1
34,34,1,9,1
125,106,60,7,1
47,8,202,3,1
11,32,0,178,1
142,89,249,23,1
28,125,69,266,1
123,87,133,74,1
16,91,65,81,1
204,199,51,60,1
58,12,0,34,1
163,31,146,168,1
85,31,77,11,1
58,55,223,157,1
110,173,57,15,1
57,71,62,84,1
53,78,0,51,1
82,38,130,82,1
2,37,17,138,1
83,62,168,124,1
57,55,3,42,1
68,13,101,106,1
51,6,0,27,1
39,7,4,46,1
172,87,74,61,1
22,68,0,3,1
150,93,62,42,1
47,111,35,2,1
94,232,45,104,1
34,19,75,56,1
37,121,16,10,1
88,39,22,65,1
213,148,17,26,1
45,43,0,77,1
106,26,82,65,1
131,205,0,5,1
91,9,36,77,1
125,157,5,3,1
13,53,106,124,1
162,113,5,1,1
84,30,14,18,1
3,65,21,54,1
6,16,0,40,1
18,48,28,29,1
93,6,90,88,1
86,85,10,46,1
30,48,106,13,1
168,158,31,132,1
50,169,93,52,1
111,9,58,110,1
55,52,78,69,1
150,113,0,81,1
129,88,162,103,1
12,18,223,278,1
65,10,261,4,1
118,74,125,147,1
57,93,81,1,1
43,189,0,169,1
83,12,113,124,1
143,123,22,14,1
47,67,10,4,1
54,53,134,80,1
109,116,66,28,1
75,7,136,5,1
37,22,16,69,1
31,76,18,171,1
82,95,148,279,1
203,155,43,55,1
59,62,122,212,1
100,61,14,63,1
23,34,13,3,1
87,76,64,87,1
91,36,60,15,1
36,56,43,32,1
150,10,60,116,1
113,108,141,26,1
89,28,158,259,1
214,146,246,56,1
69,192,259,196,1
222,26,296,17,1
100,133,279,197,1
105,82,177,39,1
165,56,315,250,1
30,26,262,62,1
213,171,48,236,1
116,71,79,45,1
273,148,171,21,1
41,137,24,268,1
1,11,177,93,1
264,85,19,14,1
50,40,107,92,1
47,54,51,165,1
59,56,252,140,1
3,130,379,54,1
91,22,119,154,1
85,149,376,100,1
8,261,184,109,1
67,10,122,54,1
48,65,89,95,1
62,158,0,43,1
39,71,63,31,1
64,25,26,137,1
117,135,117,25,1
51,117,104,14,1
128,73,190,269,1
64,15,251,83,1
81,82,21,233,1
39,87,216,235,1
5,173,211,14,1
154,61,1,110,1
86,25,266,17,1
80,21,357,100,1
163,146,46,198,1
61,172,314,335,1
88,145,130,153,1
107,66,356,202,1
113,38,107,102,1
125,138,147,80,1
16,7,52,112,1
273,209,23,96,1
63,224,84,60,1
34,252,187,205,1
79,44,320,186,1
53,29,246,102,1
30,9,357,53,1
132,43,278,145,1
42,148,176,66,1
13,19,41,35,1
67,68,160,120,1
75,49,208,150,1
27,33,349,61,1
11,92,195,148,1
43,254,254,97,1
42,39,33,322,1
24,192,17,341,1
126,196,48,51,1
9,83,72,65,1
273,165,132,113,1
150,360,176,277,1
48,230,247,170,1
88,175,100,11,1
141,90,124,130,1
3,174,267,119,1
88,106,121,174,1
23,19,241,1,1
136,59,162,108,1
129,121,151,40,1
112,62,83,95,1
54,198,0,156,1
169,109,15,70,1
117,12,183,184,1
98,7,245,134,1
16,55,63,245,1
165,54,69,7,1
175,39,144,156,1
0,39,247,178,1
27,194,225,73,1
17,39,181,93,1
97,23,123,158,1
266,74,272,99,1
256,24,131,44,1
176,77,11,20,1
256,122,181,9,1
6,170,0,53,1
139,33,62,5,1
11,136,285,69,1
88,63,0,74,1
112,41,24,1,1
65,14,168,149,1
46,155,161,492,1
21,64,0,51,1
67,88,335,303,1
132,49,3,119,1
110,90,363,124,1
116,73,6,27,1
176,43,0,57,1
8,126,212,1,1
15,55,241,32,1
92,130,2,29,1
296,89,174,77,1
52,9,11,221,1
213,279,0,60,1
6,77,57,81,1
17,32,82,406,1
6,77,124,151,1
99,55,64,52,1
74,95,84,32,1
110,176,41,75,1
40,277,190,188,1
127,10,81,48,1
4,52,26,24,1
70,6,72,156,1
47,62,200,151,1
50,9,408,163,1
111,30,313,117,1
8,8,142,152,1
92,12,227,99,1
75,8,280,217,1
87,51,493,94,1
167,46,151,143,1
91,71,177,157,1
50,103,288,188,1
70,167,96,67,1
62,20,219,587,1
89,159,104,32,1
186,81,200,284,1
23,90,489,258,1
167,142,166,21,1
54,95,574,373,1
67,105,286,178,1
6,125,86,226,1
21,189,225,69,1
46,38,33,368,1
46,53,157,128,1
46,69,65,19,1
232,268,161,136,1
133,139,14,69,1
73,316,67,207,1
86,40,185,242,1
116,155,245,9,1
45,46,197,39,1
229,47,135,203,1
258,10,38,126,1
175,72,172,235,1
128,186,251,328,1
61,203,234,176,1
140,28,23,109,1
100,62,59,201,1
65,166,310,281,1
189,33,478,193,1
287,119,157,35,1
8,190,338,83,1
69,111,0,13,1
108,211,358,4,1
314,118,254,177,1
146,37,80,62,1
51,105,273,182,1
128,14,16,212,1
53,216,11,99,1
74,186,55,7,1
109,433,103,156,1
14,119,99,13,1
55,137,636,301,1
30,74,97,105,1
153,243,222,13,1
29,113,203,259,1
45,115,263,211,1
104,19,29,80,1
105,12,426,185,1
109,159,22,13,1
168,73,694,455,1
253,62,442,324,1
249,83,323,66,1
170,99,150,85,1
277,50,278,229,1
101,40,185,37,1
166,61,134,161,1
206,144,389,25,1
188,49,39,234,1
118,20,292,325,1
165,113,179,110,1
19,119,259,189,1
84,20,18,27,1
116,106,101,117,1
253,240,71,4,1
201,144,50,9,1
97,25,7,70,1
201,127,82,109,1
7,38,0,34,1
347,142,178,220,1
67,91,107,366,1
13,69,78,205,1
134,79,41,229,1
0,23,183,143,1
217,65,269,202,1
122,202,8,156,1
123,19,83,3,1
171,203,274,36,1
55,71,62,287,1
17,341,215,122,1
153,107,278,244,1
98,50,414,176,1
4,15,69,102,1
25,74,38,209,1
89,109,177,94,1
181,75,40,119,1
64,138,194,79,1
192,63,69,1,1
131,65,256,136,1
157,49,36,31,1
138,144,5,42,1
116,87,116,241,1
137,120,128,151,1
16,22,78,114,1
351,111,125,151,1
69,45,70,71,1
269,267,135,246,1
253,191,115,11,1
104,179,148,77,1
81,47,205,137,1
156,133,255,21,1
31,16,83,65,1
153,63,11,66,1
8,9,0,184,1
196,95,0,64,1
143,88,114,19,1
224,55,203,60,1
130,35,180,207,1
144,221,395,211,1
93,31,0,186,1
112,59,235,269,1
82,31,252,132,1
121,11,43,3,1
21,37,89,202,1
134,230,200,142,1
10,53,4,31,1
68,9,60,14,1
86,69,28,3,1
68,24,0,169,1
234,242,169,251,1
100,33,152,61,1
58,130,111,144,1
133,45,230,70,1
50,39,252,29,1
57,65,19,239,1
37,233,208,183,1
88,12,61,3,1
183,34,203,98,1
51,55,236,296,1
185,262,264,134,1
168,277,207,328,1
15,30,238,197,1
78,57,28,49,1
30,5,55,10,1
65,107,46,39,1
110,34,15,111,1
94,47,223,239,1
154,161,175,95,1
26,27,154,171,1
166,189,29,25,1
49,62,117,105,1
51,145,107,20,1
120,8,54,51,1
21,42,65,23,1
233,66,39,90,1
168,23,54,49,1
20,15,87,5,1
83,60,154,76,1
15,82,117,41,1
149,78,103,31,1
126,142,48,21,1
113,36,0,42,1
51,29,7,1,1
2,8,117,5,1
150,34,159,39,1
246,125,219,54,1
83,21,84,80,1
93,104,83,22,1
69,64,26,75,1
21,74,31,99,1
38,37,105,24,1
158,45,38,61,1
169,119,35,139,1
35,9,0,172,1
222,133,79,49,1
185,34,7,84,1
28,18,101,198,1
266,105,37,42,1
35,9,0,7,1
205,133,188,3,1
95,99,128,47,1
27,88,201,199,1
78,95,161,6,1
1,19,160,114,1
241,236,210,217,1
99,9,77,220,1
46,187,333,231,1
149,24,18,31,1
87,46,68,143,1
91,47,17,8,1
115,206,74,9,1
51,18,26,21,1
164,9,15,44,1
74,33,98,19,1
84,31,59,157,1
94,134,7,69,1
23,64,3,12,1
77,61,52,12,1
43,50,0,40,1
187,123,38,1,1
4,38,104,163,1
97,54,9,30,1
73,134,112,65,1
50,18,150,20,1
179,148,73,119,1
93,37,33,1,1
99,13,39,199,1
86,20,0,26,1
5,26,33,52,1
100,129,5,130,1
49,77,235,172,1
23,135,125,143,1
142,27,64,146,1
59,31,72,43,1
108,20,33,144,1
142,184,41,28,1
75,24,117,60,1
29,60,69,126,1
25,10,277,234,1
233,176,152,110,1
49,8,186,214,1
120,250,187,115,1
32,55,80,133,1
70,183,12,77,1
127,74,85,37,1
118,69,94,2,1
168,183,14,68,1
65,74,136,217,1
1,15,113,81,1
28,30,228,183,1
81,26,235,7,1
20,9,194,93,1
140,209,265,55,1
37,56,0,98,1
128,88,336,178,1
128,121,166,50,1
1,45,158,144,1
110,207,86,16,1
30,13,124,76,1
120,186,91,9,1
122,169,91,29,1
69,132,117,125,1
154,46,130,39,1
73,14,82,121,1
19,8,65,76,1
5,51,99,84,1
149,177,111,10,1
1,121,192,26,1
9,16,135,167,1
59,102,242,105,1
26,7,1,82,1
33,53,100,51,1
155,70,45,8,1
11,6,0,7,1
7,7,168,50,1
0,132,0,7,1
76,52,158,78,1
41,68,19,133,1
11,19,229,163,1
165,110,16,4,1
122,118,137,106,1
135,227,10,75,1
31,71,68,88,1
39,7,60,4,1
96,27,225,149,1
13,138,28,74,1
110,39,235,108,1
5,83,66,64,1
42,15,71,155,1
37,133,8,40,1
40,69,123,26,1
86,53,143,117,1
141,142,240,50,1
49,16,185,278,1
40,5,130,80,1
40,11,55,93,1
83,70,0,62,1
125,69,110,112,1
14,26,8,114,1
102,12,221,171,1
43,6,7,33,1
71,45,98,118,1
97,110,0,39,1
45,64,19,43,1
290,180,38,2,1
56,97,39,31,1
120,37,75,97,1
70,103,15,1,1
2,49,16,49,1
114,128,0,14,1
36,50,0,22,1
159,71,70,83,1
96,75,0,26,1
79,27,39,87,1
75,35,52,54,1
4,14,0,49,1
84,71,37,45,1
133,76,4,2,1
47,41,31,105,1
134,7,57,30,1
112,36,3,23,1
99,46,88,130,1
1,76,35,21,1
6,75,0,50,1
170,124,87,28,1
133,14,0,1,1
157,6,76,33,1
25,86,43,51,1
3,29,89,99,1
24,127,7,21,1
127,123,0,25,1
56,76,61,77,1
10,161,0,11,1
42,35,22,93,1
124,11,92,53,1
37,47,14,57,1
107,35,63,113,1
103,43,24,19,1
23,33,27,98,1
32,50,38,19,1
15,34,0,61,1
227,247,83,114,1
143,212,41,14,1
12,70,75,108,1
81,6,69,68,1
158,99,0,40,1
48,131,55,84,1
53,37,14,2,1
31,47,3,93,1
127,88,34,16,1
63,29,0,38,1
42,44,65,73,1
134,104,0,22,1
94,111,21,78,1
103,87,44,14,1
116,355,2,56,1
172,73,38,86,1
167,210,22,10,1
28,81,38,85,1
174,224,38,1,1
106,83,0,28,1
176,139,52,77,1
102,70,16,50,1
2,41,72,93,1
0,85,66,63,1
32,11,17,64,1
50,90,15,47,1
7,10,50,8,1
1,26,36,86,1
104,46,89,52,1
11,28,0,55,1
80,36,85,79,1
137,66,0,15,1
34,9,36,82,1
82,57,39,43,1
98,61,0,8,1
68,31,40,45,1
60,79,20,5,1
0,94,33,115,1
188,87,35,16,1
18,9,0,31,1
113,97,83,99,1
93,32,0,30,1
21,24,47,64,1
79,27,45,35,1
44,108,8,53,1
165,35,51,68,1
47,7,22,9,1
2,15,62,105,1
63,7,46,30,1
8,31,0,45,1
79,101,63,104,1
103,18,6,8,1
8,8,27,99,1
27,48,45,43,1
62,162,0,27,1
64,33,32,66,1
7,39,15,7,1
14,52,53,77,1
140,132,19,32,1
41,24,28,15,1
40,9,7,95,1
91,12,109,30,1
37,54,0,91,1
139,9,53,50,1
18,15,0,41,1
6,122,12,68,1
43,9,41,13,1
4,21,19,66,1
89,93,40,15,1
15,5,5,27,1
77,14,103,98,1
125,159,14,11,1
69,27,136,138,1
120,18,73,37,1
33,75,64,48,1
32,43,17,31,1
2,82,0,14,1
67,23,18,66,1
143,31,34,41,1
40,11,12,32,1
105,42,40,83,1
118,28,38,35,1
4,71,0,53,1
102,45,135,70,1
2,53,77,143,1
86,45,111,115,1
218,107,78,33,1
74,173,15,95,1
143,73,20,130,1
38,38,101,5,1
67,68,88,148,1
0,14,137,88,1
11,61,80,56,1
15,58,67,26,1
124,85,17,30,1
11,62,29,39,1
136,91,23,51,1
7,145,26,2,1
56,28,34,1,1
56,64,99,1,1
47,89,58,119,1
111,55,0,24,1
90,89,17,175,1
142,20,63,202,1
91,66,114,69,1
55,31,0,100,1
11,98,55,13,1
50,59,67,43,1
2,101,23,53,1
90,146,37,26,1
68,33,0,84,1
184,97,43,109,1
50,242,25,153,1
103,145,145,82,1
8,13,180,218,1
232,215,90,191,1
248,306,141,52,1
22,91,12,167,1
273,52,25,98,1
136,42,152,30,1
0,158,0,96,1
74,50,0,49,1
79,115,71,103,1
67,13,2,19,1
22,26,66,144,1
242,49,22,4,1
187,10,277,3,1
111,49,84,257,1
133,7,273,55,1
267,93,25,182,1
51,42,231,124,1
134,93,18,178,1
104,97,203,58,1
8,213,119,279,1
29,130,30,310,1
14,9,37,54,1
188,99,94,124,1
63,250,6,194,1
116,19,118,1,1
1,42,90,16,1
86,165,90,57,1
28,77,75,147,1
20,342,27,89,1
113,47,41,72,1
62,23,81,88,1
118,132,110,58,1
268,44,50,4,1
80,66,147,178,1
180,111,159,171,1
55,219,45,86,1
300,43,155,112,1
64,34,90,121,1
79,49,37,121,1
126,30,71,92,1
131,217,326,217,1
148,21,81,22,1
69,213,187,57,1
5,295,134,221,1
79,93,32,66,1
100,60,144,169,1
92,94,70,56,1
179,58,103,1,1
115,39,239,104,1
51,52,93,80,1
13,87,238,191,1
201,14,42,253,1
57,45,23,267,1
88,18,121,156,1
65,22,140,49,1
55,57,451,71,1
45,81,82,197,1
22,55,373,235,1
139,25,37,209,1
161,186,344,99,1
96,69,183,130,1
53,50,0,137,1
20,126,202,102,1
13,15,169,92,1
120,24,0,133,1
5,178,134,95,1
222,351,48,21,1
28,64,274,193,1
36,180,139,69,1
102,151,200,328,1
4,8,378,128,1
117,58,11,305,1
5,157,88,237,1
84,15,63,116,1
268,7,77,245,1
71,260,0,346,1
208,184,9,128,1
142,292,21,28,1
71,5,12,10,1
155,139,130,26,1
83,110,231,270,1
141,74,108,96,1
162,95,110,342,1
125,134,225,144,1
67,31,412,85,1
237,367,3,307,1
38,66,587,349,1
144,73,212,137,1
13,164,68,428,1
292,163,178,84,1
124,148,31,256,1
214,260,445,83,1
126,336,90,107,1
201,164,237,213,1
0,363,347,334,1
12,40,0,54,1
34,13,153,319,1
141,122,0,112,1
18,93,210,73,1
123,117,234,141,1
3,150,9,123,1
64,73,35,114,1
114,81,3,7,1
10,28,25,77,1
5,131,271,33,1
7,62,26,5,1
18,194,27,310,1
173,155,16,24,1
9,12,113,77,1
224,88,161,143,1
9,8,125,159,1
319,15,333,404,1
303,48,14,11,1
145,58,569,708,1
298,67,257,84,1
168,113,746,266,1
144,139,126,65,1
166,47,190,35,1
146,127,0,31,1
241,155,201,120,1
4,23,114,145,1
113,45,369,180,1
28,103,6,311,1
58,106,239,147,1
163,101,40,117,1
84,21,184,35,1
292,62,321,221,1
344,41,166,306,1
25,12,547,71,1
224,95,69,205,1
214,281,0,191,1
52,105,177,52,1
101,97,271,111,1
105,84,320,187,1
213,61,29,210,1
5,250,8,20,1
156,140,369,100,1
180,121,0,94,1
3,169,0,205,1
187,390,51,239,1
153,161,240,2,1
295,359,216,7,1
328,37,0,15,1
304,397,11,107,1
312,163,260,7,1
2,24,129,27,1
95,79,472,127,1
138,107,81,38,1
34,56,494,285,1
98,135,364,237,1
63,43,206,195,1
213,74,96,82,1
280,89,181,100,1
86,115,81,170,1
98,163,175,110,1
20,25,58,276,1
180,115,89,140,1
193,280,21,215,1
52,123,139,18,1
105,130,225,326,1
110,26,187,211,1
7,124,94,53,1
76,123,124,69,1
76,143,75,43,1
252,127,217,24,1
96,10,95,76,1
47,86,214,236,1
80,199,374,316,1
56,20,237,88,1
183,172,49,194,1
216,56,190,46,1
90,7,313,109,1
68,10,229,86,1
60,61,165,42,1
125,26,185,86,1
4,33,226,248,1
108,23,305,169,1
69,38,0,190,1
65,15,182,45,1
288,15,263,180,1
0,27,132,33,1
179,313,0,50,1
67,7,217,17,1
113,217,371,320,1
122,202,100,79,1
39,14,163,157,1
121,27,320,286,1
38,231,83,111,1
195,7,159,452,1
53,129,5,23,1
67,104,83,356,1
232,161,59,115,1
132,113,66,127,1
66,9,157,295,1
98,152,252,269,1
76,52,41,101,1
131,146,84,84,1
156,141,29,3,1
90,149,346,260,1
108,132,129,30,1
79,10,266,341,1
216,387,306,142,1
220,124,40,139,1
32,188,245,201,1
99,25,110,35,1
10,17,117,163,1
94,126,136,74,1
118,76,22,43,1
38,10,0,153,1
151,80,0,191,1
103,84,214,212,1
182,43,31,81,1
388,105,214,79,1
72,67,311,243,1
37,46,1,70,1
3,126,411,401,1
57,75,463,203,1
38,124,46,111,1
68,86,0,15,1
72,90,70,8,1
35,357,21,97,1
156,220,103,3,1
68,15,254,141,1
33,60,68,4,1
120,101,0,122,1
8,69,433,237,1
42,123,181,300,1
151,115,0,25,1
289,9,0,142,1
76,23,74,77,1
222,157,94,175,1
133,69,542,74,1
15,109,183,80,1
215,231,198,140,1
200,285,59,2,1
134,143,156,73,1
59,84,155,139,1
165,242,42,150,1
97,12,79,31,1
149,85,76,141,1
30,77,141,113,1
233,119,98,40,1
465,125,41,31,1
52,70,50,36,1
240,96,8,99,1
30,79,100,132,1
183,87,169,21,1
79,116,130,8,1
142,147,123,238,1
54,55,68,108,1
9,85,168,90,1
102,122,33,49,1
195,115,156,11,1
58,111,53,12,1
145,259,103,97,1
11,25,2,96,1
102,151,177,146,1
154,18,131,115,1
12,70,11,50,1
106,73,41,1,1
118,29,14,110,1
72,115,55,80,1
113,67,27,26,1
8,42,142,149,1
152,51,84,33,1
42,25,129,91,1
167,273,359,221,1
109,143,0,26,1
6,63,375,312,1
18,19,131,4,1
157,71,2,184,1
32,145,0,45,1
107,118,203,140,1
95,6,138,32,1
74,177,9,22,1
54,109,55,9,1
103,68,76,56,1
36,36,0,78,1
6,10,34,3,1
79,110,0,66,1
144,55,18,36,1
73,8,92,28,1
133,97,17,72,1
16,80,30,5,1
98,60,101,90,1
6,41,0,53,1
208,99,215,196,1
121,21,201,123,1
41,19,51,24,1
131,24,60,57,1
6,8,80,10,1
167,25,67,98,1
18,85,16,33,1
75,21,2,49,1
128,115,76,62,1
105,145,119,39,1
129,150,105,90,1
59,58,11,117,1
5,108,1,94,1
111,114,131,77,1
49,147,139,85,1
44,257,78,36,1
88,125,42,10,1
90,17,51,4,1
14,59,130,107,1
213,267,76,199,1
173,190,95,44,1
275,31,109,57,1
102,164,37,61,1
121,77,196,12,1
3,35,73,121,1
183,75,230,16,1
139,89,79,31,1
5,24,195,170,1
74,84,68,9,1
64,98,137,166,1
127,69,126,171,1
19,32,371,134,1
70,71,82,104,1
188,51,54,1,1
168,52,59,68,1
206,86,27,124,1
49,11,184,107,1
29,130,0,2,1
69,119,18,21,1
0,82,69,87,1
204,326,97,177,1
166,84,201,81,1
44,76,42,82,1
67,103,142,39,1
88,187,76,71,1
136,45,100,64,1
54,89,44,126,1
15,53,201,105,1
131,29,0,24,1
122,140,17,166,1
23,12,127,152,1
46,7,168,149,1
148,79,68,190,1
6,11,213,27,1
114,23,230,261,1
127,102,273,11,1
35,21,176,89,1
67,5,140,146,1
70,15,54,59,1
9,5,1,36,1
111,45,148,154,1
184,77,26,2,1
95,166,132,161,1
146,225,82,74,1
59,120,0,58,1
195,80,95,86,1
54,69,164,136,1
85,139,77,47,1
67,199,151,290,1
51,24,0,17,1
133,137,153,171,1
46,163,16,105,1
37,38,95,196,1
29,45,79,40,1
114,120,1,183,1
155,134,0,25,1
23,42,185,19,1
4,46,59,167,1
15,6,157,124,1
85,166,66,166,1
189,308,0,83,1
17,50,166,127,1
16,231,37,6,1
147,154,23,48,1
52,74,114,30,1
56,113,14,81,1
213,169,66,109,1
152,7,1,30,1
8,54,0,52,1
62,6,69,53,1
104,71,172,115,1
76,6,90,83,1
26,99,19,48,1
15,15,3,7,1
3,43,63,9,1
65,29,11,99,1
15,98,159,103,1
6,92,78,148,1
0,247,296,147,1
14,222,70,96,1
72,9,147,3,1
32,58,67,68,1
39,11,0,20,1
31,13,7,5,1
60,43,47,39,1
184,100,55,68,1
65,100,87,1,1
15,67,149,122,1
115,67,37,7,1
2,5,146,156,1
72,22,119,70,1
70,31,0,18,1
0,41,0,15,1
5,49,24,49,1
41,20,0,70,1
59,12,34,56,1
38,40,24,35,1
28,23,121,78,1
64,12,10,3,1
69,19,87,73,1
155,98,65,112,1
79,39,27,75,1
16,25,23,43,1
67,8,9,21,1
73,143,129,130,1
192,106,38,31,1
82,81,90,97,1
78,73,17,41,1
5,10,31,6,1
6,74,18,20,1
179,56,60,82,1
134,7,0,28,1
0,39,30,31,1
142,95,77,29,1
25,17,30,92,1
31,26,144,118,1
52,150,11,11,1
28,11,37,114,1
77,133,14,6,1
14,35,1,29,1
49,8,51,68,1
22,92,10,1,1
51,87,34,63,1
36,14,13,3,1
42,110,18,129,1
89,17,56,105,1
156,156,15,17,1
20,19,47,94,1
167,66,16,2,1
50,17,0,21,1
95,65,54,59,1
178,95,17,36,1
4,33,51,77,1
115,161,35,29,1
63,40,19,72,1
123,80,47,56,1
15,91,8,4,1
74,12,37,93,1
38,74,32,22,1
116,40,26,74,1
86,46,102,113,1
103,33,2,31,1
143,128,88,97,1
124,91,43,7,1
37,89,40,107,1
69,25,58,52,1
36,24,1,15,1
43,19,56,84,1
140,129,10,1,1
47,69,8,35,1
200,156,57,71,1
11,16,2,2,1
13,98,10,18,1
0,11,18,2,1
9,96,27,104,1
302,173,51,34,1
150,156,0,18,1
0,143,23,98,1
55,14,8,3,1
31,23,0,33,1
77,51,85,69,1
14,31,0,11,1
33,48,43,73,1
122,135,51,13,1
6,22,5,75,1
191,168,46,79,1
26,5,16,7,1
34,28,65,83,1
122,18,10,6,1
113,47,0,82,1
3,86,73,62,1
36,29,35,23,1
127,59,21,72,1
111,18,41,15,1
89,28,0,55,1
0,95,40,57,1
31,57,1,3,1
12,145,23,76,1
33,101,42,51,1
91,68,2,47,1
35,105,86,87,1
62,37,27,7,1
11,75,47,113,1
59,48,57,35,1
14,46,63,118,1
67,47,56,43,1
48,35,3,0,1
10,77,12,69,1
122,70,25,58,1
47,62,0,47,1
114,16,82,91,1
97,7,0,11,1
48,20,61,38,1
169,81,7,23,1
108,82,86,88,1
33,16,0,12,1
98,90,0,13,1
74,71,0,67,1
88,176,46,13,1
58,124,71,159,1
88,58,84,81,1
74,145,28,27,1
47,232,52,182,1
107,117,77,59,1
63,35,0,60,1
179,86,36,46,1
139,62,0,21,1
11,14,0,5,1
64,27,0,90,1
13,9,25,70,1
60,117,78,68,1
235,74,85,99,1
105,314,41,201,1
91,25,93,17,1
110,97,75,127,1
40,65,96,101,1
109,31,0,13,1
53,72,94,109,1
94,87,41,3,1
34,6,0,7,1
71,22,98,21,1
63,68,27,39,1
5,51,47,112,1
122,57,169,71,1
42,30,29,175,1
211,64,174,103,1
21,30,138,95,1
56,72,176,140,1
64,125,34,24,1
121,181,7,122,1
25,195,46,80,1
81,67,53,106,1
29,39,87,83,1
221,153,0,47,1
52,32,149,151,1
145,132,135,94,1
20,12,46,57,1
25,178,55,161,1
173,44,0,56,1
99,104,50,31,1
132,161,8,52,1
204,9,0,67,1
18,55,128,17,1
5,43,155,100,1
71,81,198,35,1
79,61,18,31,1
89,13,172,140,1
14,184,244,282,1
39,77,248,13,1
60,94,109,47,1
75,7,126,195,1
66,29,245,40,1
8,69,95,68,1
107,40,187,13,1
156,51,79,100,1
108,187,198,108,1
25,46,76,53,1
39,62,299,224,1
49,25,134,126,1
7,119,239,285,1
1,107,13,64,1
30,36,67,15,1
7,29,48,60,1
117,37,168,299,1
29,83,3,29,1
96,21,107,321,1
55,60,0,197,1
85,111,113,196,1
71,39,30,184,1
100,112,207,113,1
183,53,40,166,1
141,28,52,107,1
1,33,0,112,1
57,57,39,67,1
30,393,81,51,1
14,158,114,4,1
69,181,100,18,1
6,31,40,48,1
13,174,41,77,1
56,50,105,230,1
97,68,289,283,1
12,31,130,23,1
152,47,0,239,1
78,92,159,256,1
131,160,124,14,1
6,20,86,113,1
182,62,179,11,1
40,97,54,31,1
173,112,229,195,1
13,58,129,392,1
77,141,68,107,1
108,13,112,248,1
40,70,56,107,1
26,24,129,37,1
64,59,160,25,1
119,185,59,44,1
73,115,23,54,1
94,28,211,299,1
146,274,43,16,1
188,219,63,138,1
125,12,35,133,1
179,243,155,49,1
146,166,291,475,1
75,69,342,39,1
29,245,208,265,1
8,120,25,98,1
51,22,206,206,1
108,229,35,37,1
243,91,92,153,1
62,90,269,51,1
251,152,122,3,1
231,366,3,142,1
98,15,27,140,1
130,15,13,194,1
87,6,178,107,1
95,135,194,69,1
1,162,136,222,1
122,48,109,87,1
160,16,20,146,1
10,21,230,119,1
128,133,102,105,1
20,70,359,4,1
169,82,68,75,1
303,60,231,139,1
56,91,58,179,1
32,25,230,144,1
131,225,61,274,1
229,109,0,85,1
147,51,337,158,1
18,199,15,85,1
23,10,120,50,1
194,99,8,72,1
129,10,62,28,1
51,61,45,34,1
51,117,2,245,1
242,43,281,14,1
68,87,69,234,1
170,136,450,142,1
352,201,78,15,1
88,84,42,64,1
39,220,227,180,1
163,16,186,174,1
182,6,127,107,1
182,186,57,255,1
119,218,193,141,1
39,20,77,58,1
5,125,187,114,1
98,125,9,106,1
193,35,20,143,1
6,39,140,36,1
52,55,58,77,1
12,18,60,27,1
64,129,119,212,1
47,86,151,92,1
73,221,246,242,1
277,230,19,115,1
192,129,139,15,1
26,18,202,379,1
64,80,236,40,1
6,63,244,195,1
31,27,259,187,1
8,60,97,21,1
170,42,103,329,1
160,232,44,21,1
10,28,239,138,1
201,97,156,1,1
269,126,32,171,1
163,213,57,28,1
127,89,120,14,1
50,81,91,51,1
141,63,55,90,1
19,126,223,315,1
267,92,49,87,1
283,45,325,94,1
90,21,141,3,1
164,33,128,2,1
205,253,147,113,1
6,59,49,59,1
52,173,122,209,1
91,84,1,81,1
21,36,5,215,1
54,65,328,319,1
259,72,140,100,1
186,84,315,175,1
39,20,200,174,1
153,174,229,36,1
65,74,21,122,1
42,175,254,279,1
46,72,157,5,1
10,88,232,8,1
175,193,49,2,1
0,190,25,201,1
148,52,193,374,1
258,211,312,14,1
23,195,72,286,1
112,93,404,157,1
142,123,348,137,1
21,34,36,34,1
42,95,77,110,1
5,22,26,116,1
38,101,99,261,1
31,31,195,126,1
156,47,195,62,1
183,96,112,138,1
41,122,38,78,1
79,90,20,192,1
58,6,316,305,1
161,9,156,73,1
126,97,27,2,1
46,140,70,252,1
98,118,293,295,1
23,71,313,75,1
14,266,240,210,1
209,288,138,170,1
8,33,558,219,1
289,169,399,52,1
198,49,0,3,1
84,23,239,229,1
94,133,25,87,1
82,65,163,54,1
110,61,204,106,1
49,90,66,181,1
12,30,71,196,1
33,115,250,43,1
78,217,228,346,1
213,86,639,258,1
117,232,254,134,1
16,51,561,363,1
283,161,368,133,1
115,104,210,50,1
275,83,0,94,1
119,60,38,156,1
34,130,5,123,1
162,187,117,145,1
59,270,83,1,1
47,108,6,195,1
72,47,158,9,1
58,9,2,196,1
193,116,97,169,1
45,31,0,47,1
99,62,224,158,1
182,123,221,3,1
12,6,114,241,1
101,112,169,53,1
146,63,42,181,1
239,141,100,47,1
117,109,167,95,1
113,123,0,11,1
120,69,156,57,1
13,8,48,32,1
122,76,113,93,1
18,102,106,69,1
74,13,219,212,1
94,170,20,8,1
54,52,82,107,1
124,206,66,47,1
104,73,68,13,1
153,183,65,176,1
235,163,14,2,1
11,29,29,127,1
146,131,72,111,1
126,31,173,174,1
68,317,381,319,1
99,277,213,121,1
7,273,67,274,1
181,104,388,275,1
225,243,59,21,1
93,55,195,198,1
152,201,127,25,1
69,91,106,49,1
166,60,0,16,1
185,17,58,19,1
26,122,37,64,1
98,82,51,45,1
11,153,0,112,1
191,13,19,116,1
111,52,0,136,1
1,83,39,32,1
104,305,0,38,1
75,57,52,33,1
106,59,236,85,1
137,41,60,144,1
104,18,166,330,1
128,58,193,124,1
65,8,271,17,1
145,84,0,78,1
121,107,163,44,1
84,18,148,225,1
73,89,293,230,1
63,94,0,195,1
38,12,152,166,1
1,71,11,23,1
7,10,119,5,1
107,100,135,158,1
33,182,87,90,1
260,162,177,162,1
140,214,219,33,1
61,44,112,82,1
127,105,53,11,1
1,10,250,217,1
37,107,177,100,1
60,14,23,79,1
92,111,93,166,1
186,122,155,187,1
141,71,49,81,1
141,21,196,224,1
70,111,113,24,1
147,77,31,189,1
25,134,95,170,1
47,29,21,3,1
88,98,290,227,1
154,69,62,115,1
81,138,353,53,1
41,48,63,39,1
44,53,163,267,1
95,63,249,113,1
124,47,12,57,1
59,285,311,138,1
122,26,2,42,1
33,152,38,1,1
288,74,135,129,1
118,78,100,90,1
155,125,184,129,1
104,238,42,83,1
53,67,231,104,1
152,60,100,13,1
54,15,110,16,1
18,38,84,237,1
131,255,221,253,1
32,12,229,55,1
182,59,278,265,1
45,39,312,363,1
113,22,181,174,1
39,30,0,13,1
20,33,361,262,1
131,142,4,3,1
176,128,189,164,1
69,49,216,200,1
236,62,160,283,1
33,45,120,16,1
93,66,35,11,1
207,228,98,73,1
47,155,0,7,1
102,217,156,100,1
70,63,240,191,1
153,54,95,61,1
0,138,14,57,1
44,167,156,162,1
23,13,181,146,1
3,55,127,3,1
29,103,198,14,1
47,11,230,56,1
74,320,132,284,1
146,162,2,95,1
41,7,146,100,1
88,34,87,63,1
38,17,82,90,1
32,26,0,123,1
242,137,23,81,1
148,390,215,91,1
71,107,44,161,1
72,81,463,182,1
16,69,109,88,1
14,25,20,128,1
28,68,76,64,1
24,445,155,88,1
114,115,251,317,1
47,175,204,150,1
158,42,143,159,1
178,97,3,11,1
22,9,0,53,1
72,68,248,244,1
18,32,12,140,1
0,11,251,32,1
19,6,73,261,1
66,134,253,112,1
155,173,22,75,1
39,79,16,73,1
9,6,80,26,1
13,36,90,46,1
117,13,78,136,1
166,132,49,34,1
48,18,370,394,1
203,174,151,45,1
0,47,359,290,1
229,201,16,89,1
145,42,382,294,1
60,114,31,68,1
180,49,37,12,1
4,21,63,44,1
134,39,202,103,1
34,16,74,41,1
81,39,280,212,1
37,53,30,58,1
74,274,130,69,1
5,21,0,48,1
136,39,131,98,1
16,27,62,69,1
12,136,101,142,1
80,173,108,48,1
109,13,223,96,1
91,125,179,21,1
86,48,181,189,1
172,167,68,13,1
72,127,111,189,1
33,52,28,48,1
86,11,67,4,1
0,93,57,123,1
42,19,162,3,1
57,32,0,52,1
22,7,97,73,1
143,150,10,52,1
94,9,10,55,1
47,13,90,20,1
8,111,55,125,1
123,61,198,79,1
120,29,5,29,1
22,63,181,113,1
89,214,63,12,1
81,33,148,103,1
1,122,5,41,1
64,7,33,69,1
19,5,13,19,1
44,88,23,8,1
58,75,10,57,1
158,46,0,3,1
118,142,0,37,1
107,82,4,76,1
162,154,6,18,1
0,27,4,28,1
189,57,155,107,1
131,40,28,51,1
41,74,141,75,1
45,47,84,33,1
29,81,55,55,1
53,42,45,42,1
225,100,34,11,1
159,6,71,92,1
1,40,0,39,1
72,56,4,82,1
88,32,63,82,1
148,58,0,40,1
71,21,14,37,1
129,92,89,51,1
22,144,0,116,1
6,181,65,56,1
93,113,41,3,1
119,56,65,113,1
142,90,2,22,1
74,239,0,79,1
170,49,149,131,1
38,49,86,125,1
14,7,65,84,1
74,7,0,10,1
19,42,39,117,1
102,70,58,48,1
69,6,0,20,1
182,130,88,99,1
62,25,24,5,1
18,45,30,54,1
81,58,38,32,1
10,143,14,29,1
131,113,65,52,1
42,78,27,23,1
60,21,0,2,1
183,115,0,81,1
14,13,17,88,1
137,50,57,95,1
156,160,5,90,1
43,68,62,139,1
124,125,110,75,1
205,29,56,3,1
103,92,26,98,1
114,34,82,46,1
135,37,23,41,1
5,35,10,40,1
29,201,25,9,1
95,142,79,108,1
158,60,23,6,1
14,9,18,49,1
0,102,39,49,1
71,11,0,42,1
101,116,139,63,1
86,17,41,5,1
23,38,62,110,1
221,117,44,43,1
98,40,45,68,1
93,26,72,23,1
87,69,13,40,1
1,5,0,32,1
60,9,52,7,1
234,75,1,59,1
168,79,54,54,1
64,136,46,6,1
68,34,54,88,1
202,168,39,18,1
54,16,0,9,1
10,10,107,85,1
25,23,13,7,1
16,43,36,53,1
94,8,62,39,1
130,32,1,31,1
38,7,34,68,1
85,6,7,9,1
2,13,24,85,1
50,13,22,2,1
49,40,8,26,1
0,49,69,75,1
95,79,10,2,1
28,125,39,103,1
72,44,50,63,1
8,17,0,22,1
0,27,108,99,1
92,59,9,4,1
13,7,36,59,1
15,32,53,41,1
42,61,0,34,1
22,91,78,53,1
24,104,8,11,1
15,32,1,98,1
151,163,41,40,1
54,118,18,63,1
8,37,30,47,1
14,47,28,2,1
71,13,14,51,1
53,9,30,22,1
96,41,4,41,1
43,17,64,103,1
79,32,52,30,1
19,14,18,82,1
115,26,52,51,1
130,95,0,42,1
71,30,46,78,1
132,79,33,2,1
15,135,30,107,1
49,236,43,27,1
90,55,10,74,1
22,37,83,83,1
3,51,0,5,1
558,95,293,519,1
335,134,33,46,1
98,26,0,72,1
61,51,77,71,1
124,89,26,9,1
45,109,78,147,1
226,52,0,17,1
92,9,0,6,1
79,23,33,90,1
41,68,63,27,1
28,52,9,65,1
17,77,59,59,1
51,62,0,27,1
97,51,17,65,1
55,52,45,19,1
4,38,34,129,1
117,33,49,50,1
167,99,3,81,1
28,40,91,76,1
134,143,53,77,1
55,30,0,33,1
168,78,0,54,1
9,76,49,14,1
75,95,155,193,1
108,64,79,90,1
10,8,52,106,1
167,129,0,50,1
47,40,19,24,1
91,54,88,109,1
75,44,34,97,1
89,21,155,218,1
2,90,82,65,1
1,24,116,135,1
104,21,9,42,1
79,8,89,62,1
87,153,25,129,1
75,41,56,101,1
0,77,114,14,1
37,37,151,190,1
62,56,25,11,1
25,169,166,97,1
164,65,5,39,1
83,23,8,48,1
47,87,97,162,1
112,66,208,54,1
25,142,189,248,1
68,131,151,3,1
33,21,195,169,1
16,77,209,54,1
107,174,223,135,1
83,223,43,21,1
166,23,78,15,1
28,74,52,12,1
39,165,95,70,1
76,16,20,38,1
5,79,143,74,1
48,87,8,99,1
64,53,9,205,1
24,21,4,119,1
68,158,272,186,1
174,71,23,40,1
204,17,19,25,1
34,165,85,76,1
1,18,73,5,1
25,25,115,141,1
25,44,123,44,1
115,10,70,63,1
58,8,0,19,1
140,19,3,6,1
220,41,24,158,1
37,6,258,211,1
55,20,181,22,1
19,29,108,110,1
13,197,225,191,1
150,91,60,2,1
27,97,16,11,1
162,135,241,257,1
169,278,188,152,1
91,50,72,17,1
197,119,0,24,1
2,17,47,65,1
7,11,74,104,1
42,245,46,3,1
121,73,124,44,1
107,130,123,39,1
1,13,155,70,1
107,240,40,131,1
63,160,87,72,1
132,10,0,12,1
120,11,46,39,1
70,103,5,6,1
171,216,352,172,1
147,174,214,12,1
143,122,305,51,1
220,129,107,119,1
200,82,61,85,1
75,108,34,118,1
172,136,311,32,1
59,100,0,488,1
219,39,296,229,1
72,30,2,204,1
45,70,202,1,1
58,37,36,4,1
58,192,83,4,1
67,15,98,2,1
174,15,84,219,1
25,40,166,26,1
0,88,138,171,1
203,451,273,26,1
139,218,329,118,1
72,29,152,154,1
151,19,401,167,1
105,11,67,5,1
62,47,143,9,1
76,117,33,18,1
164,142,45,404,1
113,66,12,233,1
84,140,56,60,1
58,69,239,142,1
71,224,34,295,1
109,11,128,273,1
137,123,155,77,1
42,63,324,74,1
108,95,131,136,1
26,241,275,202,1
87,110,203,83,1
174,51,194,138,1
104,147,196,159,1
6,17,205,241,1
233,102,9,96,1
25,46,279,348,1
16,13,507,16,1
46,243,0,349,1
111,13,461,76,1
199,30,190,113,1
128,101,315,142,1
63,39,34,37,1
115,30,56,147,1
27,206,231,52,1
163,167,90,208,1
63,193,149,295,1
136,74,253,348,1
177,6,5,261,1
12,7,527,36,1
31,69,26,455,1
56,151,235,242,1
118,106,12,212,1
125,243,14,266,1
225,71,220,145,1
180,70,65,215,1
94,61,39,28,1
154,109,138,283,1
6,170,21,1,1
180,26,123,214,1
20,421,105,171,1
311,167,49,18,1
98,474,62,138,1
0,71,27,74,1
133,50,12,307,1
119,16,29,189,1
21,82,183,201,1
77,95,119,516,1
1,71,172,98,1
171,44,0,245,1
107,51,0,74,1
104,95,143,60,1
39,50,10,25,1
130,214,0,242,1
153,42,526,7,1
85,13,21,127,1
39,147,611,490,1
158,175,204,205,1
295,291,156,184,1
95,180,64,82,1
118,17,41,319,1
16,95,99,42,1
20,51,256,372,1
14,34,441,169,1
1,6,196,153,1
41,104,177,42,1
85,104,81,274,1
65,117,0,76,1
111,44,321,12,1
116,96,0,182,1
248,407,250,274,1
74,28,156,242,1
296,89,200,274,1
102,301,4,161,1
161,47,328,65,1
247,217,136,212,1
25,7,347,54,1
40,219,35,93,1
79,81,564,405,1
107,207,81,36,1
243,61,380,363,1
198,24,242,132,1
181,191,58,249,1
158,282,125,139,1
247,288,19,7,1
121,40,70,203,1
65,227,105,31,1
68,131,88,5,1
30,138,170,211,1
155,168,249,278,1
69,359,435,182,1
202,245,632,333,1
57,157,502,29,1
43,41,186,188,1
21,22,100,58,1
112,48,126,45,1
47,5,647,346,1
322,56,2,269,1
128,64,498,301,1
16,127,25,309,1
182,61,225,782,1
9,131,470,425,1
188,72,0,233,1
160,52,425,334,1
49,177,132,303,1
36,378,289,130,1
65,31,237,162,1
359,134,373,262,1
196,135,191,125,1
35,12,7,160,1
47,78,21,265,1
88,393,59,75,1
5,83,153,6,1
12,127,106,125,1
74,87,250,361,1
38,205,70,93,1
117,42,104,185,1
55,101,14,336,1
62,12,374,207,1
48,5,72,112,1
74,24,97,71,1
361,342,165,101,1
272,53,4,355,1
40,103,98,1,1
116,172,224,51,1
76,155,0,89,1
96,77,103,102,1
96,127,310,53,1
180,57,4,206,1
50,36,162,291,1
227,84,11,96,1
34,20,221,24,1
124,127,183,95,1
10,25,1,13,1
148,15,191,220,1
38,42,547,441,1
5,105,340,75,1
175,73,542,640,1
327,422,626,358,1
146,293,424,347,1
47,125,246,28,1
102,43,139,134,1
14,205,166,253,1
19,102,109,174,1
25,117,466,257,1
147,146,80,47,1
58,98,394,377,1
103,51,32,148,1
92,79,131,186,1
1,72,118,150,1
0,17,297,751,1
12,8,507,334,1
180,73,164,91,1
111,15,253,362,1
6,101,357,466,1
71,42,0,170,1
72,29,510,428,1
9,79,0,19,1
45,78,217,89,1
62,175,101,59,1
205,8,201,113,1
61,205,118,74,1
183,154,246,292,1
83,15,41,39,1
155,166,97,166,1
58,8,115,51,1
65,109,91,83,1
113,76,314,120,1
119,126,0,92,1
196,57,41,55,1
131,53,32,148,1
4,9,160,102,1
177,79,258,164,1
10,83,164,209,1
225,39,34,62,1
219,16,137,218,1
134,268,0,268,1
171,145,100,78,1
132,153,0,109,1
48,55,142,45,1
124,111,29,50,1
37,51,264,103,1
249,237,66,133,1
172,153,229,209,1
191,164,438,189,1
87,85,225,33,1
105,8,158,3,1
42,32,81,30,1
186,104,216,176,1
105,9,6,37,1
93,68,305,141,1
35,16,46,20,1
2,136,0,104,1
77,82,0,98,1
98,42,79,96,1
171,39,16,218,1
46,73,102,228,1
192,151,0,114,1
153,28,0,7,1
65,115,27,54,1
55,33,76,62,1
36,26,233,167,1
227,69,8,90,1
163,56,212,101,1
87,20,57,82,1
220,28,11,59,1
42,17,161,91,1
219,51,111,4,1
80,98,63,3,1
122,36,1,67,1
205,87,5,9,1
3,7,74,96,1
158,46,202,92,1
3,120,39,35,1
247,83,0,49,1
133,111,0,25,1
13,20,90,18,1
35,83,48,184,1
14,9,78,19,1
105,108,66,13,1
8,43,153,216,1
161,72,44,47,1
268,142,89,40,1
17,25,25,36,1
32,145,97,12,1
166,93,3,42,1
78,93,12,56,1
132,170,154,270,1
42,78,40,26,1
135,98,0,102,1
125,18,61,54,1
75,121,275,310,1
108,242,134,169,1
190,215,3,175,1
103,231,0,68,1
127,58,42,81,1
40,23,83,171,1
63,71,164,106,1
113,105,40,110,1
128,134,42,59,1
101,68,53,59,1
38,7,0,142,1
110,81,2,6,1
83,74,12,11,1
25,95,319,321,1
111,87,249,80,1
2,129,155,267,1
182,268,81,145,1
13,137,44,71,1
185,128,74,48,1
197,106,93,91,1
100,16,88,64,1
109,10,0,129,1
0,33,17,147,1
82,43,143,181,1
60,78,234,55,1
22,37,0,61,1
131,28,243,226,1
104,5,26,20,1
9,21,108,73,1
79,18,238,144,1
41,145,369,112,1
112,57,91,309,1
192,221,130,58,1
63,74,313,312,1
118,279,81,146,1
18,65,396,97,1
82,47,0,54,1
1,34,238,77,1
151,169,107,111,1
96,41,344,12,1
45,111,0,17,1
7,140,10,30,1
17,76,166,6,1
196,97,60,131,1
175,97,130,5,1
37,63,5,3,1
57,47,42,71,1
151,111,125,146,1
30,16,178,147,1
52,91,263,6,1
73,33,42,112,1
217,80,106,89,1
63,103,136,133,1
90,63,271,147,1
82,91,258,168,1
99,19,48,7,1
90,38,114,6,1
72,21,12,15,1
145,90,28,42,1
64,9,69,120,1
36,78,33,5,1
141,110,70,54,1
7,23,302,126,1
174,169,10,82,1
138,104,278,207,1
129,9,234,105,1
44,57,219,10,1
105,96,228,193,1
124,60,84,54,1
66,21,0,23,1
205,78,108,52,1
61,175,98,121,1
14,60,89,40,1
1,193,5,56,1
162,39,172,13,1
6,244,72,258,1
15,166,127,18,1
251,76,84,31,1
0,92,0,9,1
13,28,91,18,1
36,162,3,135,1
51,152,144,191,1
57,76,57,82,1
66,27,339,161,1
164,21,61,1,1
0,9,340,194,1
39,37,0,38,1
35,53,7,19,1
109,67,47,102,1
29,35,329,111,1
1,94,99,292,1
155,150,430,207,1
143,181,3,70,1
115,138,230,164,1
175,40,104,137,1
66,162,149,94,1
157,218,3,119,1
82,160,43,57,1
117,106,180,123,1
96,88,0,3,1
2,111,132,75,1
104,99,44,77,1
79,62,129,31,1
79,89,2,67,1
53,172,243,82,1
3,129,18,66,1
175,59,311,51,1
12,36,0,253,1
86,104,288,44,1
41,120,50,72,1
45,30,213,94,1
62,60,232,73,1
39,146,205,29,1
168,85,100,121,1
19,18,26,31,1
88,77,136,6,1
168,82,183,224,1
156,29,67,93,1
118,7,216,244,1
33,6,0,2,1
85,73,20,97,1
98,25,10,39,1
24,5,21,30,1
71,9,1,100,1
171,135,2,59,1
18,21,138,2,1
88,24,11,167,1
29,20,219,159,1
229,170,15,62,1
23,8,116,21,1
45,49,79,118,1
207,149,0,3,1
63,82,10,21,1
7,146,4,43,1
139,98,24,25,1
7,115,0,70,1
71,6,144,125,1
61,21,21,74,1
73,71,164,113,1
51,5,10,1,1
25,8,99,123,1
76,31,0,37,1
91,57,0,102,1
47,14,82,140,1
107,90,3,46,1
157,188,0,110,1
312,168,66,29,1
97,143,6,110,1
238,96,68,87,1
159,169,110,26,1
122,93,44,1,1
203,138,0,5,1
81,5,70,56,1
126,127,131,122,1
82,115,91,84,1
65,92,117,46,1
0,26,160,67,1
15,13,123,22,1
185,66,153,52,1
152,146,52,30,1
7,52,23,30,1
96,35,24,87,1
58,36,0,29,1
158,119,91,49,1
65,108,44,22,1
74,10,18,50,1
76,50,22,56,1
86,26,92,32,1
143,108,0,76,1
12,147,143,112,1
107,142,55,45,1
171,109,112,45,1
23,35,12,34,1
113,125,4,3,1
23,5,90,62,1
24,35,73,153,1
79,16,134,128,1
108,146,137,144,1
60,73,76,9,1
72,6,126,113,1
71,49,32,31,1
109,7,0,74,1
47,24,0,92,1
3,147,136,59,1
183,113,27,122,1
38,70,103,38,1
31,167,11,180,1
10,42,135,7,1
111,106,29,143,1
76,29,119,75,1
91,60,201,187,1
48,35,0,90,1
86,83,176,156,1
49,67,22,46,1
88,59,78,104,1
57,34,87,66,1
154,6,99,17,1
63,14,107,79,1
93,6,76,15,1
92,34,0,16,1
3,62,0,42,1
99,48,0,37,1
58,35,24,32,1
154,59,220,187,1
85,11,13,71,1
24,11,72,203,1
17,7,74,147,1
33,17,39,73,1
215,126,158,13,1
82,45,133,204,1
30,8,165,112,1
33,29,13,137,1
69,119,77,184,1
3,65,0,41,1
186,229,61,115,1
30,16,0,16,1
62,77,30,137,1
29,7,88,161,1
75,51,103,53,1
11,47,103,63,1
4,91,66,134,1
166,60,0,104,1
55,29,13,3,1
18,184,15,80,1
14,45,176,100,1
85,115,115,121,1
162,108,0,115,1
57,52,37,84,1
166,39,0,35,1
151,144,31,167,1
7,73,127,83,1
117,86,75,43,1
30,110,312,32,1
121,183,177,293,1
25,55,168,44,1
83,9,68,251,1
58,41,141,281,1
74,35,134,151,1
77,27,260,520,1
65,53,141,89,1
29,24,204,356,1
436,10,15,80,1
269,140,168,209,1
45,77,2,124,1
71,10,51,27,1
51,34,72,148,1
101,141,0,55,1
124,181,145,41,1
82,93,0,93,1
12,16,30,176,1
2,7,223,78,1
156,8,66,5,1
113,212,292,198,1
156,133,130,50,1
39,9,115,46,1
0,85,0,61,1
205,59,69,49,1
23,83,15,38,1
58,181,72,195,1
163,107,29,170,1
54,44,315,226,1
369,269,347,162,1
124,108,286,402,1
5,16,402,522,1
172,121,38,216,1
29,142,119,264,1
2,105,325,368,1
134,36,86,125,1
67,254,278,260,1
132,12,62,21,1
41,101,118,119,1
6,99,261,93,1
7,64,183,18,1
99,38,5,245,1
129,56,0,4,1
4,72,12,46,1
16,67,301,103,1
37,41,30,97,1
78,27,311,116,1
122,160,286,253,1
60,48,326,109,1
5,58,291,164,1
9,26,301,2,1
143,105,241,418,1
160,191,294,367,1
74,245,73,103,1
165,364,137,107,1
27,60,70,35,1
103,106,0,6,1
4,63,111,209,1
49,107,37,431,1
27,137,22,305,1
100,20,46,169,1
148,23,101,26,1
29,20,3,4,1
75,25,0,37,1
9,67,30,153,1
63,97,16,84,1
53,110,104,114,1
116,18,66,33,1
68,116,47,185,1
248,137,28,202,1
134,239,49,97,1
123,10,399,39,1
186,38,267,10,1
56,29,29,349,1
102,346,60,19,1
27,42,32,93,1
243,10,71,87,1
18,23,190,68,1
0,160,7,197,1
337,138,295,150,1
363,204,183,383,1
164,126,325,177,1
153,73,311,96,1
97,120,296,39,1
105,106,68,28,1
28,104,26,80,1
252,302,293,19,1
3,219,4,195,1
140,34,137,6,1
256,12,25,136,1
261,286,1,141,1
8,119,61,48,1
34,32,191,105,1
0,57,475,246,1
107,6,118,167,1
45,196,473,221,1
361,223,322,67,1
77,31,4,96,1
7,83,178,313,1
100,90,175,312,1
177,62,51,171,1
334,94,161,187,1
177,14,0,78,1
37,23,295,7,1
2,91,166,270,1
6,44,205,43,1
178,120,322,100,1
153,227,107,183,1
37,294,370,116,1
179,103,4,89,1
267,151,301,13,1
21,89,168,5,1
8,266,235,69,1
95,79,13,56,1
190,43,259,41,1
61,142,477,40,1
304,147,278,418,1
193,83,353,685,1
11,159,163,38,1
206,79,418,382,1
163,53,64,169,1
84,27,448,307,1
58,124,88,162,1
176,31,309,35,1
30,33,221,476,1
23,248,350,137,1
149,241,217,141,1
126,294,177,203,1
5,16,356,296,1
321,458,217,132,1
262,498,371,480,1
2,112,241,90,1
67,69,252,211,1
48,177,223,246,1
39,118,314,206,1
104,163,472,262,1
103,67,549,16,1
80,6,268,147,1
49,18,27,22,1
243,107,0,15,1
75,9,426,88,1
164,170,470,51,1
40,54,359,251,1
111,312,555,312,1
7,28,86,284,1
236,190,317,576,1
52,190,218,7,1
19,279,447,607,1
153,87,227,41,1
67,67,382,234,1
70,215,123,388,1
11,19,296,282,1
125,236,243,177,1
0,108,13,312,1
291,97,249,10,1
157,68,68,84,1
140,41,21,178,1
103,32,223,98,1
33,498,0,171,1
34,40,19,105,1
3,141,332,31,1
93,161,691,148,1
548,275,262,205,1
388,856,736,628,1
76,132,638,486,1
3,157,263,28,1
78,181,263,164,1
86,192,217,41,1
8,12,628,330,1
72,50,363,53,1
4,8,169,75,1
4,19,362,136,1
91,134,111,212,1
210,421,316,313,1
181,111,29,56,1
153,61,138,105,1
38,49,13,1,1
192,7,317,497,1
173,149,207,270,1
63,93,434,194,1
77,157,15,17,1
167,64,102,131,1
176,13,72,200,1
44,53,698,67,1
63,160,412,324,1
5,126,242,15,1
0,52,275,246,1
161,172,159,120,1
1,90,372,66,1
109,272,11,87,1
157,136,28,56,1
105,10,420,3,1
231,95,118,61,1
7,80,147,122,1
144,66,23,245,1
32,11,261,169,1
183,135,203,57,1
148,18,260,10,1
47,12,100,159,1
148,59,72,29,1
63,67,116,231,1
161,52,119,11,1
6,33,494,181,1
168,62,97,126,1
61,5,344,177,1
24,50,106,132,1
152,31,3,46,1
117,32,169,59,1
60,33,0,8,1
279,207,48,18,1
30,117,247,306,1
83,37,278,91,1
331,100,97,114,1
133,38,520,423,1
182,134,228,12,1
68,107,398,257,1
151,47,365,12,1
147,25,186,231,1
26,60,154,102,1
110,17,114,168,1
47,103,0,134,1
93,66,218,90,1
51,186,43,77,1
67,30,7,121,1
77,27,87,122,1
5,68,124,180,1
144,107,71,182,1
160,87,103,67,1
8,18,75,38,1
123,21,0,165,1
95,5,28,58,1
190,91,583,226,1
111,17,614,54,1
81,84,224,205,1
93,55,190,9,1
74,10,52,156,1
199,70,81,61,1
154,162,236,124,1
0,302,257,17,1
57,128,0,89,1
39,110,25,6,1
238,61,55,40,1
11,71,116,61,1
7,37,32,102,1
90,7,209,109,1
22,61,29,58,1
217,142,0,124,1
144,113,48,32,1
44,118,247,107,1
212,121,63,22,1
5,29,150,171,1
139,178,60,16,1
133,79,21,38,1
8,70,39,65,1
43,9,170,114,1
32,57,90,19,1
90,18,90,113,1
143,200,50,3,1
101,36,187,161,1
23,18,143,92,1
8,27,0,159,1
99,44,116,199,1
205,152,271,70,1
30,16,153,174,1
208,234,227,27,1
106,41,88,28,1
205,126,124,141,1
124,225,0,92,1
107,148,113,2,1
162,91,164,40,1
7,55,26,128,1
50,94,239,310,1
103,46,35,81,1
143,241,19,30,1
115,17,25,110,1
80,7,238,170,1
66,103,305,8,1
83,138,79,217,1
22,38,83,115,1
55,30,38,9,1
96,73,189,83,1
50,28,205,78,1
141,77,36,154,1
98,157,0,50,1
169,141,11,41,1
53,147,236,73,1
200,52,76,20,1
143,316,107,209,1
17,55,132,302,1
73,306,16,56,1
108,30,4,98,1
32,81,38,76,1
103,9,108,37,1
100,16,51,50,1
49,46,333,110,1
72,66,0,71,1
135,43,136,137,1
117,55,343,124,1
7,44,136,54,1
121,38,277,223,1
32,300,202,234,1
175,110,0,7,1
160,103,29,11,1
4,206,95,143,1
95,14,461,172,1
89,148,54,365,1
212,153,378,267,1
44,35,17,54,1
40,31,267,178,1
106,55,59,5,1
24,5,2,25,1
189,113,60,194,1
1,88,423,275,1
108,36,154,92,1
120,105,240,101,1
8,18,100,106,1
266,271,113,19,1
157,39,95,87,1
34,41,121,17,1
87,9,274,106,1
0,179,7,48,1
69,65,471,201,1
163,44,95,23,1
14,183,183,117,1
75,135,284,139,1
102,9,227,128,1
108,89,24,37,1
53,76,0,31,1
9,7,194,12,1
117,106,256,65,1
1,129,87,15,1
54,14,286,25,1
150,111,42,63,1
21,137,10,67,1
40,81,182,6,1
114,192,140,217,1
95,148,338,355,1
101,88,18,49,1
147,5,42,54,1
54,51,308,213,1
48,55,65,48,1
67,42,411,348,1
147,158,45,81,1
19,39,53,3,1
86,18,69,167,1
2,127,152,119,1
96,129,187,142,1
23,44,127,185,1
54,19,103,248,1
107,41,20,8,1
37,26,249,21,1
26,133,152,147,1
181,61,648,201,1
33,122,23,18,1
87,160,225,110,1
19,10,147,43,1
192,96,184,32,1
125,197,175,129,1
21,109,157,87,1
149,50,110,1,1
122,156,92,71,1
20,12,5,25,1
146,160,89,115,1
21,67,7,122,1
76,17,201,172,1
56,70,62,4,1
53,143,71,175,1
7,21,101,30,1
9,31,112,43,1
117,17,0,2,1
57,15,0,12,1
49,106,3,6,1
152,65,94,39,1
58,96,10,92,1
123,58,123,93,1
8,45,81,180,1
66,106,0,86,1
0,17,203,312,1
85,117,191,147,1
121,113,27,89,1
39,49,97,51,1
56,62,42,126,1
159,74,98,24,1
183,104,35,12,1
113,10,82,8,1
10,29,32,131,1
11,89,67,48,1
37,61,8,75,1
80,134,179,102,1
106,80,97,75,1
52,130,113,133,1
122,27,0,7,1
89,32,57,42,1
131,12,25,91,1
238,97,93,205,1
88,55,19,4,1
113,34,108,64,1
9,124,0,120,1
5,21,69,66,1
61,147,0,29,1
50,19,7,85,1
100,47,94,86,1
94,55,0,8,1
15,7,143,83,1
10,43,14,81,1
219,206,85,65,1
113,6,29,19,1
53,42,51,10,1
62,145,125,59,1
123,41,61,27,1
42,140,120,116,1
100,78,10,17,1
1,21,39,0,1
66,33,135,81,1
72,35,155,18,1
25,79,21,162,1
102,71,289,81,1
25,13,34,19,1
26,103,75,100,1
124,135,0,5,1
129,278,0,47,1
14,80,46,70,1
93,136,20,81,1
66,134,55,57,1
66,76,49,28,1
49,70,30,97,1
113,55,15,30,1
145,115,48,49,1
70,100,92,99,1
107,16,85,97,1
92,37,96,105,1
28,17,221,31,1
28,11,170,125,1
147,197,202,50,1
115,76,193,146,1
59,9,25,82,1
112,86,36,40,1
88,21,13,2,1
25,35,163,139,1
173,138,0,65,1
31,27,32,50,1
95,86,86,32,1
96,19,34,52,1
80,51,26,59,1
135,52,132,46,1
51,74,51,97,1
181,109,189,70,1
66,70,0,27,1
15,39,66,104,1
74,106,6,37,1
29,30,0,3,1
82,16,0,2,1
112,14,0,32,1
46,88,108,161,1
99,12,99,29,1
6,73,110,138,1
114,109,56,47,1
85,10,105,88,1
1,54,66,80,1
79,6,0,30,1
63,44,20,1,1
5,114,45,27,1
2,175,6,54,1
140,66,35,56,1
113,86,20,8,1
24,33,16,69,1
2,61,22,32,1
81,144,24,1,1
28,37,22,1,1
171,171,40,33,1
7,68,14,27,1
89,70,154,122,1
40,202,0,95,1
126,13,166,16,1
147,146,38,97,1
10,22,121,73,1
119,95,1,31,1
63,67,41,2,1
80,42,0,80,1
70,32,0,7,1
0,9,0,63,1
84,27,106,95,1
118,105,44,80,1
78,33,54,62,1
92,6,16,5,1
118,47,28,55,1
101,95,42,32,1
44,11,49,7,1
35,42,72,90,1
170,147,9,21,1
1,16,0,27,1
98,43,44,77,1
94,54,5,55,1
62,41,72,41,1
9,54,27,10,1
5,10,47,116,1
160,33,19,42,1
124,32,0,18,1
26,143,61,56,1
39,11,13,1,1
69,62,91,33,1
52,111,78,56,1
48,54,145,2,1
27,209,110,192,1
2,9,76,74,1
43,91,8,100,1
99,19,27,37,1
18,45,53,22,1
44,22,0,31,1
135,39,120,93,1
20,94,23,75,1
5,189,313,94,1
14,148,7,89,1
50,98,164,1,1
81,34,0,68,1
21,49,4,90,1
205,130,133,321,1
126,78,206,12,1
57,225,65,342,1
9,21,119,74,1
19,91,8,69,1
98,14,0,1,1
110,259,0,5,1
91,119,0,12,1
70,42,54,68,1
22,7,28,116,1
59,43,185,168,1
10,8,47,123,1
1,21,202,149,1
39,10,0,3,1
45,80,72,89,1
134,45,91,57,1
107,59,30,52,1
54,12,37,25,1
120,43,27,30,1
59,176,21,80,1
111,43,45,28,1
170,259,0,72,1
5,103,60,84,1
135,124,22,0,1
29,11,0,29,1
10,98,26,33,1
95,6,0,8,1
3,14,51,84,1
54,19,0,3,1
3,33,0,77,1
161,26,52,77,1
62,30,9,4,1
67,106,68,84,1
33,87,4,23,1
12,13,25,59,1
68,88,61,33,1
21,7,0,3,1
107,63,71,78,1
92,69,0,36,1
37,171,37,166,1
90,47,28,58,1
38,14,0,18,1
30,179,0,69,1
74,123,7,20,1
88,68,4,67,1
34,44,0,5,1
126,135,1,28,1
84,71,16,21,1
76,57,47,21,1
40,41,45,103,1
48,9,68,49,1
63,12,0,10,1
1,16,42,95,1
78,189,8,9,1
10,33,31,124,1
207,182,54,46,1
122,61,8,99,1
190,108,108,158,1
146,97,49,1,1
23,171,73,135,1
130,37,19,10,1
169,173,6,48,1
5,199,39,101,1
153,167,53,45,1
55,101,18,117,1
54,75,0,62,1
50,98,34,13,1
113,115,25,5,1
99,65,21,43,1
42,109,14,60,1
175,61,57,186,1
18,71,70,119,1
3,77,0,92,1
103,91,0,81,1
26,132,0,17,1
23,59,81,50,1
94,119,59,86,1
25,34,94,82,1
74,15,97,128,1
41,63,106,94,1
142,17,9,97,1
85,66,45,28,1
20,38,176,69,1
6,77,0,33,1
7,17,39,44,1
79,56,36,24,1
114,55,55,110,1
22,74,122,109,1
14,44,19,51,1
32,8,203,198,1
128,36,36,16,1
70,7,108,86,1
55,176,223,28,1
143,69,30,89,1
40,69,63,31,1
53,9,8,16,1
32,28,98,29,1
10,77,28,60,1
16,13,275,82,1
47,65,72,190,1
147,96,189,148,1
74,210,17,90,1
124,77,118,87,1
62,124,22,95,1
20,40,31,2,1
84,26,0,106,1
125,125,16,32,1
79,56,0,2,1
107,102,36,26,1
145,61,140,199,1
0,63,39,111,1
6,126,7,16,1
71,83,101,126,1
53,72,128,82,1
33,25,58,149,1
157,52,151,87,1
62,29,81,122,1
160,112,62,83,1
136,54,48,61,1
36,73,74,54,1
104,25,91,19,1
113,91,0,27,1
77,29,93,43,1
107,120,130,63,1
21,8,48,101,1
18,20,188,137,1
10,11,0,105,1
38,94,121,166,1
11,103,0,9,1
7,52,88,92,1
166,24,83,8,1
44,96,10,3,1
36,59,0,47,1
100,6,68,21,1
43,15,22,43,1
31,43,0,85,1
120,97,39,72,1
70,134,66,54,1
58,82,22,33,1
46,58,81,176,1
77,6,100,134,1
36,17,31,90,1
171,140,131,127,1
50,56,20,4,1
19,108,11,52,1
150,63,198,161,1
94,52,25,15,1
120,16,138,144,1
84,14,70,18,1
22,92,13,120,1
93,104,77,81,1
99,202,8,3,1
103,62,117,44,1
184,107,14,35,1
76,81,21,48,1
67,120,0,52,1
56,6,15,41,1
155,154,53,12,1
54,10,123,2,1
62,172,17,104,1
94,73,131,115,1
0,73,34,45,1
93,32,61,71,1
140,112,0,1,1
44,79,24,38,1
87,8,177,126,1
97,97,21,126,1
83,58,230,272,1
82,21,14,111,1
34,58,27,150,1
74,14,18,41,1
88,78,23,1,1
111,40,79,92,1
176,51,0,2,1
10,28,14,48,1
31,117,63,68,1
72,28,10,56,1
5,11,11,60,1
3,30,13,21,1
19,86,92,51,1
118,99,0,21,1
118,7,44,13,1
77,109,71,18,1
137,157,43,38,1
33,39,45,46,1
111,38,161,101,1
67,14,0,129,1
16,7,226,229,1
93,80,9,14,1
16,68,51,96,1
10,7,76,1,1
70,24,170,45,1
70,118,126,70,1
98,29,278,151,1
51,44,45,78,1
63,79,269,153,1
4,16,76,123,1
19,44,242,104,1
34,69,91,2,1
88,40,0,25,1
155,53,0,1,1
29,98,43,27,1
12,41,226,108,1
31,5,100,110,1
14,28,181,20,1
32,32,10,4,1
43,27,19,46,1
60,66,66,140,1
116,68,0,61,1
117,98,66,93,1
141,82,40,147,1
113,99,15,50,1
94,28,195,152,1
155,47,0,49,1
36,112,114,86,1
172,43,113,44,1
23,62,10,73,1
29,12,179,139,1
55,23,0,46,1
43,28,41,57,1
206,124,4,4,1
139,233,37,37,1
139,155,203,352,1
34,89,129,128,1
85,123,155,190,1
55,63,25,33,1
48,31,86,43,1
19,10,166,48,1
94,31,99,127,1
175,19,116,33,1
223,120,146,125,1
1,37,85,23,1
122,9,186,94,1
66,225,100,221,1
167,198,27,58,1
73,30,259,128,1
12,135,300,289,1
40,28,33,96,1
94,134,110,14,1
5,63,103,87,1
203,250,44,65,1
70,95,57,125,1
96,113,33,13,1
157,12,186,164,1
2,123,0,125,1
14,21,149,175,1
178,100,32,117,1
279,63,38,86,1
70,134,44,108,1
113,81,232,34,1
137,26,4,9,1
0,67,78,65,1
18,6,318,201,1
97,78,5,121,1
25,21,267,175,1
144,15,12,63,1
124,191,132,75,1
28,37,27,23,1
66,178,51,26,1
2,97,42,50,1
52,104,62,55,1
84,120,64,27,1
217,145,0,152,1
66,13,0,132,1
105,34,47,121,1
120,19,72,114,1
2,20,48,129,1
14,42,19,89,1
157,54,137,123,1
7,102,26,15,1
31,101,182,131,1
8,13,106,109,1
83,13,249,27,1
107,227,127,71,1
34,173,279,207,1
140,193,75,3,1
124,105,144,177,1
73,120,48,3,1
116,138,63,35,1
3,6,50,52,1
194,5,243,225,1
119,125,17,83,1
50,5,127,82,1
23,13,0,86,1
46,6,0,24,1
100,26,65,3,1
39,15,3,67,1
75,84,0,49,1
51,23,0,20,1
0,61,45,227,1
101,77,68,5,1
105,10,107,204,1
36,55,42,64,1
126,21,84,115,1
4,66,40,3,1
1,27,146,120,1
39,73,0,25,1
127,31,0,46,1
145,49,59,45,1
9,6,39,118,1
151,42,0,75,1
38,91,16,195,1
0,15,62,22,1
229,43,95,205,1
81,42,7,72,1
76,67,228,178,1
189,122,0,77,1
104,59,193,146,1
34,25,0,56,1
30,11,176,180,1
213,110,7,11,1
137,136,149,102,1
58,92,7,57,1
85,104,22,88,1
55,174,129,147,1
138,89,175,9,1
146,36,75,70,1
90,34,60,111,1
89,25,97,128,1
8,70,95,57,1
83,96,72,129,1
20,13,115,57,1
57,53,100,46,1
133,44,15,1,1
26,201,19,3,1
41,18,118,98,1
0,111,97,50,1
25,147,17,3,1
37,6,61,41,1
55,93,155,7,1
52,28,3,46,1
61,125,106,35,1
69,63,115,98,1
40,163,0,75,1
54,30,127,183,1
168,99,17,37,1
53,84,62,1,1
19,6,0,84,1
101,21,109,2,1
22,142,63,154,1
99,110,3,44,1
79,101,136,80,1
128,113,8,17,1
152,130,64,47,1
55,33,63,124,1
51,17,166,120,1
71,8,107,149,1
52,110,216,126,1
12,11,208,173,1
53,100,152,139,1
130,109,71,31,1
66,23,40,15,1
2,49,70,44,1
20,9,85,38,1
66,25,14,38,1
33,38,46,79,1
66,57,4,67,1
78,33,1,16,1
1,43,171,75,1
59,28,0,39,1
90,14,71,58,1
106,81,44,38,1
5,60,51,152,1
140,99,22,62,1
19,55,11,164,1
36,129,5,19,1
17,154,182,168,1
69,52,0,36,1
30,46,68,89,1
1,10,134,45,1
85,44,0,17,1
47,77,4,0,1
83,93,82,95,1
65,70,4,33,1
46,13,197,77,1
237,153,23,107,1
143,129,124,195,1
12,36,114,42,1
119,117,37,44,1
1,147,0,132,1
75,126,44,21,1
48,29,60,6,1
33,32,107,82,1
105,121,34,25,1
72,22,0,50,1
79,49,14,22,1
118,81,207,40,1
28,40,1,201,1
34,10,125,108,1
65,8,0,223,1
156,164,149,166,1
151,191,64,25,1
55,59,220,101,1
61,51,40,31,1
8,79,159,61,1
134,186,106,7,1
66,73,23,51,1
89,53,146,68,1
52,31,140,21,1
72,57,138,85,1
81,88,75,51,1
52,84,0,34,1
14,94,67,186,1
102,28,7,77,1
87,125,8,131,1
102,112,27,55,1
62,81,173,27,1
13,27,26,47,1
0,44,249,167,1
48,110,145,127,1
179,11,0,3,1
103,66,0,56,1
96,7,57,71,1
160,83,207,134,1
4,192,24,7,1
102,153,211,105,1
13,91,6,113,1
158,187,9,191,1
75,75,144,51,1
6,33,75,143,1
150,119,93,18,1
32,111,18,95,1
115,71,79,98,1
65,64,0,23,1
3,128,16,37,1
113,33,24,29,1
8,7,112,125,1
88,22,34,71,1
76,38,0,2,1
12,6,20,142,1
45,36,58,199,1
102,68,81,2,1
125,62,87,81,1
2,97,2,43,1
2,10,0,114,1
52,18,18,34,1
73,23,42,12,1
39,26,69,85,1
149,116,107,95,1
18,66,68,94,1
117,85,177,58,1
118,14,0,23,1
19,30,74,95,1
39,51,0,11,1
6,121,17,69,1
83,59,105,7,1
16,12,0,86,1
85,14,64,116,1
61,109,26,43,1
1,22,61,77,1
165,104,20,12,1
36,5,0,52,1
4,47,0,47,1
69,32,4,10,1
106,86,88,51,1
37,8,14,132,1
74,59,33,21,1
55,118,59,158,1
25,7,6,78,1
38,90,56,7,1
89,44,22,2,1
45,96,15,108,1
67,100,100,138,1
105,129,13,159,1
83,59,0,106,1
92,75,107,7,1
26,23,20,72,1
117,127,39,53,1
1,79,90,44,1
46,104,95,107,1
74,8,42,87,1
5,31,44,97,1
101,27,0,91,1
127,46,17,10,1
2,59,0,18,1
69,33,14,3,1
75,87,18,50,1
92,14,113,62,1
56,48,108,2,1
32,28,158,151,1
192,185,95,50,1
44,99,0,11,1
71,28,0,77,1
230,73,31,63,1
23,28,0,27,1
104,44,90,29,1
100,78,0,4,1
112,51,34,5,1
76,35,76,116,1
50,44,100,23,1
115,51,20,98,1
14,80,140,61,1
29,12,8,77,1
81,44,111,118,1
9,15,15,7,1
67,61,25,199,1
60,41,67,85,1
86,123,78,52,1
53,11,136,27,1
9,6,66,130,1
41,35,222,103,1
8,108,69,4,1
58,19,186,94,1
39,87,217,67,1
47,55,49,23,1
109,49,138,145,1
33,27,65,67,1
57,7,114,61,1
81,21,16,55,1
30,68,59,259,1
69,65,236,198,1
57,16,88,9,1
52,155,140,56,1
5,25,0,10,1
8,5,122,32,1
66,22,4,23,1
81,100,10,25,1
80,7,0,50,1
59,31,34,5,1
106,73,155,91,1
187,187,209,19,1
191,78,64,101,1
17,95,43,64,1
2,36,46,41,1
11,100,72,22,1
239,240,153,210,1
25,115,8,53,1
101,150,198,178,1
139,32,0,91,1
101,5,106,129,1
4,11,47,2,1
98,7,63,59,1
138,51,23,1,1
13,5,12,3,1
34,113,110,287,1
242,237,135,124,1
50,84,4,17,1
8,240,110,99,1
268,212,65,39,1
6,9,90,12,1
115,19,83,118,1
39,27,187,59,1
101,55,97,3,1
288,57,157,34,1
214,88,30,3,1
92,34,0,44,1
279,98,62,104,1
274,24,73,74,1
72,41,9,9,1
36,7,88,83,1
230,56,20,114,1
102,11,64,77,1
20,11,231,205,1
28,12,12,42,1
95,11,21,29,1
44,6,82,30,1
124,88,0,20,1
53,20,89,87,1
222,141,46,142,1
117,40,0,96,1
115,40,71,72,1
20,82,45,71,1
49,193,98,90,1
83,98,43,47,1
35,165,28,20,1
48,83,70,152,1
50,13,213,140,1
176,154,98,7,1
3,78,75,38,1
122,211,165,49,1
27,23,98,58,1
36,28,78,7,1
27,54,80,53,1
27,5,54,77,1
43,65,13,23,1
138,35,70,91,1
14,151,72,6,1
34,14,87,46,1
87,141,44,4,1
110,72,99,76,1
23,43,131,61,1
46,15,54,1,1
66,10,151,76,1
45,7,134,157,1
102,86,84,122,1
77,6,26,42,1
70,37,0,6,1
89,58,0,60,1
33,12,6,14,1
16,46,2,62,1
93,137,60,36,1
8,14,120,80,1
107,157,77,154,1
1,21,148,187,1
28,53,38,96,1
66,39,20,129,1
88,48,128,1,1
129,81,55,197,1
3,18,89,7,1
11,103,23,76,1
72,64,0,66,1
54,65,23,1,1
103,11,105,105,1
86,67,0,35,1
133,101,0,54,1
46,57,42,31,1
49,24,42,38,1
87,180,78,20,1
196,190,54,14,1
17,126,38,1,1
17,40,0,22,1
68,48,37,6,1
97,43,51,20,1
62,11,100,69,1
43,138,16,172,1
58,51,83,128,1
30,157,33,62,1
100,26,35,14,1
95,15,0,7,1
27,76,93,63,1
37,78,58,44,1
18,43,77,140,1
150,19,142,153,1
106,26,52,65,1
8,13,94,108,1
13,18,7,4,1
41,56,0,67,1
118,119,0,57,1
137,11,244,63,1
18,32,41,126,1
19,7,172,20,1
23,27,72,129,1
35,5,0,4,1
63,83,40,50,1
32,86,21,86,1
79,58,15,23,1
51,87,16,73,1
74,69,35,56,1
90,77,78,84,1
26,104,0,18,1
84,115,124,40,1
136,139,13,36,1
90,75,78,4,1
7,169,0,89,1
64,78,55,60,1
13,97,71,17,1
53,67,1,66,1
149,99,118,5,1
119,51,166,0,1
2,54,0,138,1
103,54,17,63,1
104,68,20,74,1
136,80,57,3,1
165,301,108,54,1
39,13,0,28,1
90,93,81,64,1
139,6,46,85,1
100,10,32,84,1
36,82,2,58,1
179,235,83,125,1
111,67,0,22,1
18,31,8,42,1
103,36,59,65,1
148,63,47,20,1
7,98,25,47,1
26,75,0,45,1
63,17,56,10,1
66,90,21,119,1
56,50,33,26,1
7,9,46,127,1
77,11,107,98,1
49,82,49,41,1
171,141,9,21,1
3,10,151,2,1
1,70,16,48,1
51,21,192,18,1
79,83,0,73,1
54,33,130,52,1
195,279,62,53,1
13,91,149,98,1
1,41,29,24,1
0,70,229,248,1
0,87,211,175,1
2,82,25,119,1
50,177,0,179,1
87,44,29,7,1
109,133,12,30,1
93,67,65,26,1
149,145,37,47,1
6,20,73,22,1
126,114,9,4,1
120,106,34,52,1
48,11,70,173,1
82,110,16,8,1
26,148,71,44,1
107,133,2,41,1
9,28,139,129,1
82,65,70,43,1
52,136,201,165,1
83,50,49,125,1
63,46,227,95,1
4,57,0,136,1
79,42,159,50,1
100,19,21,52,1
15,92,58,1,1
116,5,59,69,1
52,72,169,63,1
86,35,0,161,1
95,116,33,14,1
32,47,32,73,1
26,43,0,76,1
0,19,2,70,1
151,70,141,95,1
27,8,2,15,1
107,152,35,96,1
161,179,80,5,1
42,12,82,182,1
108,95,5,132,1
7,98,19,19,1
2,25,25,126,1
19,86,162,164,1
12,64,0,53,1
176,75,221,73,1
141,188,0,83,1
78,308,96,102,1
10,247,69,29,1
31,114,0,18,1
13,5,72,159,1
109,26,10,37,1
17,69,107,67,1
151,105,81,81,1
101,31,61,10,1
62,82,0,18,1
151,50,21,41,1
14,58,113,36,1
96,207,0,93,1
24,10,48,211,1
115,68,40,213,1
58,68,0,16,1
48,5,150,1,1
79,107,133,252,1
50,24,76,3,1
163,121,183,4,1
51,61,15,72,1
13,11,0,2,1
47,43,139,249,1
156,315,76,18,1
96,16,125,365,1
236,231,58,323,1
86,22,87,183,1
21,78,187,513,1
93,87,61,26,1
81,71,89,147,1
23,150,0,46,1
41,43,161,87,1
108,8,0,739,1
40,63,233,234,1
4,17,0,258,1
64,54,228,78,1
284,67,155,129,1
175,92,355,176,1
8,52,79,4,1
74,37,166,134,1
63,7,75,107,1
51,111,25,162,1
146,231,205,42,1
56,204,35,252,1
24,206,225,24,1
8,126,114,152,1
10,79,175,296,1
285,63,39,166,1
85,189,6,228,1
137,26,55,247,1
287,116,42,19,1
6,5,100,74,1
8,16,0,30,1
205,30,112,168,1
235,97,105,49,1
34,120,200,123,1
24,250,0,22,1
194,169,149,6,1
35,60,155,164,1
27,7,17,80,1
22,183,64,3,1
103,8,120,63,1
170,186,224,249,1
159,56,104,74,1
114,139,358,215,1
38,93,113,66,1
89,79,156,121,1
69,36,77,51,1
12,61,106,224,1
18,77,0,262,1
248,123,377,212,1
59,15,296,374,1
4,20,23,193,1
119,18,191,267,1
3,6,4,274,1
7,44,88,221,1
0,86,0,440,1
101,63,134,207,1
124,23,246,71,1
335,371,471,0,1
68,30,226,96,1
129,159,298,97,1
264,67,79,192,1
6,61,118,365,1
129,102,270,303,1
232,24,0,165,1
23,105,284,104,1
54,257,43,80,1
34,65,370,224,1
139,283,143,209,1
135,72,251,2,1
13,132,232,2,1
185,91,75,28,1
108,146,176,74,1
76,11,84,405,1
121,24,285,119,1
71,38,227,272,1
220,34,420,150,1
174,51,5,296,1
80,270,80,24,1
159,29,28,125,1
86,11,82,205,1
146,98,182,302,1
148,196,127,8,1
326,193,111,110,1
273,70,0,17,1
24,50,51,25,1
36,42,77,214,1
16,131,53,229,1
271,159,208,286,1
123,16,21,257,1
29,82,206,121,1
4,12,51,80,1
186,21,4,64,1
244,93,0,100,1
270,219,418,236,1
33,49,292,6,1
196,41,515,415,1
64,62,321,82,1
101,39,103,221,1
165,123,42,16,1
75,38,193,323,1
97,196,56,71,1
92,128,218,370,1
3,28,98,142,1
71,95,225,21,1
120,113,134,56,1
260,128,367,21,1
15,74,176,219,1
128,81,412,259,1
9,43,34,88,1
0,16,68,4,1
31,24,150,14,1
74,81,35,392,1
132,7,0,209,1
176,78,207,43,1
69,60,198,111,1
271,176,41,58,1
60,114,26,112,1
404,184,79,41,1
45,49,2,4,1
144,152,258,290,1
215,91,0,20,1
219,28,241,478,1
152,109,10,67,1
246,12,145,22,1
35,75,18,181,1
302,195,322,154,1
45,142,334,29,1
65,69,141,93,1
68,21,171,11,1
50,42,292,193,1
173,144,688,350,1
101,136,180,38,1
10,66,222,77,1
4,114,93,19,1
39,23,244,92,1
27,486,133,13,1
36,20,407,131,1
79,94,660,230,1
65,152,214,521,1
23,81,663,431,1
212,176,159,175,1
5,188,220,287,1
206,181,515,17,1
0,74,310,226,1
121,52,497,528,1
12,125,494,13,1
51,20,102,144,1
109,149,354,135,1
42,114,207,296,1
70,171,148,188,1
26,131,123,117,1
98,10,175,22,1
36,276,22,34,1
375,395,27,10,1
12,301,0,343,1
123,12,172,133,1
24,57,110,124,1
158,221,220,27,1
187,183,294,259,1
28,44,441,39,1
127,115,21,31,1
111,26,566,141,1
122,178,371,112,1
61,14,260,2,1
38,176,356,10,1
45,17,8,8,1
85,30,34,129,1
164,138,38,313,1
5,54,213,38,1
94,21,324,87,1
226,9,577,208,1
3,203,188,345,1
170,104,31,54,1
80,17,232,64,1
23,29,276,91,1
182,46,407,123,1
72,46,204,62,1
5,7,0,72,1
3,62,331,226,1
176,72,344,8,1
138,94,315,13,1
161,38,483,403,1
14,103,557,36,1
86,231,220,220,1
47,466,14,161,1
41,12,174,166,1
35,53,0,504,1
138,8,244,69,1
18,129,107,74,1
46,50,169,244,1
206,126,40,431,1
68,36,17,110,1
112,125,16,49,1
89,30,244,6,1
20,43,75,130,1
109,86,337,228,1
58,228,342,81,1
130,246,320,326,1
333,58,413,381,1
312,107,148,40,1
200,19,363,274,1
255,74,109,57,1
21,169,342,9,1
96,28,0,399,1
114,37,434,80,1
273,126,218,27,1
2,8,225,144,1
160,102,906,310,1
93,55,280,54,1
91,17,53,19,1
170,9,383,148,1
39,28,113,159,1
229,48,205,257,1
25,249,519,106,1
100,23,127,150,1
43,123,188,94,1
178,193,176,211,1
24,8,118,100,1
244,163,35,141,1
202,232,337,70,1
1,79,294,66,1
5,49,58,19,1
397,53,135,24,1
313,131,38,245,1
20,51,174,247,1
86,63,28,4,1
116,42,0,11,1
19,185,447,465,1
8,131,570,516,1
185,67,336,14,1
132,216,212,41,1
4,89,537,318,1
120,194,47,26,1
46,76,231,186,1
35,82,385,99,1
138,86,6,6,1
36,32,132,1,1
231,14,424,122,1
172,86,31,22,1
105,34,19,70,1
237,80,207,105,1
105,89,15,41,1
215,129,248,160,1
127,106,128,78,1
84,58,294,189,1
171,138,0,41,1
234,71,152,133,1
76,25,7,67,1
212,56,60,41,1
69,50,72,55,1
106,11,193,126,1
99,64,14,15,1
121,83,75,109,1
156,111,364,205,1
14,23,238,30,1
3,20,43,69,1
45,29,43,193,1
240,239,90,57,1
104,32,0,175,1
63,23,202,180,1
143,74,58,50,1
62,59,278,347,1
104,59,218,176,1
136,243,49,41,1
5,27,60,61,1
87,30,374,214,1
25,18,58,78,1
100,52,73,142,1
317,45,90,133,1
3,11,323,267,1
179,128,29,54,1
63,88,72,139,1
155,100,37,109,1
118,40,171,38,1
33,44,166,126,1
67,35,163,144,1
40,31,95,46,1
80,7,187,209,1
149,96,220,8,1
115,103,268,209,1
19,150,12,27,1
0,31,305,110,1
148,141,103,13,1
25,75,63,3,1
157,84,20,72,1
137,199,91,182,1
22,30,16,33,1
103,136,111,99,1
125,151,67,197,1
19,48,53,66,1
169,166,45,140,1
3,169,8,144,1
251,41,116,185,1
98,12,159,139,1
3,105,35,47,1
108,96,85,119,1
23,58,171,3,1
56,29,321,40,1
91,39,33,31,1
78,12,0,136,1
112,76,270,63,1
129,208,108,103,1
110,18,95,167,1
46,144,86,25,1
15,7,192,53,1
147,118,148,286,1
126,189,59,121,1
23,44,37,240,1
11,104,161,20,1
108,37,38,121,1
194,119,94,119,1
75,77,160,116,1
15,109,143,245,1
169,290,18,17,1
21,95,40,78,1
93,63,20,116,1
105,105,112,49,1
130,116,83,65,1
138,90,95,44,1
93,32,64,171,1
96,5,101,94,1
3,142,166,61,1
121,74,200,23,1
115,80,253,146,1
67,51,80,11,1
91,11,94,59,1
283,127,317,164,1
186,263,134,24,1
180,79,173,192,1
47,70,211,69,1
245,126,58,43,1
15,38,39,8,1
21,8,139,125,1
113,36,56,55,1
0,66,18,95,1
87,15,64,34,1
241,76,83,43,1
51,22,0,52,1
157,79,72,55,1
117,7,14,46,1
89,21,66,36,1
39,79,146,195,1
173,42,49,44,1
25,174,166,139,1
9,39,197,78,1
145,210,37,13,1
58,165,40,39,1
272,104,328,135,1
23,104,5,121,1
23,68,337,102,1
67,56,174,48,1
24,129,87,11,1
144,115,15,96,1
62,18,49,37,1
64,5,468,256,1
94,65,5,84,1
99,87,391,430,1
1,49,131,149,1
199,60,63,244,1
148,34,167,106,1
80,83,136,124,1
2,118,59,91,1
22,33,107,263,1
43,13,80,49,1
16,65,207,168,1
166,11,12,49,1
67,11,129,120,1
73,30,41,9,1
129,7,61,92,1
48,11,297,93,1
46,78,53,185,1
100,29,357,151,1
170,62,17,63,1
5,9,154,13,1
23,22,426,158,1
142,94,120,112,1
43,120,513,320,1
51,200,31,170,1
222,49,158,70,1
104,19,220,85,1
79,286,104,97,1
119,7,297,137,1
105,25,114,181,1
129,91,26,2,1
39,72,300,222,1
291,315,197,47,1
2,17,181,48,1
164,169,20,112,1
67,14,21,232,1
91,104,137,85,1
52,109,31,51,1
84,47,195,54,1
151,6,117,65,1
76,43,0,28,1
18,26,183,83,1
12,41,104,109,1
44,71,19,41,1
184,13,28,32,1
20,154,124,44,1
149,43,1,81,1
82,139,96,160,1
53,9,147,56,1
50,57,236,145,1
16,61,2,101,1
61,48,232,242,1
136,55,30,44,1
33,12,141,134,1
147,65,0,37,1
14,18,47,36,1
11,16,60,49,1
164,195,30,81,1
37,10,104,17,1
185,58,109,97,1
5,44,129,76,1
12,217,132,145,1
86,50,170,93,1
44,23,105,82,1
113,82,76,86,1
137,145,277,86,1
2,9,29,17,1
56,8,53,5,1
93,7,10,67,1
101,7,86,89,1
157,145,24,19,1
97,11,143,107,1
115,303,48,20,1
73,10,90,67,1
104,188,75,15,1
51,42,28,6,1
23,7,11,18,1
66,144,118,52,1
24,172,151,98,1
63,64,37,18,1
47,78,207,182,1
20,39,124,127,1
27,58,75,135,1
115,77,145,16,1
95,15,0,27,1
57,78,1,76,1
32,9,118,123,1
81,66,114,83,1
73,43,40,92,1
37,57,34,70,1
0,105,24,20,1
117,282,40,121,1
108,101,74,140,1
74,24,58,54,1
110,138,36,45,1
109,108,0,3,1
31,20,33,9,1
145,62,0,15,1
22,8,31,26,1
106,33,0,25,1
35,10,61,30,1
40,10,21,9,1
111,15,5,31,1
129,142,27,44,1
118,6,116,62,1
12,89,100,16,1
75,63,57,94,1
98,77,79,44,1
11,15,27,52,1
54,16,38,48,1
91,5,0,2,1
55,191,12,116,1
74,74,44,3,1
44,19,17,59,1
54,67,96,71,1
98,162,0,58,1
49,57,31,70,1
102,79,22,29,1
9,14,0,94,1
11,41,11,6,1
67,52,0,13,1
27,6,48,127,1
108,101,67,12,1
62,38,13,119,1
46,30,105,108,1
130,34,2,76,1
4,71,167,103,1
164,193,55,13,1
83,162,45,94,1
163,27,22,13,1
91,107,0,5,1
8,85,48,92,1
90,12,19,1,1
59,19,5,43,1
49,7,143,92,1
189,193,43,36,1
102,118,101,71,1
48,43,1,59,1
115,113,0,60,1
201,124,104,75,1
95,38,29,19,1
7,20,86,64,1
20,62,11,18,1
17,33,0,39,1
102,141,81,60,1
151,62,0,21,1
72,45,20,61,1
27,41,0,49,1
7,68,23,37,1
123,9,0,136,1
40,16,99,46,1
64,73,8,109,1
51,116,144,88,1
30,16,2,131,1
65,129,116,135,1
17,7,0,25,1
6,139,83,80,1
120,23,158,57,1
40,51,78,111,1
144,108,195,119,1
125,109,51,53,1
2,40,157,53,1
81,79,1,163,1
17,38,236,87,1
13,8,64,23,1
73,75,7,49,1
18,18,41,39,1
6,75,35,56,1
3,56,78,149,1
3,65,124,103,1
71,13,3,29,1
113,189,168,174,1
50,31,8,113,1
33,26,175,237,1
125,28,39,99,1
50,24,30,179,1
57,101,41,155,1
34,106,188,96,1
96,102,8,148,1
31,60,219,238,1
6,19,22,9,1
35,22,59,307,1
16,11,33,19,1
11,117,57,153,1
117,133,73,37,1
251,233,103,173,1
18,6,118,94,1
132,84,16,120,1
111,24,0,150,1
106,226,0,103,1
258,79,41,121,1
22,79,29,30,1
14,136,19,89,1
59,16,33,14,1
167,9,6,13,1
100,275,194,8,1
21,209,0,27,1
69,78,218,33,1
57,105,70,35,1
198,223,163,19,1
41,76,121,2,1
49,122,63,2,1
0,247,71,111,1
87,56,25,85,1
80,274,210,44,1
8,239,43,30,1
170,107,142,300,1
5,33,33,40,1
189,187,171,318,1
95,99,39,68,1
9,22,48,114,1
82,39,220,248,1
113,47,164,80,1
118,172,17,98,1
126,49,205,21,1
205,41,69,363,1
1,46,123,253,1
164,141,89,44,1
67,241,21,68,1
3,62,82,113,1
8,170,181,9,1
51,141,218,283,1
158,202,221,2,1
6,29,77,115,1
127,75,204,115,1
18,15,25,154,1
14,103,4,10,1
9,93,17,59,1
43,225,0,174,1
214,101,21,198,1
12,96,28,329,1
18,59,48,65,1
169,23,103,15,1
39,61,239,65,1
20,102,15,206,1
43,99,53,53,1
54,46,320,74,1
59,31,110,127,1
59,92,124,277,1
5,22,159,316,1
71,197,39,97,1
262,186,197,41,1
237,170,77,438,1
182,343,424,65,1
241,387,22,350,1
40,100,13,49,1
18,17,241,41,1
74,21,205,17,1
257,140,95,308,1
9,88,123,34,1
66,50,95,359,1
196,10,151,286,1
81,49,185,226,1
17,60,217,62,1
97,102,56,158,1
151,7,0,178,1
41,9,9,90,1
47,33,265,145,1
5,49,19,123,1
130,36,57,99,1
84,105,382,219,1
331,357,526,60,1
78,195,86,43,1
3,88,119,203,1
147,73,170,167,1
76,109,179,97,1
290,227,219,20,1
48,66,195,198,1
61,94,395,130,1
404,108,195,66,1
19,404,205,134,1
116,127,126,328,1
20,85,219,202,1
166,67,292,31,1
219,116,311,237,1
270,175,143,123,1
57,181,81,130,1
114,152,318,42,1
262,7,64,335,1
177,145,490,219,1
62,336,13,134,1
88,155,575,317,1
192,136,270,48,1
48,35,124,400,1
0,117,0,28,1
169,67,53,316,1
79,123,212,351,1
175,159,100,50,1
132,29,132,153,1
86,25,389,495,1
115,82,421,72,1
12,16,179,244,1
193,105,400,35,1
87,192,29,163,1
190,86,454,370,1
71,14,239,113,1
26,119,495,487,1
81,15,126,115,1
143,117,126,15,1
155,52,102,119,1
220,118,39,75,1
101,250,433,119,1
154,57,64,17,1
29,75,147,81,1
73,27,99,419,1
58,192,240,278,1
106,71,266,23,1
134,46,47,355,1
133,13,47,308,1
171,25,631,308,1
265,32,638,110,1
114,25,118,289,1
39,6,338,51,1
47,138,82,291,1
4,19,214,165,1
115,131,306,352,1
94,527,177,48,1
57,179,288,134,1
1,54,401,203,1
1,365,92,109,1
8,280,32,64,1
58,153,21,128,1
242,318,131,18,1
269,203,179,217,1
170,37,0,55,1
35,35,246,38,1
245,91,309,82,1
45,17,38,291,1
83,72,0,47,1
56,79,33,398,1
258,272,119,16,1
23,398,47,127,1
181,83,176,175,1
162,259,98,193,1
115,335,119,21,1
169,494,0,32,1
68,13,246,119,1
44,55,291,109,1
152,84,111,92,1
94,41,214,7,1
27,24,322,334,1
188,20,154,579,1
91,71,147,254,1
151,8,99,3,1
14,21,774,34,1
180,7,344,63,1
59,24,253,81,1
30,334,91,92,1
272,110,145,241,1
249,153,98,54,1
9,48,220,252,1
68,53,0,101,1
245,29,55,300,1
152,135,70,288,1
46,176,545,40,1
17,194,287,106,1
8,19,206,296,1
44,39,0,63,1
28,115,7,34,1
62,10,72,25,1
139,16,673,33,1
126,33,199,75,1
70,39,527,225,1
289,246,99,200,1
242,28,326,18,1
89,33,12,510,1
16,41,52,34,1
47,11,36,206,1
99,7,43,88,1
20,220,26,98,1
50,113,502,344,1
22,24,86,101,1
207,327,5,41,1
178,91,379,7,1
228,50,85,74,1
189,16,222,53,1
107,198,132,15,1
122,141,387,52,1
17,21,704,281,1
159,60,598,68,1
129,66,0,253,1
131,79,886,191,1
55,81,451,271,1
53,33,78,330,1
98,91,316,457,1
167,50,0,66,1
124,10,487,316,1
112,39,421,27,1
102,298,911,430,1
66,32,2,192,1
9,77,548,325,1
184,23,544,441,1
50,107,52,266,1
31,217,181,23,1
256,320,444,273,1
307,11,399,182,1
186,149,139,217,1
217,44,147,85,1
174,170,598,278,1
119,10,246,121,1
4,71,23,342,1
43,13,0,205,1
114,103,48,108,1
172,84,54,2,1
116,70,118,58,1
168,72,45,15,1
115,128,3,50,1
86,292,36,86,1
20,84,0,11,1
175,59,481,126,1
21,38,0,49,1
375,105,567,523,1
344,23,94,154,1
57,34,5,206,1
103,19,443,504,1
348,66,232,54,1
53,5,171,60,1
229,7,464,247,1
152,28,70,71,1
137,143,484,210,1
147,169,74,3,1
50,71,43,139,1
59,246,91,40,1
40,123,355,56,1
153,103,223,126,1
293,110,209,200,1
68,46,375,346,1
36,58,215,89,1
87,9,367,291,1
77,191,99,166,1
19,73,0,22,1
197,113,128,382,1
138,55,275,231,1
1,123,50,149,1
18,81,759,286,1
202,293,1023,355,1
176,223,553,224,1
144,13,755,339,1
211,333,602,417,1
121,7,17,136,1
15,76,344,324,1
104,119,193,77,1
165,142,187,134,1
116,89,104,81,1
99,9,203,82,1
59,39,98,239,1
320,235,145,205,1
247,11,468,230,1
187,130,433,23,1
148,37,85,66,1
121,106,130,70,1
129,10,120,198,1
116,23,261,184,1
89,23,521,219,1
113,95,476,141,1
51,131,104,68,1
119,38,363,206,1
216,19,243,10,1
150,7,188,223,1
202,81,282,62,1
97,94,98,17,1
35,122,38,106,1
136,29,30,5,1
8,27,178,252,1
141,6,363,60,1
146,150,0,149,1
127,20,347,110,1
114,169,166,82,1
21,54,323,195,1
167,131,239,19,1
36,12,109,16,1
134,134,215,90,1
78,77,134,191,1
56,138,492,224,1
60,325,56,19,1
89,12,104,159,1
30,135,133,29,1
82,74,162,172,1
11,116,321,82,1
125,75,24,54,1
102,122,106,7,1
155,139,416,276,1
157,15,111,81,1
20,35,237,262,1
91,180,131,208,1
185,133,16,212,1
116,80,205,230,1
35,9,83,95,1
1,150,308,177,1
77,84,281,195,1
78,170,86,63,1
60,13,93,64,1
76,60,177,170,1
89,8,0,63,1
136,103,0,142,1
91,94,13,9,1
115,95,95,48,1
115,32,205,44,1
4,114,25,37,1
97,102,13,11,1
49,19,12,130,1
82,112,111,96,1
16,70,153,128,1
110,147,51,105,1
201,195,58,77,1
92,38,6,95,1
97,12,221,156,1
80,123,163,5,1
5,44,1,5,1
187,23,110,108,1
168,99,7,18,1
41,10,1,187,1
206,304,87,46,1
5,126,128,70,1
10,109,11,41,1
8,28,155,105,1
145,165,82,23,1
22,26,7,18,1
97,144,0,17,1
206,172,256,77,1
363,127,93,76,1
95,77,206,146,1
132,34,0,28,1
44,117,130,176,1
98,16,122,120,1
131,88,88,312,1
3,7,34,54,1
41,52,125,113,1
98,158,177,85,1
231,144,90,77,1
58,17,160,32,1
99,160,13,1,1
160,43,185,19,1
3,53,199,191,1
0,20,168,63,1
51,22,261,44,1
167,168,105,101,1
39,199,117,156,1
59,75,95,69,1
77,140,194,47,1
25,29,109,21,1
19,80,71,13,1
78,125,14,91,1
53,43,54,46,1
119,91,27,91,1
111,34,4,65,1
150,68,3,115,1
176,149,122,165,1
1,103,269,213,1
78,56,340,166,1
7,185,27,226,1
18,118,263,228,1
0,39,237,110,1
145,70,173,59,1
53,151,30,40,1
79,154,133,83,1
67,6,0,74,1
70,141,23,119,1
0,67,320,126,1
86,109,10,76,1
20,23,590,266,1
68,104,167,133,1
136,67,131,55,1
23,25,2,14,1
136,145,150,112,1
133,55,28,55,1
155,120,198,190,1
42,17,207,4,1
127,51,220,7,1
128,9,62,116,1
11,81,27,11,1
36,39,211,109,1
62,28,46,54,1
10,72,38,7,1
39,9,147,80,1
60,38,0,11,1
23,39,179,28,1
113,163,36,195,1
22,114,99,127,1
80,151,33,102,1
83,13,143,22,1
57,122,141,195,1
65,13,105,83,1
158,87,0,70,1
58,17,62,87,1
39,49,429,278,1
170,68,293,191,1
11,85,341,441,1
214,37,175,138,1
21,73,0,65,1
60,47,93,169,1
102,101,74,49,1
133,40,9,64,1
113,106,51,117,1
96,21,43,30,1
253,76,35,78,1
158,54,96,131,1
40,27,71,149,1
39,165,31,3,1
37,31,197,125,1
47,260,67,86,1
134,7,22,117,1
197,338,74,54,1
21,104,4,90,1
53,101,96,71,1
146,66,283,146,1
179,9,39,37,1
168,26,332,286,1
182,200,19,41,1
104,113,101,101,1
62,42,123,4,1
64,11,10,57,1
167,122,5,110,1
55,61,139,48,1
56,120,60,188,1
104,41,219,127,1
149,7,103,46,1
71,152,119,11,1
74,33,103,140,1
102,52,3,36,1
56,12,81,2,1
59,80,47,25,1
120,58,125,58,1
70,167,47,14,1
123,65,254,71,1
128,30,78,13,1
128,64,0,14,1
30,29,45,45,1
36,132,160,46,1
76,110,227,104,1
5,21,218,116,1
26,92,141,60,1
94,7,75,7,1
0,84,75,22,1
96,47,124,62,1
180,199,0,76,1
82,45,44,3,1
14,22,43,114,1
62,8,166,111,1
13,67,0,32,1
180,150,0,34,1
229,364,85,154,1
8,20,16,18,1
121,36,99,39,1
167,100,179,104,1
65,43,168,95,1
46,65,324,137,1
8,7,102,63,1
14,42,142,168,1
79,53,45,31,1
1,77,138,24,1
110,80,26,23,1
144,11,187,11,1
136,26,11,185,1
28,47,131,76,1
77,53,188,140,1
92,66,6,38,1
21,22,41,62,1
75,54,36,66,1
177,178,62,45,1
22,11,100,5,1
52,7,170,125,1
121,63,189,22,1
1,15,177,157,1
3,48,115,69,1
12,9,36,50,1
119,79,37,29,1
136,112,74,105,1
9,54,49,24,1
237,88,21,36,1
112,103,110,2,1
135,115,55,68,1
16,43,135,12,1
7,48,167,183,1
106,29,152,57,1
6,8,13,83,1
29,43,97,92,1
163,25,32,3,1
62,72,17,132,1
121,69,47,60,1
39,99,42,19,1
63,21,106,46,1
127,103,8,37,1
88,193,10,55,1
131,119,12,35,1
3,10,0,59,1
21,19,17,131,1
167,128,102,32,1
10,27,46,53,1
12,6,0,53,1
72,119,0,35,1
73,10,3,20,1
101,92,0,21,1
16,7,47,3,1
81,51,55,90,1
64,70,83,48,1
31,113,43,119,1
155,58,36,28,1
6,36,196,122,1
201,127,60,70,1
112,82,127,119,1
29,22,75,17,1
60,20,42,22,1
13,72,9,1,1
56,29,0,78,1
94,97,110,53,1
127,252,67,113,1
51,106,55,4,1
106,141,69,126,1
85,85,32,10,1
13,38,0,23,1
82,87,80,84,1
4,45,0,9,1
27,62,39,76,1
73,28,47,89,1
8,18,0,42,1
51,6,20,85,1
47,41,45,33,1
7,54,22,96,1
43,179,104,110,1
17,81,43,66,1
14,110,72,224,1
176,7,152,20,1
4,63,77,237,1
107,35,90,54,1
2,34,69,147,1
109,25,32,49,1
90,60,21,50,1
6,54,25,89,1
108,76,12,25,1
60,77,0,2,1
73,17,159,85,1
110,131,69,41,1
43,13,25,56,1
120,131,11,50,1
21,26,22,53,1
121,214,56,88,1
52,123,68,1,1
23,66,46,29,1
112,211,22,19,1
7,19,91,108,1
115,130,86,77,1
115,65,105,107,1
38,58,83,52,1
156,223,8,29,1
67,75,136,88,1
79,47,20,108,1
16,137,0,120,1
122,154,60,27,1
134,87,52,18,1
73,12,0,79,1
92,42,124,10,1
78,52,62,7,1
38,5,38,22,1
65,8,188,133,1
70,75,23,109,1
73,163,240,176,1
18,130,2,53,1
37,10,55,64,1
25,62,125,25,1
0,152,74,147,1
60,124,148,94,1
103,14,11,97,1
4,11,1,37,1
4,189,141,99,1
14,175,11,171,1
87,42,129,113,1
175,57,37,145,1
83,9,205,112,1
22,9,47,31,1
87,46,81,63,1
2,91,35,103,1
91,84,0,78,1
81,48,140,168,1
32,24,68,122,1
110,47,180,124,1
9,121,4,155,1
5,7,94,243,1
55,43,42,7,1
46,68,309,296,1
13,61,200,118,1
69,36,207,124,1
45,137,109,121,1
41,6,37,138,1
115,384,2,48,1
74,7,33,4,1
163,64,149,109,1
6,25,130,163,1
22,73,85,135,1
10,193,41,180,1
135,212,2,27,1
100,132,6,10,1
68,92,77,201,1
7,60,37,146,1
191,282,30,367,1
56,81,28,98,1
139,212,0,383,1
5,133,48,7,1
9,116,138,473,1
138,170,142,111,1
35,79,6,78,1
0,35,144,79,1
22,236,168,110,1
118,43,137,142,1
33,7,63,34,1
181,33,152,96,1
51,163,258,142,1
137,6,110,33,1
79,229,132,209,1
69,129,0,13,1
100,11,242,252,1
96,124,109,30,1
53,7,58,162,1
94,88,316,11,1
175,47,63,77,1
29,76,21,102,1
128,55,97,50,1
94,6,200,13,1
38,113,59,296,1
103,159,61,115,1
68,145,160,51,1
108,20,413,331,1
114,134,77,142,1
138,87,268,316,1
321,73,135,1,1
22,60,23,5,1
124,28,213,76,1
74,70,23,11,1
39,47,213,133,1
50,45,90,300,1
113,228,92,321,1
16,30,77,13,1
299,51,44,36,1
106,110,86,12,1
12,8,130,78,1
152,21,0,38,1
3,45,216,193,1
57,99,140,247,1
12,38,292,130,1
169,129,378,58,1
102,60,53,171,1
170,100,149,226,1
306,71,141,531,1
100,25,117,103,1
46,15,60,418,1
187,11,287,480,1
114,16,159,129,1
80,50,54,166,1
52,161,148,17,1
3,215,41,47,1
15,20,281,21,1
93,72,86,409,1
65,75,379,159,1
81,93,49,139,1
336,208,113,30,1
128,85,292,37,1
9,23,334,96,1
186,133,124,188,1
76,134,145,46,1
159,118,143,24,1
204,144,0,295,1
187,146,615,22,1
26,83,328,115,1
175,76,577,4,1
45,45,239,631,1
28,27,279,246,1
153,39,5,487,1
131,41,12,268,1
227,185,8,17,1
279,122,21,14,1
80,154,363,209,1
303,228,174,135,1
227,40,323,117,1
74,238,206,371,1
126,157,114,374,1
22,41,60,150,1
268,75,0,79,1
205,50,288,302,1
109,9,134,309,1
8,32,0,325,1
36,47,359,61,1
71,13,374,149,1
24,61,135,186,1
5,67,385,171,1
60,51,95,206,1
15,23,113,350,1
165,130,295,440,1
123,29,248,591,1
4,180,84,3,1
171,75,0,90,1
117,60,338,99,1
109,40,126,186,1
12,117,0,19,1
292,223,68,126,1
38,67,22,353,1
87,34,68,50,1
69,35,72,117,1
111,17,341,106,1
11,125,155,321,1
143,37,433,200,1
55,13,275,43,1
2,68,0,304,1
218,145,89,109,1
12,7,512,243,1
3,70,414,8,1
11,12,274,196,1
281,155,182,12,1
135,157,176,183,1
0,58,168,471,1
207,197,424,416,1
28,36,573,176,1
89,79,352,98,1
26,89,380,225,1
69,19,131,56,1
75,91,173,4,1
30,31,75,410,1
6,41,517,16,1
81,10,156,68,1
31,59,552,228,1
182,118,417,236,1
89,216,479,211,1
160,426,337,144,1
78,248,425,319,1
208,85,283,105,1
142,350,243,277,1
89,98,167,292,1
73,33,167,79,1
125,31,218,102,1
67,312,273,193,1
243,26,390,279,1
42,24,42,36,1
75,74,29,121,1
62,66,176,135,1
82,27,30,62,1
226,78,503,161,1
272,209,105,288,1
69,22,479,231,1
116,253,135,88,1
5,64,968,540,1
227,184,109,324,1
155,104,1023,332,1
610,495,153,103,1
82,162,185,166,1
92,145,211,29,1
50,28,21,27,1
100,20,496,139,1
100,7,179,410,1
123,22,377,103,1
289,22,0,8,1
155,57,461,293,1
44,93,192,84,1
115,76,241,139,1
114,144,407,66,1
187,235,279,68,1
350,138,42,11,1
219,8,227,105,1
4,7,7,114,1
88,177,413,15,1
4,24,149,49,1
10,156,360,33,1
28,268,0,310,1
84,63,438,81,1
81,129,92,270,1
82,99,90,286,1
84,9,429,152,1
75,5,0,126,1
121,140,381,339,1
121,41,87,134,1
47,42,572,306,1
197,154,527,27,1
103,73,207,462,1
14,148,389,232,1
181,100,344,323,1
86,165,306,358,1
175,33,140,11,1
23,129,243,300,1
203,83,14,54,1
195,11,65,40,1
46,14,152,61,1
218,118,139,209,1
4,5,292,387,1
90,72,424,120,1
79,92,286,204,1
19,57,316,131,1
66,13,35,248,1
86,48,170,28,1
292,110,344,113,1
203,23,0,66,1
32,22,174,7,1
101,85,119,245,1
275,37,224,187,1
55,120,269,48,1
94,75,165,46,1
2,62,365,253,1
7,153,116,3,1
78,30,50,59,1
211,105,27,40,1
215,101,0,8,1
5,18,84,24,1
155,68,232,54,1
52,94,112,87,1
184,15,62,73,1
128,58,55,2,1
198,75,55,42,1
228,9,42,62,1
98,104,153,111,1
168,124,274,224,1
131,63,100,41,1
34,13,236,218,1
71,64,9,21,1
112,6,60,187,1
187,144,7,45,1
1,34,72,67,1
5,30,306,49,1
120,7,92,70,1
130,23,94,92,1
154,111,83,53,1
108,122,18,26,1
82,141,301,152,1
134,84,73,75,1
295,155,157,71,1
57,156,29,34,1
74,154,120,3,1
8,96,7,58,1
69,9,23,88,1
106,26,23,53,1
216,96,98,63,1
119,24,37,103,1
34,69,107,85,1
135,12,14,23,1
46,61,180,50,1
105,46,73,86,1
14,124,0,87,1
133,59,486,189,1
1,147,120,55,1
7,48,42,76,1
96,26,22,32,1
47,8,159,26,1
4,78,110,48,1
185,230,198,65,1
71,78,5,33,1
173,118,4,60,1
13,42,0,6,1
11,17,79,13,1
124,25,320,209,1
87,7,61,74,1
179,248,495,303,1
1,27,228,131,1
125,68,117,205,1
73,19,48,33,1
1,77,113,70,1
108,195,59,27,1
141,186,62,56,1
204,65,0,27,1
213,24,87,296,1
114,18,48,93,1
188,155,0,35,1
95,25,0,123,1
135,149,15,82,1
109,61,42,10,1
1,72,120,99,1
119,20,0,51,1
97,41,72,66,1
62,109,144,19,1
86,135,77,18,1
5,116,87,5,1
302,98,0,70,1
74,199,34,16,1
43,73,21,91,1
122,19,25,25,1
28,9,37,2,1
155,100,158,78,1
59,75,9,16,1
64,46,175,107,1
120,102,173,211,1
64,118,167,124,1
132,253,0,25,1
154,39,33,22,1
102,61,7,4,1
42,62,0,138,1
95,37,221,172,1
251,191,24,90,1
277,111,33,58,1
150,109,36,137,1
69,113,0,103,1
0,60,197,70,1
31,57,31,92,1
2,7,202,50,1
24,54,106,68,1
0,182,67,102,1
15,94,68,110,1
29,25,67,20,1
103,15,0,18,1
86,211,142,147,1
171,155,411,351,1
124,22,78,219,1
47,29,354,308,1
26,9,20,6,1
38,14,221,199,1
3,30,170,32,1
139,20,152,34,1
343,43,341,136,1
78,17,124,9,1
4,43,116,162,1
141,151,78,16,1
18,57,126,138,1
112,33,0,5,1
106,27,72,84,1
7,105,16,111,1
97,34,11,20,1
4,8,3,74,1
32,61,94,108,1
38,13,254,48,1
196,34,12,85,1
160,63,127,124,1
30,12,29,47,1
118,15,238,16,1
200,116,152,73,1
108,7,266,60,1
18,18,61,71,1
27,13,106,209,1
77,73,110,106,1
146,114,60,65,1
9,45,318,134,1
16,17,382,112,1
45,12,94,125,1
50,328,222,174,1
44,137,114,15,1
3,37,64,171,1
158,16,0,85,1
17,7,71,118,1
80,57,0,107,1
118,94,62,28,1
59,41,28,196,1
27,33,0,148,1
121,57,120,140,1
2,188,122,15,1
52,43,195,175,1
101,6,71,294,1
184,180,63,101,1
86,88,183,43,1
18,15,265,147,1
250,337,119,51,1
175,86,291,186,1
173,373,41,29,1
9,153,102,34,1
154,24,29,9,1
96,26,99,1,1
68,41,77,142,1
54,7,269,136,1
26,26,3,61,1
109,11,186,98,1
113,139,115,112,1
1,41,17,19,1
93,51,10,72,1
133,75,38,106,1
120,74,68,75,1
14,7,32,62,1
40,38,166,10,1
144,124,209,178,1
9,55,52,13,1
213,145,129,102,1
9,21,27,63,1
6,47,27,27,1
232,178,81,49,1
136,104,249,167,1
87,55,100,25,1
172,65,349,208,1
40,88,126,52,1
37,34,51,30,1
45,43,104,7,1
67,23,0,31,1
152,90,138,5,1
122,20,0,1,1
17,77,73,31,1
116,123,0,57,1
200,135,0,20,1
24,53,19,10,1
56,19,0,129,1
126,37,87,118,1
45,101,114,6,1
36,11,204,109,1
181,153,36,33,1
88,85,0,60,1
64,129,65,62,1
40,8,160,32,1
150,148,141,99,1
35,7,59,3,1
13,47,63,164,1
119,119,61,55,1
2,7,13,32,1
144,94,131,79,1
57,57,0,52,1
13,57,67,1,1
171,93,5,23,1
94,52,112,77,1
93,12,34,13,1
101,101,92,18,1
69,8,91,13,1
105,9,0,2,1
1,6,139,82,1
123,71,128,189,1
43,7,107,148,1
3,19,198,202,1
14,9,39,2,1
1,64,123,36,1
134,74,33,1,1
159,90,135,6,1
15,91,99,119,1
88,102,70,13,1
29,9,18,71,1
111,111,89,122,1
29,26,35,3,1
24,38,59,52,1
74,49,2,4,1
43,43,18,54,1
98,101,34,86,1
89,110,35,32,1
18,33,97,171,1
102,43,45,36,1
27,27,28,48,1
76,5,51,26,1
179,125,80,7,1
2,25,9,5,1
106,107,0,59,1
19,7,23,37,1
143,131,31,76,1
36,47,31,22,1
6,77,183,134,1
97,94,12,33,1
72,76,162,120,1
47,25,116,63,1
84,16,42,1,1
12,60,0,1,1
72,36,115,43,1
7,14,84,54,1
61,102,139,17,1
134,81,93,66,1
2,17,65,76,1
18,17,5,21,1
48,74,4,22,1
163,51,33,65,1
92,65,11,46,1
0,18,88,137,1
67,15,97,61,1
41,15,8,153,1
134,106,170,148,1
34,110,42,89,1
28,45,199,265,1
21,151,234,3,1
0,68,83,121,1
11,148,161,87,1
85,150,58,136,1
15,109,59,147,1
222,344,5,132,1
78,97,89,59,1
96,107,86,148,1
106,56,165,61,1
6,57,7,60,1
106,81,11,43,1
71,49,45,46,1
77,50,18,2,1
93,144,0,42,1
27,7,0,11,1
2,24,122,111,2
10,46,1,91,2
166,188,195,210,2
75,54,102,48,2
42,27,162,149,2
85,49,70,40,2
57,148,24,53,2
2,112,114,130,2
76,58,6,53,2
70,237,97,185,2
34,110,46,37,2
73,10,0,146,2
70,68,40,32,2
15,129,170,65,2
23,7,0,11,2
13,92,79,36,2
111,212,67,8,2
107,31,116,53,2
42,112,89,60,2
27,61,59,169,2
140,75,19,130,2
179,112,34,152,2
36,50,162,9,2
24,9,56,116,2
201,162,97,43,2
214,146,17,227,2
14,47,85,16,2
29,47,110,97,2
121,253,111,69,2
193,158,149,235,2
221,105,99,11,2
115,80,270,234,2
160,89,107,12,2
16,70,214,140,2
27,40,66,5,2
32,49,44,73,2
120,23,214,11,2
40,6,45,2,2
133,152,349,182,2
26,129,10,221,2
171,182,224,101,2
114,13,186,119,2
35,18,103,56,2
39,18,162,294,2
218,231,0,230,2
156,107,116,115,2
44,96,146,51,2
70,143,259,34,2
150,43,232,220,2
92,325,224,199,2
11,184,323,94,2
1,9,59,145,2
2,11,195,85,2
99,17,274,117,2
27,203,2,70,2
228,95,127,146,2
183,8,114,173,2
113,99,229,104,2
15,187,276,78,2
153,63,73,245,2
37,36,335,12,2
70,87,174,128,2
51,176,53,117,2
139,95,189,78,2
53,52,57,136,2
195,116,371,258,2
44,193,8,15,2
214,100,405,308,2
135,39,42,175,2
190,20,10,306,2
152,12,88,269,2
47,264,289,223,2
145,25,145,9,2
35,48,549,3,2
61,97,135,230,2
233,217,513,199,2
133,16,86,84,2
112,71,253,272,2
13,289,203,109,2
241,187,78,224,2
195,97,12,403,2
13,313,159,28,2
132,126,33,196,2
139,86,181,127,2
67,132,259,133,2
43,212,50,227,2
113,110,59,23,2
8,102,192,244,2
53,13,87,91,2
32,92,81,76,2
41,129,43,18,2
129,85,3,2,2
212,246,434,62,2
164,68,300,344,2
64,222,499,389,2
91,71,75,98,2
139,193,394,6,2
53,9,39,187,2
129,194,220,408,2
2,79,134,95,2
98,100,194,222,2
5,56,173,48,2
141,79,251,167,2
174,11,40,365,2
160,140,160,104,2
175,118,0,39,2
26,81,123,78,2
286,71,369,303,2
238,18,169,286,2
98,39,535,334,2
74,51,344,205,2
19,35,148,64,2
192,50,296,284,2
75,88,191,54,2
135,31,243,78,2
4,75,84,74,2
8,118,87,149,2
197,184,279,97,2
317,113,279,9,2
118,110,0,68,2
5,18,123,5,2
126,44,319,267,2
70,39,59,32,2
122,75,406,301,2
54,42,63,59,2
329,324,219,9,2
257,213,213,16,2
114,60,38,86,2
50,23,0,164,2
65,17,522,148,2
72,195,177,454,2
37,8,498,883,2
27,109,178,102,2
15,109,173,53,2
84,83,0,207,2
75,231,92,188,2
1,190,16,325,2
31,35,240,357,2
246,155,209,25,2
180,30,68,611,2
57,71,293,341,2
65,62,164,426,2
117,79,397,167,2
297,195,103,17,2
30,14,247,265,2
33,128,27,155,2
13,122,7,88,2
94,278,71,94,2
48,155,0,23,2
101,30,47,174,2
72,79,23,10,2
144,75,139,52,2
35,65,33,79,2
96,157,355,21,2
36,37,311,349,2
261,74,399,27,2
435,239,223,412,2
64,17,407,111,2
118,240,343,193,2
173,192,183,246,2
187,117,364,36,2
207,165,5,188,2
97,6,433,41,2
2,56,113,278,2
18,26,224,66,2
59,7,146,150,2
4,138,250,139,2
63,442,353,268,2
23,160,318,350,2
193,22,736,285,2
102,23,44,424,2
285,48,196,312,2
12,545,205,127,2
152,188,209,6,2
83,27,0,3,2
136,146,183,32,2
134,66,26,293,2
63,86,105,35,2
127,214,224,47,2
60,104,98,208,2
105,15,583,201,2
235,148,88,75,2
288,42,31,4,2
143,7,384,10,2
42,102,334,292,2
81,135,269,218,2
251,185,144,439,2
103,80,151,41,2
56,146,319,283,2
158,111,381,368,2
39,18,141,316,2
39,66,277,92,2
201,127,182,294,2
3,120,463,230,2
357,214,332,133,2
45,148,355,581,2
41,119,245,217,2
28,120,161,538,2
116,33,420,495,2
196,48,175,9,2
176,47,161,2,2
14,121,195,41,2
57,6,374,118,2
66,148,149,49,2
154,43,21,236,2
145,43,107,154,2
72,140,603,572,2
26,178,166,68,2
151,161,269,195,2
92,85,306,86,2
409,239,365,318,2
57,119,109,52,2
32,12,368,49,2
148,27,19,261,2
197,58,62,15,2
116,7,686,387,2
7,38,531,298,2
251,63,362,341,2
166,219,414,102,2
200,226,194,134,2
184,53,406,352,2
29,152,276,91,2
147,144,99,59,2
119,240,139,29,2
172,150,211,70,2
41,9,165,116,2
19,15,296,152,2
18,9,360,141,2
9,42,263,255,2
160,25,484,182,2
15,40,242,207,2
114,7,355,166,2
4,78,159,112,2
82,60,184,93,2
6,17,194,172,2
129,75,2,42,2
53,121,1,193,2
188,15,187,170,2
168,14,261,194,2
74,103,72,1,2
209,61,108,9,2
187,146,20,66,2
184,133,183,341,2
87,56,129,176,2
119,22,0,110,2
140,66,20,86,2
9,13,39,449,2
1,76,414,251,2
104,20,14,138,2
113,162,128,11,2
232,194,455,151,2
148,35,93,86,2
12,8,314,109,2
30,49,1,1,2
26,100,6,20,2
41,39,168,30,2
35,51,242,85,2
92,166,154,64,2
121,42,226,92,2
36,63,30,59,2
83,93,131,177,2
5,85,63,7,2
153,54,148,70,2
73,67,50,78,2
29,22,80,197,2
187,172,49,6,2
141,50,42,262,2
64,71,109,168,2
107,88,84,88,2
92,125,20,16,2
202,176,78,140,2
3,41,127,103,2
145,92,183,79,2
0,10,3,61,2
38,49,289,123,2
118,84,18,92,2
87,64,30,148,2
121,85,92,50,2
220,280,0,129,2
18,105,112,13,2
151,386,57,124,2
13,158,314,146,2
148,30,46,81,2
135,48,301,117,2
35,33,114,224,2
17,68,92,189,2
26,56,148,74,2
112,93,103,141,2
108,91,288,57,2
6,40,23,40,2
23,66,33,64,2
143,107,10,52,2
224,44,138,86,2
112,73,40,2,2
87,73,216,195,2
24,41,54,74,2
34,134,91,73,2
74,47,87,139,2
12,31,186,127,2
19,32,90,29,2
164,27,39,96,2
95,37,85,27,2
164,45,34,144,2
181,102,71,85,2
1,6,52,77,2
2,144,74,41,2
18,5,166,51,2
52,50,23,44,2
24,71,153,6,2
54,56,0,78,2
78,17,0,111,2
49,95,74,87,2
169,243,0,34,2
85,16,142,21,2
44,28,215,195,2
113,34,0,93,2
103,55,29,73,2
137,39,0,101,2
49,97,85,145,2
14,120,63,36,2
83,13,100,128,2
158,85,26,21,2
6,28,151,65,2
13,190,116,133,2
141,57,227,108,2
56,115,68,59,2
149,14,1,79,2
131,213,51,23,2
2,14,182,140,2
4,64,80,140,2
70,51,51,2,2
74,14,214,16,2
156,137,199,9,2
85,34,228,279,2
124,160,253,106,2
169,46,6,34,2
46,19,79,3,2
131,142,115,75,2
17,259,292,244,2
34,179,22,217,2
14,23,286,206,2
37,100,70,92,2
57,77,239,50,2
93,23,97,119,2
21,31,239,251,2
35,11,120,257,2
29,99,467,303,2
184,7,71,151,2
75,27,33,70,2
63,140,104,94,2
73,69,34,3,2
74,118,147,236,2
100,211,398,7,2
12,122,0,107,2
14,54,429,170,2
112,83,58,3,2
14,28,222,185,2
68,21,29,26,2
80,46,25,27,2
39,98,0,148,2
179,133,135,59,2
12,52,0,87,2
80,109,32,26,2
65,47,116,182,2
59,29,401,62,2
161,103,144,239,2
6,13,325,190,2
140,14,134,199,2
31,77,1,79,2
69,165,73,76,2
190,428,232,197,2
7,203,164,135,2
173,121,52,22,2
7,188,6,33,2
66,45,98,92,2
68,155,50,138,2
41,5,117,92,2
57,47,258,194,2
197,79,240,4,2
59,139,307,303,2
10,85,116,36,2
70,51,139,68,2
135,101,35,7,2
100,8,40,2,2
52,7,209,307,2
234,415,133,38,2
23,302,347,307,2
95,80,113,13,2
66,96,142,53,2
175,154,56,155,2
42,87,111,114,2
8,97,94,33,2
45,6,61,11,2
134,86,48,5,2
34,27,18,24,2
53,78,63,63,2
132,73,91,85,2
37,13,120,33,2
77,65,264,110,2
85,21,97,47,2
73,25,85,7,2
90,44,148,119,2
135,136,42,38,2
106,65,75,4,2
69,108,16,73,2
12,8,87,13,2
40,29,3,6,2
127,335,68,8,2
68,61,52,30,2
67,79,40,5,2
279,242,140,81,2
206,219,34,59,2
95,172,93,13,2
51,39,49,44,2
68,139,175,68,2
87,110,104,56,2
36,39,13,45,2
25,67,26,24,2
164,127,0,38,2
61,64,0,32,2
43,45,47,6,2
93,70,0,1,2
193,121,54,3,2
24,111,0,42,2
62,7,0,101,2
104,83,0,20,2
81,111,0,1,2
47,68,11,5,2
79,99,105,38,2
48,89,37,48,2
40,44,81,13,2
5,22,37,64,2
70,36,0,1,2
33,6,49,4,2
99,18,80,77,2
39,24,53,1,2
27,29,17,43,2
150,115,67,97,2
23,26,0,40,2
52,8,9,69,2
2,23,95,35,2
32,115,23,58,2
5,11,94,70,2
29,106,82,18,2
5,40,6,7,2
82,20,0,50,2
91,46,4,5,2
88,27,28,59,2
7,6,5,49,2
17,29,8,41,2
75,10,5,40,2
6,5,2,24,2
135,123,2,51,2
102,107,103,26,2
71,23,119,80,2
13,257,3,33,2
3,6,92,20,2
102,36,0,60,2
17,55,0,89,2
126,92,22,48,2
125,27,71,23,2
6,8,24,71,2
167,86,146,72,2
84,70,58,62,2
8,29,120,84,2
98,121,0,34,2
47,115,0,13,2
44,28,34,40,2
131,133,0,36,2
71,205,17,37,2
60,6,32,35,2
69,109,36,85,2
146,16,0,1,2
48,36,38,4,2
46,67,10,26,2
88,129,31,40,2
13,21,0,26,2
64,18,122,62,2
55,83,0,64,2
150,148,63,29,2
55,27,58,23,2
77,7,23,74,2
111,12,117,50,2
28,61,31,42,2
74,10,120,106,2
104,83,0,83,2
32,12,36,73,2
114,77,40,36,2
115,66,0,37,2
23,5,80,2,2
44,72,159,190,2
54,28,84,66,2
0,44,11,116,2
46,42,42,29,2
39,9,28,10,2
167,69,18,9,2
1,43,100,140,2
133,100,188,68,2
106,166,65,127,2
24,35,134,62,2
75,12,0,65,2
51,166,144,112,2
114,123,38,4,2
82,92,22,124,2
57,7,0,174,2
146,134,107,75,2
63,35,0,14,2
32,35,110,60,2
10,37,93,146,2
63,188,35,58,2
114,81,30,40,2
23,137,149,139,2
11,66,0,28,2
49,239,19,104,2
87,48,15,83,2
156,59,88,124,2
54,10,32,2,2
65,53,24,34,2
89,53,48,29,2
70,51,27,40,2
188,138,70,6,2
31,6,100,149,2
22,91,90,53,2
27,121,30,19,2
34,142,191,164,2
6,139,66,27,2
0,86,102,47,2
22,18,0,38,2
97,31,42,44,2
31,26,81,209,2
117,5,216,71,2
88,115,89,127,2
105,39,395,226,2
113,125,213,4,2
3,9,93,170,2
110,52,113,69,2
14,33,29,44,2
27,115,0,121,2
35,38,208,52,2
45,77,6,32,2
85,63,122,31,2
65,130,13,100,2
149,153,9,74,2
110,43,33,1,2
79,107,220,86,2
205,144,31,223,2
124,117,297,249,2
31,49,130,85,2
35,110,92,56,2
74,128,14,135,2
26,58,79,140,2
67,134,32,22,2
12,56,71,6,2
37,97,251,11,2
128,71,222,31,2
60,59,29,29,2
112,274,95,130,2
24,134,139,152,2
48,40,246,136,2
144,81,13,239,2
173,82,490,46,2
34,170,208,425,2
73,56,225,53,2
40,87,15,198,2
69,80,0,32,2
53,117,115,245,2
123,100,223,187,2
3,104,0,243,2
57,137,0,10,2
122,44,147,80,2
103,39,31,156,2
98,67,0,34,2
60,35,48,272,2
139,56,169,199,2
171,9,50,145,2
283,146,168,159,2
8,12,4,1,2
64,238,287,246,2
93,115,295,91,2
10,6,230,454,2
31,76,510,256,2
50,105,41,75,2
14,101,117,2,2
4,192,0,83,2
160,8,31,21,2
377,133,248,3,2
81,131,0,52,2
49,168,249,112,2
22,20,339,3,2
128,91,195,12,2
67,28,244,87,2
10,179,249,208,2
49,52,62,7,2
75,54,324,9,2
34,13,0,13,2
309,16,31,81,2
88,12,63,372,2
29,93,66,230,2
32,51,296,260,2
57,27,137,40,2
10,93,159,386,2
216,133,0,126,2
16,7,11,131,2
112,102,98,201,2
144,256,10,333,2
66,303,513,125,2
33,133,216,351,2
71,61,432,14,2
174,63,272,353,2
269,102,66,210,2
55,195,373,226,2
216,134,463,29,2
131,29,185,113,2
172,298,171,94,2
208,43,229,425,2
3,42,222,21,2
2,271,220,118,2
164,96,109,179,2
119,88,0,152,2
260,148,266,456,2
174,31,187,227,2
160,11,246,122,2
155,76,87,52,2
136,210,324,146,2
202,95,0,210,2
108,82,0,28,2
6,24,0,4,2
86,180,279,107,2
97,190,342,97,2
65,160,93,64,2
125,20,326,296,2
50,183,167,21,2
146,136,6,177,2
81,39,182,135,2
87,411,106,154,2
91,231,419,98,2
47,124,57,71,2
12,230,414,202,2
19,49,29,129,2
111,147,3,315,2
41,139,281,64,2
88,187,234,152,2
99,114,0,363,2
7,14,386,61,2
120,74,0,5,2
46,245,309,143,2
47,42,14,31,2
298,70,179,307,2
161,50,338,521,2
211,37,100,179,2
363,130,31,124,2
19,68,765,475,2
6,272,289,124,2
106,45,441,61,2
72,249,346,153,2
62,25,26,412,2
152,7,71,86,2
55,15,392,573,2
109,342,317,47,2
215,356,55,18,2
195,239,395,175,2
67,5,802,149,2
107,220,11,50,2
166,29,368,459,2
317,150,220,19,2
360,70,360,391,2
81,31,75,323,2
151,143,72,243,2
10,243,267,521,2
210,193,156,100,2
262,265,783,131,2
6,148,148,430,2
29,129,547,833,2
95,203,20,157,2
1,212,490,138,2
88,130,56,158,2
93,114,59,373,2
322,185,722,237,2
360,36,18,24,2
132,48,420,3,2
267,38,0,167,2
20,33,279,6,2
73,40,57,43,2
48,80,100,211,2
130,71,47,171,2
128,36,55,255,2
154,99,265,314,2
249,306,211,184,2
199,187,213,254,2
114,183,250,346,2
68,257,263,12,2
109,46,354,154,2
184,18,626,62,2
125,6,371,246,2
19,17,840,374,2
234,211,352,140,2
243,108,582,284,2
69,50,46,155,2
14,11,127,128,2
28,164,504,238,2
204,5,199,81,2
51,33,5,99,2
216,52,13,128,2
61,51,270,118,2
131,28,204,8,2
87,36,162,262,2
124,46,154,433,2
87,37,219,248,2
78,7,0,192,2
133,63,3,78,2
80,18,56,8,2
7,79,291,42,2
158,68,114,45,2
152,60,50,349,2
46,33,154,83,2
167,115,211,59,2
123,33,194,53,2
65,83,219,147,2
113,133,217,195,2
39,156,184,54,2
253,44,2,37,2
180,14,248,301,2
15,143,123,141,2
31,51,13,55,2
134,76,275,60,2
71,23,262,235,2
78,72,597,149,2
146,245,181,186,2
135,107,88,224,2
104,172,475,73,2
280,202,0,114,2
49,84,291,135,2
58,207,287,161,2
59,39,183,20,2
75,52,341,313,2
95,105,320,204,2
282,63,128,129,2
295,26,351,173,2
105,153,217,31,2
75,37,144,275,2
7,19,311,107,2
14,15,267,119,2
107,84,29,102,2
49,152,152,12,2
84,17,0,122,2
166,71,13,22,2
111,40,225,131,2
84,169,313,102,2
49,335,3,10,2
18,11,142,73,2
161,147,371,115,2
19,25,70,81,2
148,116,186,73,2
38,18,79,6,2
277,15,99,17,2
61,89,24,86,2
43,44,35,123,2
124,18,478,230,2
98,62,92,2,2
72,15,344,194,2
20,117,0,29,2
68,87,109,110,2
126,94,231,138,2
104,41,37,61,2
158,192,345,165,2
228,115,3,33,2
63,34,23,17,2
119,20,446,189,2
56,28,88,140,2
53,293,530,395,2
0,83,25,48,2
36,61,438,135,2
3,117,26,4,2
16,6,416,146,2
93,84,89,115,2
114,93,22,39,2
58,9,36,75,2
142,31,86,5,2
62,67,142,35,2
18,44,24,7,2
37,63,216,68,2
35,108,269,35,2
96,261,175,122,2
201,55,82,157,2
134,59,4,156,2
127,54,119,155,2
144,73,81,124,2
66,56,59,23,2
89,181,38,137,2
57,23,42,75,2
119,42,13,15,2
60,58,0,7,2
44,31,69,40,2
135,17,152,13,2
95,8,75,10,2
143,23,65,192,2
60,32,149,13,2
106,106,0,38,2
80,45,40,32,2
179,118,10,187,2
189,275,411,273,2
37,124,6,114,2
262,42,278,107,2
37,45,124,99,2
47,110,110,6,2
105,16,18,124,2
1,36,164,129,2
133,63,13,57,2
60,88,86,73,2
34,6,26,40,2
72,74,99,70,2
1,42,85,206,2
108,130,228,163,2
62,7,17,17,2
38,119,310,153,2
8,103,105,204,2
230,102,332,101,2
8,133,127,395,2
102,113,69,17,2
141,21,108,80,2
130,8,210,12,2
26,18,230,292,2
205,69,215,68,2
59,13,17,28,2
6,8,196,133,2
99,105,0,94,2
33,46,218,93,2
71,119,139,6,2
180,90,281,69,2
71,37,50,101,2
45,33,20,73,2
36,47,112,80,2
225,23,191,5,2
3,33,176,36,2
50,65,436,289,2
272,13,122,32,2
17,203,251,229,2
87,75,59,27,2
95,125,118,94,2
12,30,295,166,2
28,24,181,31,2
19,87,271,106,2
204,90,160,165,2
59,12,237,124,2
135,45,158,154,2
191,64,224,20,2
45,41,11,31,2
43,12,204,92,2
71,65,92,44,2
92,47,322,192,2
53,29,29,99,2
52,18,387,239,2
115,23,146,163,2
56,481,352,517,2
18,110,59,76,2
77,351,122,47,2
90,43,2,9,2
84,154,232,103,2
105,256,44,93,2
132,24,250,132,2
144,142,76,73,2
7,99,86,28,2
55,58,238,160,2
68,64,0,15,2
119,9,117,26,2
138,89,88,116,2
39,167,42,10,2
112,139,461,169,2
42,50,44,247,2
178,237,484,251,2
197,169,11,86,2
61,149,110,132,2
49,15,170,121,2
40,26,126,46,2
3,7,122,78,2
153,48,224,127,2
125,99,0,13,2
72,41,105,33,2
94,214,160,34,2
5,9,0,7,2
58,52,0,119,2
10,65,0,101,2
86,22,86,90,2
121,38,0,2,2
71,74,114,77,2
102,54,24,47,2
4,27,97,42,2
273,111,42,19,2
140,10,11,51,2
168,202,0,6,2
100,157,43,4,2
66,14,12,91,2
182,234,98,18,2
3,21,128,24,2
28,12,309,178,2
103,178,29,22,2
15,104,376,190,2
127,136,24,129,2
119,87,149,126,2
162,117,59,21,2
85,15,55,57,2
148,145,44,1,2
133,118,43,44,2
60,42,9,8,2
54,13,108,70,2
73,135,3,18,2
122,54,20,25,2
14,18,37,5,2
70,31,0,2,2
68,75,40,36,2
55,7,23,20,2
108,107,39,37,2
158,125,0,2,2
36,21,0,6,2
9,7,69,59,2
46,72,21,4,2
32,93,8,19,2
60,7,69,67,2
2,40,0,18,2
41,93,37,25,2
156,125,0,5,2
191,211,46,38,2
107,106,20,12,2
11,33,15,8,2
82,13,96,72,2
148,5,2,4,2
12,8,34,79,2
142,139,53,31,2
51,77,3,27,2
124,38,36,46,2
110,38,0,17,2
5,10,22,37,2
28,55,0,30,2
22,16,38,30,2
147,183,148,66,2
51,54,17,33,2
46,171,0,57,2
43,99,60,53,2
77,47,0,70,2
130,132,69,5,2
1,24,0,15,2
92,132,19,46,2
115,60,60,6,2
15,63,11,9,2
11,78,55,50,2
110,122,5,8,2
16,82,50,80,2
51,40,21,7,2
51,14,1,41,2
75,64,31,28,2
38,33,18,14,2
50,38,24,71,2
64,35,17,5,2
45,63,0,1,2
20,60,31,83,2
61,8,0,42,2
44,38,0,27,2
59,53,91,70,2
9,64,6,47,2
132,8,107,84,2
38,24,21,31,2
46,8,80,19,2
82,99,38,9,2
205,312,36,35,2
34,16,70,49,2
115,89,22,18,2
2,20,6,22,2
79,17,6,31,2
205,137,19,36,2
119,45,37,60,2
89,24,55,45,2
7,9,53,106,2
125,131,113,101,2
103,79,33,14,2
54,9,151,46,2
129,147,3,65,2
48,124,116,15,2
18,29,46,90,2
131,184,43,15,2
119,64,34,11,2
80,33,37,32,2
18,5,97,59,2
79,25,0,1,2
84,31,70,17,2
8,6,71,88,2
100,127,75,6,2
11,71,28,92,2
82,58,161,31,2
84,84,59,128,2
13,51,155,134,2
127,118,50,3,2
32,39,75,86,2
5,21,71,28,2
119,21,11,57,2
256,212,169,83,2
178,184,50,72,2
6,26,4,9,2
43,7,16,57,2
10,11,88,16,2
104,217,13,62,2
52,7,37,5,2
31,34,42,41,2
156,231,83,35,2
60,160,97,101,2
121,16,0,23,2
90,47,1,45,2
144,15,169,146,2
292,67,0,74,2
80,208,207,186,2
7,87,23,171,2
80,76,2,142,2
17,86,2,34,2
222,114,125,141,2
108,32,113,50,2
131,133,60,22,2
135,67,0,75,2
58,46,99,121,2
104,5,145,189,2
54,16,34,85,2
180,119,71,72,2
318,77,87,131,2
31,66,29,99,2
21,7,90,18,2
83,260,0,68,2
152,147,80,52,2
13,144,115,60,2
171,62,32,44,2
87,195,106,151,2
54,35,81,25,2
152,212,210,165,2
52,91,181,206,2
186,95,50,40,2
17,206,7,130,2
3,114,40,4,2
120,167,55,69,2
65,7,180,77,2
153,81,282,48,2
272,86,295,16,2
189,10,921,103,2
103,31,25,47,2
81,49,412,17,2
68,18,208,65,2
21,9,239,16,2
46,41,91,345,2
84,108,306,87,2
115,27,100,131,2
51,29,133,234,2
99,90,390,78,2
130,77,131,461,2
168,109,192,67,2
54,86,177,394,2
7,63,0,98,2
134,262,204,27,2
13,115,0,69,2
350,452,146,276,2
75,143,246,120,2
170,70,12,147,2
74,45,48,90,2
104,134,156,225,2
114,34,90,398,2
1,62,133,269,2
94,79,115,77,2
17,43,28,130,2
3,33,185,11,2
63,94,144,52,2
72,26,55,143,2
202,113,123,9,2
212,68,31,172,2
207,231,186,84,2
18,144,76,190,2
123,96,109,287,2
