Ch1,Ch2,Ch3,Ch4,label
1,49,60,5,1
54,69,23,34,1
4,124,3,12,1
32,12,5,54,1
23,61,24,19,1
22,49,13,60,1
126,37,53,87,1
44,17,23,5,1
154,122,4,3,1
147,110,18,0,1
26,23,3,2,1
146,18,20,0,1
60,53,11,14,1
91,27,37,16,1
85,26,32,32,1
17,27,18,13,1
177,21,23,0,1
65,32,30,0,1
90,16,41,39,1
0,126,26,25,1
10,20,67,75,1
69,124,61,51,1
27,176,44,36,1
119,64,19,21,1
2,156,14,0,1
25,6,42,1,1
122,73,39,31,1
13,61,17,16,1
112,10,38,13,1
24,103,13,0,1
40,7,91,58,1
2,191,55,67,1
76,6,104,70,1
62,155,37,0,1
136,53,68,37,1
106,95,11,17,1
52,94,13,1,1
60,68,31,144,1
87,232,106,4,1
45,87,33,78,1
114,154,86,33,1
68,90,63,120,1
45,28,7,0,1
6,59,4,0,1
107,31,38,15,1
1,66,77,69,1
20,200,49,120,1
3,42,23,3,1
103,240,60,11,1
157,72,69,10,1
57,8,5,0,1
78,89,5,6,1
4,128,3,12,1
6,65,42,9,1
35,119,22,20,1
21,9,6,0,1
23,155,7,5,1
66,19,36,13,1
85,218,2,27,1
0,145,2,0,1
65,70,80,79,1
63,100,61,73,1
17,116,94,83,1
67,39,104,117,1
73,33,65,95,1
74,97,8,14,1
42,111,4,24,1
18,61,52,23,1
100,41,45,0,1
21,202,78,32,1
169,284,21,0,1
189,36,21,53,1
22,90,21,21,1
131,96,23,5,1
75,15,5,0,1
1,14,37,13,1
35,362,206,52,1
0,187,43,66,1
6,150,246,113,1
7,147,50,35,1
141,93,210,195,1
53,86,258,225,1
22,141,61,31,1
59,24,129,166,1
89,66,45,6,1
45,61,123,59,1
0,191,155,103,1
34,125,136,97,1
203,150,317,319,1
366,307,204,195,1
138,116,179,125,1
77,134,226,139,1
8,83,161,105,1
26,66,41,137,1
8,54,187,242,1
129,95,93,4,1
104,27,59,112,1
150,16,91,137,1
35,40,308,87,1
51,248,59,9,1
127,241,164,136,1
36,39,157,85,1
5,139,1,54,1
14,51,221,0,1
53,135,50,38,1
64,28,156,115,1
143,19,37,97,1
181,75,102,0,1
62,7,247,69,1
74,25,65,26,1
120,15,356,222,1
175,94,6,17,1
158,63,467,275,1
20,88,125,100,1
168,162,159,96,1
50,39,13,49,1
45,95,99,74,1
201,61,50,72,1
107,101,164,174,1
178,49,11,79,1
204,298,156,177,1
144,162,230,154,1
222,311,62,12,1
203,73,253,114,1
78,209,216,112,1
174,196,108,67,1
2,65,11,64,1
11,58,105,14,1
209,164,5,20,1
467,534,64,30,1
7,30,183,34,1
41,40,89,122,1
34,91,102,84,1
70,150,133,21,1
80,191,376,256,1
151,13,139,139,1
49,277,121,89,1
167,25,215,146,1
166,124,71,141,1
124,444,88,32,1
32,258,145,162,1
48,79,270,283,1
81,147,453,462,1
104,149,243,124,1
152,17,70,101,1
345,595,5,25,1
586,619,117,141,1
105,13,187,84,1
71,19,136,125,1
160,203,13,65,1
66,28,100,120,1
226,12,179,186,1
74,233,54,10,1
175,259,190,277,1
206,57,132,71,1
40,56,41,28,1
201,55,259,0,1
16,142,174,156,1
102,91,157,148,1
210,349,257,368,1
279,312,352,202,1
140,227,180,320,1
118,233,3,114,1
0,19,250,76,1
282,218,327,301,1
124,97,36,75,1
117,78,44,0,1
6,32,115,63,1
359,28,149,83,1
74,326,13,77,1
59,136,205,259,1
124,192,309,385,1
15,34,73,102,1
50,68,355,398,1
363,64,178,106,1
0,225,33,30,1
75,27,426,326,1
62,208,213,222,1
161,48,191,155,1
101,131,226,43,1
250,25,423,168,1
41,248,716,395,1
251,92,253,336,1
3,102,55,3,1
334,83,11,51,1
99,183,24,8,1
60,85,122,17,1
57,58,452,345,1
14,75,19,114,1
60,138,223,358,1
72,19,23,0,1
279,236,375,412,1
46,15,359,408,1
88,40,92,22,1
279,71,59,67,1
176,79,304,51,1
5,165,7,0,1
100,27,127,246,1
195,129,260,13,1
211,92,75,35,1
66,22,289,351,1
34,208,13,54,1
75,195,38,18,1
173,96,70,90,1
242,168,92,107,1
7,103,180,153,1
38,204,8,335,1
322,16,125,77,1
290,173,129,261,1
61,14,219,61,1
228,55,154,217,1
183,121,5,65,1
184,286,16,12,1
306,306,149,264,1
163,7,103,155,1
222,68,409,318,1
90,125,116,31,1
88,20,247,93,1
7,47,241,284,1
125,100,52,32,1
16,40,299,193,1
170,85,184,116,1
7,164,289,173,1
46,112,233,423,1
65,11,444,483,1
200,183,308,317,1
110,63,285,168,1
267,57,40,73,1
79,91,56,149,1
53,67,347,161,1
85,249,45,90,1
17,90,42,71,1
115,46,113,8,1
52,40,28,156,1
218,39,198,29,1
123,70,546,531,1
0,126,122,160,1
201,87,580,674,1
31,95,550,749,1
365,273,169,264,1
61,137,382,353,1
101,44,15,178,1
26,288,7,259,1
200,189,262,265,1
118,229,31,11,1
8,142,361,370,1
82,63,592,802,1
114,69,51,67,1
22,169,106,216,1
132,140,74,177,1
44,9,71,0,1
80,199,122,59,1
60,373,165,71,1
12,18,458,739,1
229,81,29,60,1
341,14,423,665,1
41,28,321,680,1
288,15,92,199,1
16,105,592,581,1
187,39,239,51,1
34,156,272,181,1
378,75,25,142,1
14,19,191,67,1
21,148,489,515,1
29,80,41,122,1
18,92,130,332,1
349,321,25,101,1
307,7,16,300,1
35,155,107,155,1
149,113,45,340,1
1,68,294,107,1
6,9,114,73,1
0,82,287,328,1
231,190,50,289,1
193,74,76,82,1
63,12,303,158,1
0,100,165,167,1
11,65,82,292,1
33,91,137,125,1
19,189,172,202,1
5,39,193,7,1
70,130,11,56,1
195,232,22,169,1
138,109,399,285,1
88,151,206,470,1
66,105,139,196,1
87,277,34,151,1
263,300,166,187,1
34,23,120,123,1
293,457,413,553,1
254,297,17,133,1
131,180,638,590,1
224,76,362,350,1
9,21,118,12,1
15,67,305,483,1
54,101,309,230,1
52,93,221,290,1
158,175,142,251,1
126,115,223,323,1
33,150,410,455,1
74,222,307,319,1
16,24,354,335,1
176,144,676,799,1
0,116,712,856,1
6,8,384,86,1
307,167,529,113,1
399,272,422,567,1
406,478,109,491,1
361,10,78,230,1
250,44,370,541,1
164,172,29,151,1
107,14,698,655,1
38,118,396,701,1
309,155,191,771,1
575,10,37,235,1
213,97,143,200,1
16,134,182,406,1
89,25,13,118,1
143,115,459,489,1
59,387,236,175,1
150,425,61,43,1
125,27,285,402,1
3,239,179,165,1
60,12,75,18,1
316,9,87,246,1
58,44,34,340,1
72,219,147,215,1
124,63,37,55,1
221,56,159,303,1
76,260,189,8,1
269,350,676,806,1
39,238,538,385,1
196,64,130,70,1
70,123,281,203,1
80,182,49,121,1
4,55,425,483,1
113,12,23,260,1
164,86,35,84,1
193,26,208,199,1
17,224,208,328,1
195,132,130,82,1
278,149,360,261,1
98,41,562,723,1
1,12,319,367,1
253,49,44,232,1
41,21,491,593,1
243,27,215,236,1
7,11,546,409,1
279,338,250,34,1
24,33,564,655,1
118,23,2,72,1
14,23,284,270,1
35,71,90,30,1
41,35,60,90,1
115,72,190,255,1
33,133,152,268,1
212,220,60,161,1
357,55,153,27,1
148,9,354,284,1
130,20,556,797,1
172,39,217,187,1
175,190,181,33,1
35,30,76,106,1
60,57,68,13,1
82,52,115,108,1
2,41,185,114,1
26,242,134,97,1
193,11,11,24,1
38,20,142,300,1
111,65,126,237,1
46,93,218,330,1
2,52,322,332,1
176,86,140,93,1
107,43,315,555,1
97,101,257,616,1
149,59,20,237,1
108,138,95,368,1
96,98,153,181,1
98,114,117,225,1
51,160,24,29,1
43,36,276,332,1
38,10,89,89,1
6,78,240,278,1
162,198,147,69,1
27,99,2,106,1
24,39,162,231,1
75,230,166,270,1
131,45,5,105,1
162,86,22,56,1
35,172,303,367,1
67,32,511,499,1
2,97,231,368,1
123,149,252,65,1
95,115,172,143,1
19,128,260,129,1
89,47,124,9,1
69,150,135,137,1
20,105,73,35,1
122,55,123,99,1
89,106,125,61,1
42,65,44,71,1
156,17,8,177,1
13,156,7,3,1
18,7,274,201,1
125,119,60,60,1
31,193,244,172,1
139,50,36,31,1
218,18,6,52,1
357,441,34,61,1
102,38,195,137,1
77,63,173,144,1
38,104,115,109,1
177,144,40,41,1
126,149,62,89,1
15,66,256,294,1
140,143,80,315,1
54,93,262,339,1
80,9,56,26,1
137,83,41,262,1
0,150,212,294,1
170,30,25,9,1
4,134,68,172,1
175,169,4,66,1
182,280,23,39,1
78,219,299,155,1
75,197,75,23,1
111,6,143,166,1
96,14,5,13,1
79,51,38,0,1
67,63,6,79,1
23,110,15,53,1
19,38,85,117,1
208,30,354,363,1
6,9,103,201,1
56,68,28,247,1
265,250,120,0,1
457,403,41,19,1
169,154,200,123,1
195,78,15,52,1
268,182,259,229,1
155,72,41,25,1
114,99,422,389,1
22,12,83,222,1
2,40,90,84,1
155,78,53,233,1
40,72,151,64,1
137,78,187,233,1
228,228,442,284,1
63,208,586,439,1
280,172,40,9,1
119,73,318,282,1
109,59,87,42,1
73,18,252,152,1
116,41,216,140,1
73,213,47,47,1
171,228,38,97,1
14,134,318,249,1
128,119,21,34,1
53,172,217,267,1
97,71,51,126,1
88,154,37,137,1
65,157,462,300,1
79,189,419,261,1
58,71,86,95,1
86,97,227,154,1
177,130,10,123,1
161,115,90,8,1
170,117,19,330,1
118,112,256,47,1
45,311,72,42,1
94,198,47,55,1
18,134,34,15,1
125,160,2,31,1
69,143,106,136,1
206,69,12,31,1
228,201,2,12,1
21,179,241,148,1
12,78,64,2,1
85,27,272,171,1
266,134,46,0,1
53,76,248,215,1
242,23,237,133,1
46,151,80,58,1
105,237,11,92,1
106,164,42,16,1
24,51,104,30,1
149,78,143,46,1
6,287,61,1,1
5,63,207,219,1
40,202,467,364,1
19,79,319,165,1
23,162,48,142,1
19,194,95,41,1
323,480,191,178,1
188,440,39,24,1
16,104,135,60,1
179,95,67,0,1
201,118,70,25,1
5,21,125,148,1
41,167,294,359,1
30,25,16,212,1
119,61,70,35,1
16,83,92,33,1
85,12,185,139,1
67,26,82,54,1
80,7,294,191,1
121,38,2,52,1
17,110,108,5,1
2,8,75,5,1
78,242,2,6,1
113,194,158,107,1
78,65,100,9,1
25,38,13,128,1
215,184,23,86,1
87,51,138,105,1
22,27,188,128,1
30,19,20,37,1
31,85,246,159,1
51,148,188,0,1
57,99,23,0,1
43,30,58,42,1
5,63,95,32,1
145,263,157,79,1
62,58,34,83,1
88,29,13,71,1
197,11,23,162,1
31,95,142,0,1
19,93,287,164,1
78,37,129,66,1
90,17,122,0,1
71,33,181,164,1
39,162,89,21,1
53,148,204,65,1
46,41,19,0,1
25,123,13,33,1
5,106,161,48,1
16,137,156,95,1
4,22,165,158,1
13,45,4,0,1
132,36,18,3,1
96,7,8,46,1
193,271,55,146,1
81,46,270,170,1
100,140,174,122,1
64,159,176,14,1
66,22,147,38,1
108,127,21,3,1
48,25,79,55,1
69,20,5,90,1
119,27,68,80,1
11,126,193,279,1
142,119,361,105,1
91,86,627,579,1
109,79,69,64,1
143,42,200,208,1
25,53,10,43,1
233,218,7,15,1
43,69,86,21,1
64,29,70,53,1
76,183,73,0,1
9,138,7,43,1
176,191,130,156,1
105,122,28,33,1
115,63,12,33,1
44,34,141,45,1
108,96,61,53,1
114,253,119,20,1
7,50,17,6,1
52,13,353,198,1
274,267,71,67,1
240,213,212,64,1
68,159,304,0,1
14,95,59,0,1
64,66,161,102,1
46,84,28,26,1
135,280,8,0,1
30,35,20,50,1
136,23,277,64,1
8,43,25,12,1
145,65,206,27,1
225,121,216,105,1
45,10,37,92,1
78,58,29,4,1
199,244,100,89,1
22,172,209,0,1
47,27,216,57,1
120,254,53,100,1
79,140,203,105,1
25,14,3,0,1
59,70,10,43,1
96,31,149,58,1
53,93,36,27,1
16,25,98,136,1
93,102,35,25,1
92,8,13,31,1
59,73,36,73,1
41,119,35,49,1
13,71,62,0,1
157,233,30,7,1
272,131,141,81,1
157,148,117,114,1
104,81,69,20,1
97,105,203,118,1
67,87,154,85,1
55,95,21,10,1
80,26,123,19,1
70,190,54,8,1
13,77,9,11,1
127,161,33,0,1
34,15,303,236,1
174,215,59,43,1
109,9,61,60,1
103,202,70,17,1
48,31,6,0,1
24,64,87,68,1
60,26,216,115,1
12,86,130,85,1
94,34,175,103,1
59,141,149,0,1
292,182,135,139,1
177,124,98,78,1
102,7,90,89,1
32,93,15,12,1
55,76,22,15,1
125,38,108,144,1
47,40,7,10,1
27,48,28,0,1
82,43,159,58,1
9,99,205,94,1
201,107,95,19,1
63,92,142,103,1
112,93,82,16,1
6,101,5,56,1
10,25,55,0,1
2,159,104,60,1
75,25,101,5,1
88,10,100,30,1
137,57,36,4,1
10,56,140,45,1
29,182,2,4,1
71,90,203,179,1
219,23,36,0,1
61,119,291,104,1
0,18,2,44,1
108,30,106,95,1
74,155,88,23,1
4,81,26,4,1
38,143,70,60,1
17,54,59,41,1
148,59,21,19,1
67,27,144,15,1
167,157,106,59,1
279,259,21,0,1
46,74,2,37,1
142,21,26,15,1
54,10,9,0,1
10,59,14,54,1
49,48,158,215,1
59,67,56,130,1
155,109,69,56,1
77,19,32,16,1
194,171,56,12,1
179,87,30,13,1
45,204,1,17,1
68,150,68,54,1
40,210,6,17,1
1,79,74,18,1
48,106,114,77,1
73,24,129,161,1
43,37,61,68,1
39,34,8,42,1
90,51,59,39,1
1,155,85,116,1
131,297,28,48,1
92,71,71,15,1
6,181,94,59,1
76,8,50,9,1
9,82,4,0,1
77,153,3,20,1
112,176,69,100,1
58,285,171,85,1
2,136,359,95,1
14,248,71,103,1
154,323,69,0,1
48,161,24,0,1
55,206,42,7,1
109,83,44,10,1
55,138,134,60,1
157,164,184,55,1
80,68,42,102,1
134,61,13,117,1
140,166,93,0,1
19,82,145,189,1
0,11,55,0,1
8,96,3,14,1
22,163,52,40,1
143,50,84,45,1
54,141,32,20,1
19,40,39,131,1
1,218,48,9,1
65,246,104,105,1
78,132,21,5,1
8,109,6,14,1
88,21,55,15,1
55,264,32,12,1
94,72,37,28,1
32,121,180,105,1
104,49,12,45,1
169,271,118,94,1
75,147,99,126,1
33,116,166,173,1
20,13,86,59,1
197,191,49,14,1
18,71,219,85,1
155,51,18,62,1
114,103,22,0,1
43,137,117,66,1
42,121,59,80,1
201,183,16,61,1
66,180,97,44,1
15,16,73,85,1
144,73,26,72,1
223,141,60,21,1
11,80,91,25,1
97,87,17,66,1
50,27,174,189,1
146,96,103,7,1
25,58,206,146,1
54,46,6,7,1
58,83,83,44,1
10,41,49,35,1
0,16,48,10,1
9,7,69,19,1
135,135,143,0,1
21,54,67,9,1
1,17,121,26,1
71,109,42,41,1
121,287,22,1,1
59,122,11,0,1
34,338,237,53,1
42,109,166,14,1
251,308,47,30,1
98,270,176,78,1
86,65,188,122,1
72,24,37,57,1
199,63,54,58,1
94,100,5,2,1
11,60,120,87,1
3,20,10,0,1
151,59,180,152,1
195,168,105,87,1
15,57,149,207,1
103,265,141,69,1
58,218,227,290,1
14,158,8,107,1
38,27,64,23,1
123,60,19,0,1
215,83,27,99,1
119,232,128,58,1
125,139,51,63,1
50,26,83,61,1
166,226,21,115,1
80,170,19,200,1
7,12,175,62,1
145,17,119,0,1
53,115,109,41,1
62,135,42,72,1
9,125,12,128,1
235,151,232,93,1
131,91,295,324,1
92,72,110,65,1
8,157,155,47,1
79,273,41,109,1
118,154,126,176,1
6,143,96,12,1
82,97,12,70,1
72,40,2,3,1
141,36,34,10,1
44,11,120,51,1
71,394,5,57,1
133,390,119,133,1
14,23,147,131,1
39,163,13,77,1
12,65,204,213,1
124,64,396,263,1
9,114,199,163,1
82,26,402,220,1
109,18,61,73,1
70,128,129,135,1
87,83,371,393,1
49,59,124,58,1
2,80,132,239,1
10,97,286,157,1
41,28,211,90,1
43,79,253,91,1
46,115,346,195,1
74,123,185,54,1
272,94,113,37,1
167,28,288,248,1
97,18,265,225,1
64,113,277,179,1
65,140,329,206,1
92,178,101,105,1
54,149,109,45,1
258,46,251,168,1
52,168,99,151,1
135,49,292,112,1
2,138,158,16,1
91,185,45,29,1
17,73,73,113,1
54,36,88,94,1
3,103,100,7,1
31,128,281,239,1
93,65,28,156,1
169,57,203,141,1
291,159,100,219,1
312,178,166,63,1
321,108,123,19,1
213,25,311,258,1
138,61,70,0,1
244,119,27,173,1
206,232,2,151,1
105,123,309,349,1
231,20,118,197,1
39,122,705,619,1
204,167,717,667,1
253,214,228,163,1
81,203,273,181,1
43,106,26,128,1
74,80,121,230,1
79,128,472,498,1
112,209,454,720,1
16,14,487,392,1
169,49,386,471,1
12,26,349,317,1
209,75,234,209,1
86,36,6,2,1
3,428,167,143,1
48,79,18,144,1
10,189,351,611,1
66,45,471,317,1
113,199,723,812,1
268,361,275,98,1
52,187,478,449,1
84,54,52,105,1
41,186,46,6,1
200,29,22,179,1
224,24,142,0,1
254,264,46,8,1
252,78,143,138,1
17,49,295,158,1
284,320,90,151,1
39,117,97,49,1
92,21,162,186,1
64,88,151,257,1
9,123,139,78,1
102,63,8,357,1
156,52,22,68,1
23,45,206,197,1
131,276,368,183,1
198,382,86,0,1
208,220,87,167,1
97,86,253,195,1
259,128,337,377,1
205,389,253,281,1
101,238,651,406,1
334,323,307,265,1
145,193,388,259,1
106,13,163,31,1
7,239,364,214,1
303,9,96,233,1
37,33,587,706,1
225,416,583,219,1
97,18,218,9,1
167,259,5,309,1
33,27,49,206,1
2,20,50,230,1
390,122,735,821,1
93,89,310,412,1
189,29,443,467,1
114,10,299,104,1
297,265,217,339,1
90,17,38,49,1
220,7,14,120,1
70,71,96,72,1
331,79,358,32,1
287,105,34,41,1
7,126,26,25,1
118,29,101,153,1
103,280,380,260,1
140,399,309,290,1
254,161,126,67,1
92,330,459,531,1
140,86,419,653,1
79,377,490,94,1
119,107,548,481,1
43,20,274,520,1
198,187,13,174,1
175,18,209,46,1
75,133,297,301,1
195,104,210,338,1
135,102,187,409,1
365,27,56,82,1
6,113,632,669,1
86,305,430,528,1
3,33,10,89,1
227,308,78,195,1
230,320,46,28,1
221,276,388,468,1
235,26,203,434,1
217,59,47,26,1
46,125,18,198,1
87,84,118,31,1
196,208,148,248,1
138,323,397,414,1
93,171,578,880,1
10,208,137,296,1
25,56,137,120,1
200,70,110,106,1
75,26,532,622,1
221,412,365,597,1
23,251,357,280,1
35,41,568,678,1
279,321,78,66,1
108,356,114,186,1
1,119,59,413,1
32,164,191,485,1
429,79,950,852,1
30,162,519,429,1
39,165,93,16,1
139,77,77,214,1
79,88,38,94,1
275,373,366,762,1
56,291,420,545,1
381,519,182,150,1
165,18,13,177,1
15,91,353,579,1
235,309,296,292,1
69,142,106,226,1
53,208,106,85,1
142,143,115,58,1
257,75,195,264,1
89,274,527,183,1
309,221,428,523,1
70,21,183,141,1
36,90,57,0,1
119,199,109,23,1
70,76,419,551,1
82,44,144,773,1
254,12,166,3,1
54,75,435,366,1
2,13,60,180,1
229,137,739,708,1
64,215,879,1023,1
240,151,20,150,1
127,20,776,1002,1
109,179,388,915,1
72,119,470,58,1
81,37,895,935,1
147,20,290,295,1
107,135,330,469,1
48,71,346,369,1
223,65,359,729,1
32,140,32,21,1
126,66,863,959,1
127,95,554,689,1
12,171,774,979,1
110,55,17,106,1
65,86,377,510,1
2,43,786,1023,1
138,8,192,414,1
222,220,79,126,1
8,38,307,2,1
327,169,360,452,1
149,206,170,156,1
270,187,27,291,1
58,25,27,347,1
6,78,2,92,1
99,178,318,327,1
134,168,145,266,1
6,12,377,320,1
13,73,466,432,1
69,98,13,27,1
94,24,294,345,1
167,283,79,238,1
2,151,185,322,1
27,249,17,97,1
154,93,45,188,1
12,41,378,507,1
52,139,86,128,1
14,9,50,72,1
0,7,86,0,1
9,128,5,98,1
117,197,19,19,1
118,288,133,130,1
9,17,22,0,1
58,97,183,243,1
149,39,207,202,1
38,104,147,206,1
128,155,122,72,1
312,9,166,157,1
64,54,215,68,1
272,49,113,45,1
143,278,108,111,1
69,72,9,74,1
103,16,154,153,1
30,12,267,429,1
43,155,182,25,1
227,214,76,175,1
130,109,491,329,1
58,92,46,0,1
1,73,169,37,1
49,224,9,11,1
183,62,126,53,1
185,41,52,324,1
50,157,229,219,1
25,103,47,48,1
41,11,340,156,1
43,86,46,87,1
61,21,94,31,1
99,136,202,55,1
62,137,192,310,1
51,22,24,101,1
10,88,50,122,1
165,87,63,34,1
261,185,445,309,1
36,215,479,625,1
198,25,301,345,1
52,34,76,37,1
64,141,79,35,1
4,229,67,24,1
139,68,265,172,1
74,77,137,80,1
23,62,89,265,1
43,125,74,19,1
78,14,162,25,1
171,37,349,376,1
9,280,121,48,1
6,97,415,287,1
55,139,57,93,1
36,58,293,299,1
64,45,255,248,1
95,99,155,202,1
46,54,217,79,1
27,80,83,60,1
3,364,122,211,1
74,34,335,305,1
189,14,72,12,1
2,141,61,105,1
88,59,96,6,1
53,21,39,97,1
20,7,216,276,1
269,246,100,94,1
9,126,65,0,1
47,140,476,347,1
218,258,87,186,1
5,47,38,0,1
33,71,49,123,1
79,100,77,305,1
36,123,290,342,1
77,14,392,164,1
95,103,81,0,1
4,37,98,158,1
125,145,366,295,1
134,137,51,255,1
90,149,305,477,1
129,257,4,29,1
43,106,103,38,1
42,134,98,49,1
27,46,264,254,1
120,293,42,67,1
24,73,181,295,1
21,129,154,130,1
271,9,191,324,1
46,87,48,210,1
134,73,103,44,1
78,166,69,0,1
41,11,169,172,1
132,265,25,14,1
75,22,155,182,1
57,177,72,30,1
88,107,315,336,1
36,68,203,131,1
18,112,110,172,1
189,153,90,36,1
66,78,340,429,1
68,16,475,718,1
38,218,47,224,1
12,129,222,212,1
92,115,87,145,1
33,174,174,283,1
36,78,52,7,1
55,68,166,154,1
53,35,20,14,1
101,79,26,81,1
122,137,130,117,1
146,226,18,43,1
120,150,8,0,1
116,147,345,318,1
20,25,223,225,1
3,65,159,149,1
116,120,320,207,1
8,32,113,14,1
45,53,149,77,1
138,178,125,196,1
17,140,64,49,1
202,220,161,35,1
176,294,316,260,1
20,27,146,17,1
151,162,37,54,1
159,149,222,201,1
249,349,148,15,1
38,123,105,56,1
100,192,68,0,1
12,33,206,162,1
10,109,162,89,1
235,140,166,0,1
107,252,188,221,1
68,20,68,262,1
80,32,101,0,1
56,11,44,18,1
44,110,270,203,1
47,214,313,299,1
14,13,54,7,1
48,105,415,388,1
163,120,148,76,1
10,123,98,10,1
45,97,171,286,1
13,47,185,94,1
153,118,228,92,1
71,219,223,276,1
73,88,126,309,1
187,172,98,46,1
68,38,167,73,1
20,30,168,203,1
55,259,219,213,1
310,387,264,137,1
6,134,75,111,1
38,84,138,219,1
142,133,124,18,1
140,128,174,252,1
70,159,14,42,1
124,7,269,84,1
31,57,24,40,1
20,120,429,264,1
36,105,417,257,1
113,155,90,96,1
97,104,147,96,1
253,180,68,16,1
1,44,21,106,1
183,116,61,101,1
85,61,21,161,1
43,48,53,0,1
87,168,63,76,1
135,6,20,48,1
83,266,17,133,1
213,273,189,226,1
58,13,13,17,1
39,11,95,103,1
60,103,159,221,1
82,37,460,469,1
89,128,7,89,1
17,131,38,14,1
207,135,56,35,1
85,53,8,118,1
111,92,54,16,1
142,91,145,60,1
143,22,81,95,1
126,35,53,0,1
69,23,64,8,1
41,69,42,41,1
153,146,192,78,1
125,43,187,37,1
161,266,91,112,1
44,42,66,114,1
40,25,415,476,1
76,20,311,225,1
156,13,287,235,1
53,60,47,29,1
117,65,61,67,1
4,38,133,79,1
220,215,99,8,1
238,120,177,44,1
44,33,30,22,1
122,138,4,24,1
28,61,58,0,1
9,20,3,0,1
148,96,43,28,1
95,14,60,72,1
180,19,89,21,1
30,51,125,151,1
0,43,143,88,1
152,57,129,94,1
194,22,19,142,1
92,64,90,43,1
125,53,66,47,1
3,76,137,91,1
54,6,118,110,1
72,184,74,38,1
113,53,68,106,1
49,73,119,63,1
30,56,4,62,1
233,71,132,59,1
45,62,3,0,1
12,296,7,67,1
13,156,61,11,1
12,86,247,127,1
392,255,11,65,1
144,101,92,25,1
198,40,184,189,1
90,47,40,0,1
52,24,140,98,1
70,125,381,314,1
108,115,68,95,1
26,49,173,149,1
258,162,116,0,1
115,138,51,75,1
144,20,47,20,1
3,37,4,35,1
138,44,52,2,1
93,234,66,65,1
131,156,6,20,1
4,117,59,19,1
61,49,39,34,1
39,153,97,38,1
115,99,248,152,1
7,95,334,111,1
18,226,294,99,1
119,54,66,11,1
104,90,35,41,1
69,13,3,0,1
47,96,81,51,1
2,211,9,0,1
0,156,95,103,1
145,94,38,54,1
69,46,23,46,1
10,13,16,12,1
63,183,3,31,1
91,125,27,1,1
14,214,76,137,1
58,182,60,91,1
74,133,95,58,1
130,29,30,11,1
50,72,8,13,1
163,73,48,31,1
203,114,82,107,1
65,136,54,5,1
143,8,42,33,1
23,126,2,14,1
173,260,3,60,1
40,27,4,16,1
153,266,42,47,1
107,47,45,39,1
57,117,124,75,1
207,134,29,49,1
80,78,30,0,1
84,178,42,50,1
14,77,77,126,1
17,179,25,20,1
249,13,35,27,1
126,90,29,4,1
125,79,42,48,1
62,133,54,68,1
26,95,63,65,1
35,39,3,108,1
167,89,89,10,1
88,63,25,38,1
7,135,116,50,1
147,111,43,13,1
129,336,86,0,1
33,86,90,67,1
154,189,11,56,1
5,208,18,95,1
2,13,105,108,1
166,30,51,51,1
27,55,116,50,1
32,9,101,95,1
102,17,28,0,1
13,172,102,58,1
47,104,152,135,1
50,180,48,27,1
116,101,109,88,1
75,10,46,5,1
1,76,29,1,1
105,63,97,112,1
64,26,112,95,1
55,62,75,80,1
1,165,16,12,1
18,201,109,68,1
2,24,48,3,1
12,20,78,77,1
2,26,37,90,1
183,50,154,115,1
3,85,4,0,1
276,206,29,64,1
97,12,6,13,1
142,154,150,96,1
1,201,110,1,1
52,135,52,12,1
56,222,76,3,1
15,153,6,0,1
3,15,164,91,1
13,138,66,9,1
67,11,67,228,1
191,141,51,17,1
62,39,7,46,1
5,60,146,103,1
91,43,24,38,1
245,312,6,69,1
402,197,131,84,1
34,68,64,0,1
160,235,22,34,1
259,298,73,109,1
127,170,62,55,1
282,247,164,52,1
62,168,3,71,1
114,170,66,115,1
107,64,7,7,1
130,183,13,47,1
272,45,12,158,1
164,95,337,156,1
5,49,11,87,1
55,189,170,37,1
9,26,7,22,1
79,39,273,163,1
82,236,207,120,1
13,111,496,254,1
271,480,252,211,1
63,80,342,140,1
79,282,54,0,1
3,112,150,210,1
78,20,169,26,1
58,48,405,429,1
38,50,107,2,1
103,55,294,357,1
67,13,95,124,1
12,10,175,52,1
2,115,139,99,1
30,15,253,7,1
6,155,361,200,1
39,196,315,146,1
10,72,555,427,1
182,410,130,108,1
142,180,295,318,1
77,324,43,81,1
149,295,49,55,1
199,183,6,111,1
152,325,163,128,1
2,108,141,19,1
75,279,414,93,1
116,184,131,14,1
32,107,397,300,1
292,75,37,267,1
5,14,234,154,1
159,298,330,206,1
5,35,222,189,1
76,175,277,307,1
325,211,353,235,1
284,145,365,369,1
107,275,93,97,1
166,466,328,240,1
169,160,6,126,1
96,109,177,61,1
85,9,35,59,1
33,8,36,205,1
4,45,217,50,1
129,172,74,109,1
190,261,3,15,1
16,58,366,149,1
115,282,415,175,1
99,226,343,90,1
464,478,357,129,1
271,380,10,49,1
66,24,73,180,1
48,59,234,65,1
135,146,329,382,1
343,320,278,182,1
226,34,247,352,1
83,90,231,67,1
250,293,78,8,1
109,338,40,5,1
54,65,197,156,1
87,254,429,213,1
144,63,357,40,1
297,37,662,411,1
269,101,392,277,1
112,50,967,941,1
47,169,341,27,1
205,281,1004,957,1
131,42,128,164,1
201,320,470,599,1
278,29,7,34,1
237,281,295,66,1
80,86,253,197,1
284,310,32,101,1
280,66,435,437,1
20,50,83,284,1
46,277,48,53,1
60,233,254,172,1
298,149,49,28,1
38,196,489,461,1
105,153,37,402,1
179,296,779,427,1
10,78,309,418,1
3,127,87,73,1
79,143,68,106,1
188,103,503,376,1
231,9,366,512,1
90,206,537,290,1
95,199,672,591,1
26,273,111,174,1
73,130,368,122,1
321,474,103,82,1
182,266,167,0,1
119,302,253,181,1
8,61,315,403,1
198,174,138,66,1
167,21,242,51,1
20,105,146,329,1
182,109,85,94,1
311,34,188,0,1
46,146,521,462,1
52,22,12,0,1
134,210,297,409,1
198,209,193,71,1
129,122,177,31,1
21,51,616,275,1
128,106,3,337,1
11,156,498,479,1
323,73,27,177,1
28,254,448,195,1
123,104,231,221,1
125,170,500,294,1
88,65,512,311,1
124,152,129,485,1
17,184,9,19,1
19,26,563,510,1
265,13,176,148,1
226,117,456,309,1
313,186,265,204,1
295,147,76,5,1
25,173,169,378,1
456,9,38,0,1
290,515,148,156,1
96,30,50,196,1
114,275,597,530,1
14,209,531,423,1
138,73,312,0,1
231,127,896,308,1
788,311,1023,1023,1
489,85,1023,1023,1
519,231,447,419,1
249,224,572,560,1
230,69,389,82,1
26,190,79,128,1
146,458,24,155,1
146,317,93,144,1
21,65,125,15,1
299,334,628,636,1
62,198,793,982,1
173,138,346,158,1
94,66,863,1023,1
127,240,71,5,1
125,28,850,782,1
427,15,401,364,1
440,239,26,222,1
293,22,183,289,1
11,9,565,403,1
85,191,29,29,1
437,299,272,99,1
688,535,231,277,1
105,182,164,421,1
119,131,362,516,1
38,63,373,473,1
110,334,114,94,1
97,160,286,254,1
331,347,767,867,1
169,18,41,209,1
216,114,21,171,1
144,94,89,442,1
290,10,57,52,1
49,98,79,12,1
179,120,330,120,1
369,193,263,424,1
136,60,627,559,1
39,194,674,688,1
371,67,55,43,1
43,275,449,474,1
236,378,14,165,1
214,464,231,420,1
424,344,115,192,1
462,445,534,111,1
22,308,410,41,1
214,202,799,606,1
408,32,1023,1023,1
246,207,21,8,1
48,216,220,430,1
52,8,95,106,1
362,135,296,663,1
445,490,121,357,1
119,9,387,410,1
88,73,296,293,1
89,189,417,446,1
206,429,36,262,1
108,254,526,551,1
78,282,377,148,1
222,36,1023,1023,1
20,12,93,396,1
188,157,119,178,1
190,191,80,106,1
51,14,26,109,1
12,280,90,87,1
388,216,103,57,1
10,95,320,588,1
25,103,668,827,1
0,93,118,210,1
30,77,199,288,1
154,115,208,248,1
68,31,81,61,1
84,219,93,32,1
137,372,185,3,1
44,80,171,209,1
114,118,98,68,1
16,253,201,164,1
206,117,604,468,1
409,249,376,415,1
207,15,258,325,1
298,236,181,120,1
9,9,255,271,1
18,54,55,112,1
96,87,182,390,1
237,380,293,199,1
121,60,367,288,1
150,174,113,233,1
11,49,54,39,1
81,33,92,65,1
33,45,136,95,1
95,88,305,121,1
60,99,133,83,1
25,182,308,411,1
26,40,44,70,1
54,18,79,3,1
27,12,348,694,1
40,244,520,697,1
53,17,218,17,1
225,50,359,432,1
32,88,163,163,1
246,11,50,0,1
71,57,375,265,1
80,13,118,69,1
15,39,364,187,1
93,190,16,85,1
140,263,265,265,1
148,31,348,294,1
71,25,242,193,1
128,41,17,54,1
196,56,35,42,1
31,110,137,85,1
150,62,36,101,1
120,265,111,211,1
90,66,267,105,1
191,81,272,169,1
28,52,110,98,1
125,130,9,242,1
33,47,122,170,1
59,77,451,526,1
7,77,44,134,1
66,8,376,333,1
47,36,289,255,1
27,156,57,135,1
186,51,249,79,1
92,171,180,67,1
318,110,229,28,1
106,92,106,18,1
90,24,222,119,1
31,12,12,76,1
227,268,53,0,1
114,16,327,213,1
156,91,54,123,1
115,51,247,196,1
21,56,132,116,1
27,33,34,23,1
91,297,63,17,1
80,86,325,309,1
5,141,205,179,1
119,140,10,6,1
121,77,79,45,1
22,99,8,28,1
154,153,13,47,1
14,73,65,185,1
113,99,78,93,1
42,102,108,184,1
20,280,150,86,1
25,79,170,164,1
151,277,249,254,1
138,163,181,179,1
15,163,14,96,1
23,160,370,275,1
119,11,1,52,1
98,177,211,319,1
200,172,239,22,1
72,139,437,511,1
35,74,225,152,1
81,308,370,376,1
38,130,11,71,1
194,67,550,285,1
177,50,252,35,1
173,295,288,97,1
130,246,194,143,1
7,34,141,22,1
26,39,322,367,1
9,8,149,322,1
4,172,189,13,1
22,35,380,284,1
263,95,250,252,1
58,25,67,98,1
72,153,74,44,1
66,103,108,151,1
36,60,169,26,1
222,199,8,0,1
77,122,190,116,1
97,23,174,77,1
346,170,68,6,1
159,101,38,119,1
24,15,3,179,1
241,148,25,65,1
42,31,103,145,1
230,10,21,4,1
40,20,190,21,1
5,84,286,166,1
91,209,159,132,1
34,10,186,209,1
9,326,136,39,1
22,19,220,234,1
207,184,143,103,1
42,46,80,106,1
282,339,55,146,1
256,88,83,51,1
45,61,31,81,1
132,70,96,32,1
88,75,46,206,1
100,40,71,36,1
187,24,95,63,1
247,106,120,218,1
210,271,165,122,1
25,93,46,130,1
130,104,157,156,1
45,206,260,168,1
113,38,19,117,1
18,168,102,134,1
87,14,100,67,1
158,123,189,221,1
322,403,322,182,1
153,327,214,267,1
12,62,227,100,1
22,5,227,143,1
19,101,7,3,1
116,18,61,69,1
7,52,18,0,1
133,86,70,98,1
67,39,147,48,1
76,29,117,93,1
153,138,94,117,1
18,119,76,54,1
30,155,85,20,1
307,427,83,53,1
191,284,224,265,1
17,166,159,117,1
20,10,469,248,1
19,88,71,68,1
49,65,256,341,1
2,146,56,7,1
149,190,133,168,1
130,242,50,102,1
214,18,138,201,1
204,16,127,69,1
58,38,24,15,1
76,25,309,204,1
140,135,120,24,1
82,100,31,40,1
162,199,242,292,1
199,253,24,90,1
188,23,149,116,1
205,218,113,90,1
158,190,59,21,1
236,290,105,21,1
37,16,39,0,1
40,47,4,134,1
51,78,109,13,1
4,121,340,93,1
3,151,95,129,1
224,111,178,155,1
79,170,43,0,1
139,159,321,264,1
64,29,114,78,1
20,7,285,51,1
79,47,82,105,1
283,190,184,109,1
74,18,213,139,1
87,63,37,8,1
79,234,32,0,1
162,170,241,175,1
69,96,32,13,1
124,105,29,0,1
22,267,297,72,1
70,197,305,313,1
173,73,69,5,1
110,66,143,326,1
97,51,184,53,1
44,67,141,171,1
106,223,83,0,1
76,81,41,46,1
38,103,155,229,1
69,159,377,222,1
126,84,31,86,1
90,23,241,194,1
91,66,27,76,1
56,82,25,0,1
120,48,120,0,1
201,134,19,0,1
221,155,172,86,1
119,181,72,32,1
197,69,20,26,1
141,323,89,136,1
114,173,204,177,1
56,34,150,125,1
21,25,11,112,1
323,189,186,39,1
66,7,83,24,1
152,149,95,0,1
28,56,163,181,1
2,36,14,0,1
129,100,135,50,1
97,163,112,16,1
71,12,81,122,1
103,211,26,0,1
15,17,244,3,1
70,12,118,0,1
108,117,179,29,1
338,369,367,354,1
175,189,192,59,1
140,89,424,377,1
1,42,235,99,1
7,63,127,5,1
182,177,51,11,1
61,19,141,38,1
106,169,96,98,1
11,157,186,0,1
87,116,115,10,1
115,12,139,130,1
159,254,142,6,1
60,145,118,36,1
11,179,2,58,1
227,205,79,0,1
174,355,173,0,1
83,252,8,5,1
324,264,58,0,1
75,191,68,103,1
44,59,48,70,1
86,72,32,23,1
22,24,71,75,1
49,132,112,7,1
36,41,66,77,1
44,50,50,42,1
97,15,200,87,1
59,58,158,0,1
54,37,166,29,1
5,89,26,53,1
41,19,42,2,1
115,149,64,0,1
56,7,72,60,1
48,54,143,4,1
0,100,124,165,1
124,89,152,54,1
19,100,89,94,1
55,124,98,25,1
53,14,155,115,1
122,134,51,73,1
94,204,52,32,1
180,21,102,85,1
193,106,4,160,1
134,125,46,0,1
158,59,110,4,1
112,65,41,62,1
4,9,15,12,1
161,116,111,127,1
176,304,12,47,1
32,35,154,137,1
4,216,78,50,1
101,149,222,288,1
101,110,71,50,1
73,177,52,43,1
300,184,83,107,1
28,34,25,110,1
12,11,268,147,1
58,49,159,27,1
4,65,27,9,1
241,60,484,110,1
55,51,30,0,1
153,163,173,54,1
262,160,28,16,1
266,263,73,62,1
73,164,35,30,1
28,5,99,4,1
38,191,216,0,1
227,240,46,16,1
16,14,207,251,1
68,226,112,55,1
58,132,11,61,1
125,26,155,45,1
143,48,194,76,1
25,67,205,103,1
184,105,69,41,1
17,123,178,78,1
3,76,137,58,1
37,127,13,55,1
56,86,181,113,1
122,17,234,184,1
20,156,201,88,1
133,64,376,241,1
10,62,38,49,1
99,113,48,29,1
27,190,109,63,1
84,115,225,144,1
112,116,168,17,1
176,175,6,0,1
262,288,131,17,1
599,476,225,150,1
127,143,114,7,1
130,102,395,147,1
206,126,84,22,1
76,175,126,16,1
210,13,157,83,1
84,11,173,111,1
29,168,103,109,1
136,64,24,42,1
80,87,95,91,1
63,31,265,233,1
50,83,199,167,1
182,336,254,365,1
65,51,16,178,1
98,54,351,141,1
152,59,211,7,1
109,273,56,139,1
4,106,185,88,1
99,13,185,137,1
15,102,15,99,1
7,7,364,207,1
81,19,35,12,1
58,15,208,143,1
77,47,27,118,1
162,106,88,14,1
42,211,110,187,1
21,199,161,119,1
91,65,252,119,1
175,403,225,2,1
52,61,311,75,1
191,57,45,10,1
343,167,329,233,1
192,247,69,75,1
108,110,342,220,1
39,45,142,245,1
39,247,584,149,1
65,73,237,268,1
67,207,432,161,1
139,7,296,304,1
62,140,319,65,1
24,130,381,291,1
68,14,33,23,1
206,266,778,503,1
53,52,183,325,1
233,179,578,322,1
9,46,74,132,1
102,148,415,259,1
96,157,59,92,1
400,166,191,297,1
164,75,7,7,1
47,30,528,422,1
93,76,216,93,1
14,34,414,245,1
190,69,198,280,1
193,59,32,433,1
37,91,173,185,1
149,96,16,8,1
79,41,397,169,1
91,105,105,199,1
32,96,12,64,1
17,35,297,276,1
288,336,414,434,1
289,277,279,17,1
152,175,848,575,1
251,245,147,427,1
122,265,592,397,1
343,431,659,601,1
109,64,365,505,1
306,187,396,106,1
302,9,325,388,1
424,179,224,9,1
338,97,258,170,1
11,94,31,29,1
210,85,210,158,1
30,49,71,8,1
287,177,313,155,1
224,158,195,0,1
197,334,82,0,1
29,193,44,0,1
290,290,61,107,1
247,25,103,244,1
285,211,91,203,1
47,177,58,61,1
243,191,155,331,1
24,130,196,1,1
227,16,449,401,1
326,94,48,103,1
171,26,406,247,1
23,37,54,82,1
12,138,312,129,1
248,392,130,286,1
97,131,723,441,1
24,103,503,362,1
12,276,66,0,1
248,273,156,142,1
122,11,26,136,1
381,159,828,512,1
336,192,107,77,1
7,30,374,434,1
319,197,223,336,1
105,77,365,458,1
31,156,373,483,1
117,266,620,652,1
256,290,114,310,1
87,127,28,201,1
94,76,315,432,1
132,169,169,162,1
65,44,383,393,1
586,641,278,143,1
624,461,18,211,1
253,45,140,125,1
245,241,466,455,1
109,14,125,43,1
370,33,754,1023,1
90,19,305,580,1
198,84,772,688,1
34,8,102,182,1
115,78,321,461,1
177,54,266,140,1
255,73,541,481,1
52,351,89,23,1
321,401,645,843,1
51,87,127,333,1
175,194,556,498,1
383,543,519,448,1
9,52,12,0,1
19,354,208,508,1
300,95,129,182,1
32,131,170,172,1
106,169,78,322,1
175,100,173,423,1
234,103,226,17,1
57,21,18,236,1
120,207,254,301,1
133,147,48,72,1
255,6,306,638,1
53,228,285,166,1
338,97,769,1023,1
200,126,140,33,1
193,190,187,418,1
170,63,29,100,1
20,63,136,76,1
91,211,629,561,1
29,91,456,432,1
101,107,619,546,1
174,249,755,649,1
178,144,341,452,1
64,59,355,503,1
385,469,31,255,1
344,392,484,379,1
165,115,114,588,1
116,37,116,478,1
5,272,114,191,1
49,594,321,409,1
106,155,302,23,1
54,160,770,586,1
196,12,237,691,1
50,241,91,223,1
289,20,664,807,1
142,329,201,218,1
64,45,252,10,1
65,11,243,442,1
138,253,137,467,1
44,267,493,189,1
86,85,1023,1023,1
13,107,974,907,1
266,181,411,358,1
137,27,356,568,1
297,182,371,685,1
430,227,17,60,1
99,209,7,57,1
203,104,403,345,1
82,281,695,749,1
155,221,10,10,1
7,225,226,418,1
312,86,41,195,1
52,181,1,56,1
151,14,160,290,1
291,94,205,202,1
15,22,39,410,1
351,345,154,16,1
3,46,328,104,1
228,430,852,586,1
42,507,799,905,1
181,585,98,21,1
163,11,75,12,1
83,276,131,543,1
326,476,198,206,1
55,325,217,277,1
262,144,620,929,1
450,451,424,81,1
417,351,427,231,1
15,147,358,413,1
218,73,92,122,1
178,146,271,495,1
59,49,400,519,1
287,159,576,707,1
214,316,160,22,1
29,125,782,667,1
157,81,91,154,1
554,6,141,445,1
351,174,101,48,1
199,192,503,519,1
620,391,306,442,1
23,97,326,574,1
23,282,98,71,1
153,214,704,697,1
55,80,485,596,1
35,14,215,198,1
63,127,22,108,1
406,43,310,179,1
406,237,234,205,1
99,249,339,219,1
58,123,238,210,1
3,26,101,168,1
326,58,349,393,1
44,74,14,10,1
83,116,33,52,1
158,19,105,118,1
172,229,518,377,1
34,139,139,61,1
38,65,152,346,1
38,68,68,0,1
62,166,243,253,1
128,59,87,101,1
288,265,5,245,1
58,156,124,329,1
127,36,47,119,1
70,276,647,885,1
68,118,346,287,1
144,64,90,98,1
166,343,174,87,1
140,114,94,54,1
214,88,204,280,1
3,43,20,6,1
119,11,9,122,1
204,179,17,0,1
29,112,335,226,1
133,84,204,124,1
39,10,23,83,1
96,97,23,0,1
54,113,272,250,1
101,48,198,205,1
187,6,134,92,1
153,115,11,38,1
47,195,167,40,1
23,54,237,222,1
42,131,99,119,1
157,59,92,5,1
97,11,145,17,1
51,75,270,380,1
6,70,35,247,1
73,71,235,28,1
101,17,82,170,1
133,223,140,206,1
16,87,239,6,1
123,12,77,180,1
227,177,447,451,1
374,292,202,293,1
58,181,55,79,1
3,14,99,243,1
2,173,47,56,1
32,57,190,273,1
135,88,56,125,1
5,109,86,69,1
242,200,6,7,1
102,81,227,114,1
48,83,340,433,1
233,174,162,282,1
182,215,92,0,1
175,87,66,238,1
62,53,223,470,1
247,274,57,266,1
364,79,270,97,1
60,107,59,175,1
104,81,43,25,1
49,189,160,59,1
143,118,69,267,1
48,46,67,11,1
14,34,39,44,1
246,358,42,213,1
5,281,493,111,1
95,206,166,78,1
5,85,114,130,1
95,52,53,125,1
10,100,30,90,1
31,13,122,141,1
5,14,292,472,1
214,175,85,0,1
30,58,54,80,1
98,10,124,142,1
38,109,153,127,1
24,94,34,4,1
103,156,8,40,1
49,16,180,271,1
299,79,55,0,1
112,85,85,217,1
199,341,18,74,1
68,65,335,179,1
215,311,116,15,1
25,28,42,67,1
132,68,21,134,1
91,8,47,256,1
75,30,299,244,1
132,35,201,133,1
160,155,77,135,1
174,71,196,212,1
143,62,63,171,1
51,242,29,38,1
122,6,156,161,1
63,60,70,94,1
135,141,71,154,1
29,7,252,0,1
100,99,377,126,1
72,62,52,14,1
205,71,214,133,1
188,158,110,138,1
33,187,10,64,1
8,125,40,100,1
285,214,375,108,1
149,94,9,43,1
36,181,106,34,1
147,108,89,120,1
250,293,198,144,1
46,22,121,17,1
181,382,640,434,1
345,565,50,37,1
130,124,556,429,1
157,118,3,53,1
15,13,165,201,1
38,14,95,76,1
1,132,271,204,1
59,26,85,125,1
159,285,57,0,1
25,142,442,276,1
95,114,178,162,1
88,53,91,147,1
48,55,113,153,1
32,166,149,94,1
233,181,61,173,1
84,214,343,141,1
151,29,44,40,1
16,5,100,54,1
140,54,24,60,1
95,58,196,198,1
120,41,110,50,1
246,132,55,0,1
2,10,159,182,1
69,279,116,181,1
60,86,390,298,1
160,20,81,158,1
74,266,46,59,1
317,369,65,66,1
144,244,22,238,1
136,179,444,91,1
40,199,471,444,1
30,7,100,27,1
200,315,47,71,1
1,180,107,1,1
56,87,58,124,1
159,8,223,139,1
174,47,12,66,1
5,32,150,0,1
33,218,80,0,1
135,67,98,63,1
62,164,31,45,1
64,235,177,172,1
0,105,169,261,1
139,69,115,178,1
205,265,13,12,1
89,276,158,0,1
202,268,120,185,1
87,27,120,104,1
64,205,150,87,1
74,250,14,0,1
11,153,214,69,1
125,147,102,119,1
61,10,84,10,1
114,32,2,0,1
8,24,35,134,1
179,65,288,210,1
62,15,20,0,1
4,31,53,9,1
157,125,269,252,1
37,31,184,109,1
431,388,13,0,1
16,14,381,96,1
96,79,319,45,1
170,25,97,0,1
71,54,83,15,1
112,7,191,86,1
42,80,2,53,1
10,60,7,20,1
65,17,109,64,1
51,15,111,47,1
80,43,30,11,1
76,84,58,48,1
24,24,32,31,1
131,447,249,138,1
90,294,17,11,1
125,251,361,45,1
76,146,225,234,1
5,150,383,219,1
79,39,663,581,1
13,132,30,34,1
78,33,238,95,1
26,99,106,54,1
119,61,163,0,1
28,102,70,55,1
15,12,135,70,1
81,54,207,202,1
11,168,230,188,1
4,11,28,40,1
54,140,214,184,1
213,172,7,0,1
165,257,154,40,1
38,48,160,138,1
58,47,47,0,1
11,108,3,15,1
84,7,102,156,1
195,152,95,90,1
155,77,6,12,1
131,56,166,101,1
9,133,88,243,1
157,92,13,6,1
15,95,199,359,1
8,27,160,4,1
1,99,31,66,1
169,137,19,41,1
177,184,16,0,1
12,117,207,156,1
209,168,48,0,1
26,103,248,139,1
5,93,4,42,1
33,81,17,41,1
10,187,183,11,1
117,35,68,25,1
153,196,77,0,1
10,134,188,130,1
152,141,4,5,1
16,112,161,83,1
33,81,21,15,1
62,76,129,0,1
12,70,92,51,1
39,17,146,43,1
29,234,6,44,1
28,77,107,82,1
37,39,127,39,1
219,97,28,43,1
131,84,149,75,1
154,332,64,31,1
16,124,7,0,1
86,156,42,0,1
58,60,5,49,1
39,167,10,0,1
76,43,59,4,1
59,202,21,25,1
2,10,1,20,1
125,8,75,25,1
39,92,6,0,1
135,6,37,80,1
106,36,163,88,1
5,72,29,0,1
49,69,56,166,1
5,23,152,57,1
13,56,43,23,1
123,193,159,91,1
40,19,10,8,1
52,45,4,5,1
115,49,121,129,1
77,49,17,0,1
86,7,123,61,1
0,83,47,0,1
106,238,60,48,1
15,48,52,30,1
96,243,9,94,1
54,24,100,1,1
163,175,32,106,1
25,31,34,0,1
38,125,2,3,1
95,7,41,103,1
38,126,244,43,1
133,159,78,0,1
29,9,194,14,1
80,110,87,16,1
59,276,9,0,1
280,474,39,63,1
71,87,39,70,1
171,58,40,55,1
46,17,84,38,1
106,17,38,110,1
3,58,99,8,1
17,41,15,0,1
42,62,33,4,1
44,30,11,0,1
44,75,14,29,1
22,70,4,15,1
163,110,13,0,1
134,275,28,24,1
215,335,167,90,1
57,122,36,18,1
75,33,172,135,1
64,69,160,5,1
102,16,233,91,1
74,135,22,9,1
66,20,153,91,1
63,110,93,126,1
57,10,36,0,1
10,202,100,105,1
91,233,153,97,1
62,68,59,25,1
193,379,31,4,1
293,240,124,26,1
66,212,15,74,1
21,8,46,87,1
46,173,229,2,1
1,32,38,44,1
2,7,41,0,1
26,38,124,126,1
122,47,5,0,1
44,185,89,155,1
118,177,160,100,1
23,29,52,14,1
77,67,88,111,1
87,239,97,24,1
96,24,103,96,1
5,79,323,179,1
121,40,23,95,1
9,189,110,10,1
6,68,46,124,1
204,148,322,199,1
158,104,10,68,1
54,74,482,343,1
29,150,114,54,1
211,106,126,81,1
81,151,220,26,1
136,115,121,17,1
58,100,130,330,1
83,241,176,0,1
188,173,443,304,1
2,175,11,65,1
97,47,503,321,1
32,93,319,410,1
5,158,235,21,1
120,179,7,14,1
48,265,119,62,1
257,119,100,35,1
60,17,318,326,1
77,60,27,57,1
28,180,138,300,1
23,21,27,15,1
40,151,288,364,1
88,23,85,93,1
311,46,183,93,1
74,43,366,90,1
142,313,583,291,1
201,289,301,83,1
216,173,567,218,1
35,60,104,21,1
89,104,57,50,1
95,45,39,262,1
79,93,325,126,1
104,109,270,253,1
14,176,123,79,1
180,159,175,203,1
111,111,213,108,1
149,106,308,224,1
5,75,268,166,1
219,215,294,244,1
87,95,57,230,1
64,112,589,552,1
221,385,36,187,1
88,314,9,106,1
25,382,129,194,1
285,113,81,47,1
251,18,112,76,1
99,15,217,77,1
115,9,277,296,1
157,167,88,370,1
166,115,300,158,1
159,13,102,230,1
103,189,484,460,1
390,267,147,219,1
32,159,87,73,1
178,116,181,261,1
281,156,257,215,1
284,9,295,279,1
187,29,141,114,1
121,8,237,217,1
226,147,63,137,1
333,161,646,568,1
263,106,317,227,1
172,160,108,393,1
283,172,163,96,1
330,350,66,250,1
92,110,417,211,1
208,65,610,518,1
49,7,77,441,1
91,19,157,178,1
137,86,345,422,1
23,148,65,85,1
333,72,384,43,1
179,103,120,281,1
300,279,55,318,1
3,283,197,175,1
148,173,516,19,1
160,60,85,9,1
288,209,326,53,1
77,56,381,406,1
32,7,467,692,1
126,118,351,15,1
106,63,363,477,1
242,57,16,136,1
47,30,78,100,1
292,191,372,2,1
358,115,529,382,1
200,83,53,327,1
273,110,260,95,1
384,218,44,480,1
46,178,443,355,1
86,326,294,760,1
276,191,42,42,1
122,146,131,350,1
194,86,276,167,1
58,57,303,86,1
56,193,394,110,1
327,103,501,664,1
30,73,221,2,1
47,22,205,14,1
147,280,686,478,1
58,57,88,193,1
2,170,243,165,1
131,50,156,107,1
0,118,276,691,1
238,111,56,158,1
33,178,580,283,1
43,352,363,385,1
44,121,297,89,1
99,35,136,235,1
139,18,115,32,1
14,64,300,647,1
96,372,228,237,1
23,201,323,384,1
288,143,5,117,1
194,302,573,291,1
757,492,520,145,1
233,364,406,361,1
28,343,419,320,1
16,170,722,644,1
42,25,367,625,1
13,12,578,584,1
103,220,321,614,1
181,103,187,25,1
88,306,480,357,1
130,211,198,47,1
255,28,130,344,1
121,94,373,644,1
261,305,319,407,1
178,136,584,901,1
58,250,427,321,1
95,125,569,505,1
25,98,174,86,1
218,135,190,133,1
123,33,190,381,1
51,167,275,14,1
80,174,211,406,1
37,44,466,237,1
95,182,183,458,1
61,15,154,206,1
56,153,239,333,1
86,171,138,348,1
151,520,159,253,1
5,40,65,107,1
347,93,480,510,1
494,34,240,264,1
101,215,39,185,1
777,561,382,224,1
462,546,863,711,1
113,213,949,1023,1
32,225,736,203,1
108,212,1023,913,1
25,86,29,255,1
176,298,727,771,1
757,78,656,480,1
13,148,179,0,1
292,123,222,169,1
185,84,113,267,1
80,254,314,719,1
22,267,288,119,1
426,84,607,1023,1
33,42,24,680,1
391,264,1023,1023,1
60,122,701,767,1
77,6,187,417,1
386,20,517,825,1
12,20,63,373,1
50,230,607,935,1
38,7,268,874,1
343,182,830,854,1
73,41,474,686,1
17,86,499,288,1
310,307,201,291,1
73,31,609,552,1
242,68,121,21,1
7,61,93,165,1
5,228,745,447,1
164,198,100,87,1
77,145,515,495,1
15,35,143,196,1
212,112,206,449,1
520,91,345,688,1
153,128,13,468,1
606,27,95,570,1
132,211,129,510,1
127,250,307,572,1
234,313,43,24,1
318,298,187,113,1
118,102,291,99,1
52,189,59,124,1
82,323,208,236,1
64,155,137,191,1
105,46,23,133,1
77,82,5,130,1
63,42,27,225,1
102,11,47,92,1
1,115,155,92,1
38,9,230,215,1
443,146,151,223,1
236,109,174,260,1
214,173,87,150,1
184,291,78,84,1
81,6,34,107,1
24,92,107,99,1
140,65,37,162,1
137,100,18,96,1
69,140,267,301,1
124,88,165,248,1
43,89,287,227,1
434,61,109,421,1
208,25,179,289,1
14,110,123,111,1
173,162,506,328,1
17,27,401,625,1
170,436,75,150,1
51,159,79,253,1
5,283,90,160,1
135,127,191,200,1
103,26,7,156,1
58,109,83,275,1
155,141,233,78,1
74,223,136,198,1
54,93,13,2,1
135,233,5,20,1
260,122,9,62,1
53,142,60,17,1
124,104,242,136,1
330,420,264,165,1
34,58,141,114,1
218,123,134,111,1
491,32,276,572,1
335,358,324,438,1
39,314,209,354,1
259,382,10,75,1
52,136,470,460,1
270,219,438,358,1
111,9,140,185,1
39,54,211,119,1
38,195,60,6,1
1,153,315,326,1
38,44,51,165,1
351,306,362,676,1
76,40,31,200,1
94,34,467,417,1
162,62,87,276,1
47,56,546,58,1
73,16,106,34,1
159,42,251,264,1
7,168,102,23,1
409,232,191,263,1
64,178,66,145,1
174,189,164,142,1
266,151,12,15,1
165,81,148,214,1
237,153,17,75,1
24,12,43,184,1
205,43,135,194,1
30,118,20,68,1
51,65,115,171,1
17,93,176,48,1
212,220,145,221,1
226,149,293,295,1
10,191,67,139,1
21,108,12,0,1
84,186,271,189,1
52,15,12,10,1
7,283,306,172,1
309,438,93,133,1
241,134,179,117,1
14,69,5,15,1
216,175,360,236,1
90,113,136,7,1
40,207,68,0,1
170,43,12,83,1
326,65,17,96,1
284,160,162,123,1
32,233,134,154,1
8,23,127,0,1
1,241,34,19,1
85,90,125,66,1
109,143,56,173,1
188,139,94,60,1
38,13,165,33,1
17,119,130,192,1
17,13,27,223,1
17,58,122,39,1
151,20,148,94,1
19,141,158,182,1
1,136,112,105,1
51,55,2,12,1
70,115,366,314,1
142,21,120,194,1
5,186,266,182,1
13,240,21,9,1
222,67,360,467,1
98,194,182,182,1
162,63,501,504,1
411,806,18,0,1
117,130,291,205,1
12,417,118,153,1
95,223,346,339,1
56,177,158,102,1
178,377,37,64,1
138,110,80,14,1
37,151,194,54,1
29,124,9,41,1
103,30,234,41,1
5,252,58,45,1
235,407,221,290,1
120,368,149,4,1
22,110,288,58,1
113,34,177,131,1
74,267,246,207,1
202,290,25,141,1
99,128,247,165,1
114,29,163,149,1
29,125,198,25,1
113,132,28,29,1
161,184,44,72,1
79,374,145,143,1
9,152,9,11,1
106,44,121,150,1
65,59,144,125,1
83,118,21,77,1
7,20,76,2,1
138,177,81,27,1
100,50,304,74,1
99,18,310,207,1
2,7,115,98,1
1,92,216,255,1
27,17,90,70,1
12,53,72,90,1
12,40,35,64,1
103,79,309,87,1
169,67,248,123,1
63,138,134,46,1
155,22,116,150,1
18,83,197,213,1
73,118,60,54,1
152,29,293,195,1
69,58,2,102,1
39,133,59,0,1
166,77,109,0,1
89,83,30,17,1
81,51,45,32,1
134,24,109,1,1
9,54,9,41,1
23,19,61,83,1
232,331,252,167,1
65,9,69,66,1
205,229,298,159,1
2,10,120,48,1
5,195,47,8,1
136,231,5,0,1
37,200,38,41,1
9,99,34,53,1
61,51,216,130,1
149,121,234,317,1
130,187,98,110,1
101,119,80,0,1
16,43,75,58,1
21,18,165,63,1
25,83,289,215,1
15,26,66,23,1
44,145,69,188,1
108,55,34,14,1
8,79,132,41,1
46,127,27,51,1
46,6,105,21,1
12,184,25,39,1
108,20,65,42,1
25,19,56,24,1
153,98,16,42,1
65,12,6,153,1
20,40,131,115,1
55,6,26,67,1
28,70,232,144,1
67,115,146,59,1
28,57,166,2,1
13,135,412,239,1
25,44,109,149,1
179,24,321,293,1
197,54,13,96,1
75,132,297,229,1
140,33,122,152,1
88,58,177,116,1
103,196,344,4,1
11,103,9,45,1
94,164,33,0,1
90,262,57,15,1
90,119,6,91,1
58,132,149,214,1
77,120,117,24,1
418,344,4,79,1
13,42,117,71,1
385,438,103,79,1
190,11,375,162,1
14,47,140,115,1
29,18,277,197,1
98,141,84,11,1
26,42,161,197,1
119,31,192,243,1
20,133,58,79,1
214,273,119,22,1
121,90,20,35,1
106,141,17,49,1
105,317,335,93,1
105,49,147,171,1
111,8,154,42,1
151,196,93,0,1
46,152,136,149,1
26,26,155,118,1
87,201,193,199,1
108,201,160,26,1
86,179,390,308,1
50,186,260,0,1
143,304,518,442,1
78,146,122,0,1
95,185,26,76,1
7,37,36,0,1
13,50,109,110,1
272,215,65,84,1
104,11,32,0,1
92,62,3,0,1
193,308,104,155,1
120,276,91,4,1
41,23,252,136,1
192,320,19,103,1
30,47,46,7,1
25,128,177,93,1
33,81,184,78,1
121,137,218,209,1
14,128,45,127,1
13,65,155,146,1
89,37,16,73,1
78,7,28,72,1
161,349,349,35,1
135,191,152,0,1
288,371,205,0,1
17,189,23,16,1
210,102,97,63,1
94,179,95,36,1
91,190,85,81,1
197,284,14,18,1
131,57,50,82,1
35,128,87,3,1
129,63,5,0,1
4,92,177,130,1
5,77,65,0,1
16,51,183,168,1
147,239,120,61,1
149,23,38,0,1
125,310,43,0,1
11,9,30,20,1
54,140,13,14,1
12,49,18,0,1
12,136,30,30,1
67,122,39,4,1
181,197,3,1,1
33,77,43,22,1
198,251,78,14,1
276,139,161,0,1
79,9,21,66,1
90,65,144,0,1
117,78,15,67,1
76,72,80,0,1
11,178,130,56,1
78,34,3,89,1
12,27,7,0,1
53,29,13,0,1
93,86,94,81,1
146,212,8,21,1
310,346,73,15,1
98,167,2,0,1
205,129,87,82,1
36,19,8,0,1
185,98,9,0,1
62,25,13,62,1
147,268,155,58,1
155,22,63,0,1
63,111,164,95,1
90,28,26,42,1
114,5,35,44,1
63,82,3,3,1
292,176,143,51,1
481,422,5,0,1
3,66,73,101,1
66,47,259,85,1
127,55,163,21,1
87,298,58,11,1
10,97,148,0,1
57,215,102,0,1
197,10,74,16,1
72,130,97,0,1
148,9,69,0,1
29,127,81,33,1
118,216,46,69,1
69,90,219,163,1
86,160,21,0,1
210,105,45,107,1
76,46,574,333,1
212,176,359,313,1
33,35,250,196,1
134,217,133,69,1
86,31,90,157,1
3,43,90,124,1
41,153,26,57,1
54,38,210,113,1
19,58,213,0,1
172,74,127,150,1
256,240,5,9,1
20,75,380,409,1
291,412,269,15,1
219,292,813,590,1
132,58,111,11,1
69,87,1023,885,1
90,46,201,29,1
147,107,437,421,1
221,132,564,301,1
74,9,313,305,1
131,109,56,218,1
362,374,524,381,1
135,51,130,168,1
227,427,942,795,1
248,86,22,364,1
240,43,865,596,1
270,26,86,152,1
260,188,528,412,1
65,77,341,59,1
36,144,293,348,1
61,176,323,229,1
125,229,53,197,1
182,398,154,94,1
384,277,481,173,1
63,359,326,299,1
187,229,414,190,1
146,174,446,334,1
86,72,80,22,1
161,203,208,137,1
72,239,166,121,1
161,32,168,73,1
111,15,332,71,1
303,132,8,146,1
289,106,364,198,1
75,146,90,10,1
54,44,379,195,1
5,121,10,84,1
25,177,443,236,1
143,169,166,313,1
43,9,282,30,1
333,453,186,313,1
81,30,224,65,1
85,274,316,129,1
297,45,307,344,1
268,353,468,334,1
94,13,40,133,1
176,255,197,77,1
200,103,3,81,1
9,171,8,56,1
149,323,139,239,1
17,61,602,531,1
215,233,72,53,1
166,70,562,415,1
209,221,302,331,1
282,317,292,224,1
111,41,305,595,1
179,273,16,113,1
115,75,210,507,1
204,360,55,6,1
110,311,211,459,1
196,398,33,142,1
60,218,338,94,1
176,36,137,128,1
228,180,587,366,1
309,131,521,550,1
0,16,258,301,1
175,156,406,495,1
135,188,140,176,1
55,263,270,419,1
300,354,4,234,1
80,207,369,254,1
115,61,602,760,1
77,151,378,113,1
0,105,871,979,1
201,84,521,0,1
224,108,960,859,1
112,102,96,484,1
5,252,866,819,1
64,121,109,502,1
271,350,716,610,1
272,424,113,6,1
118,128,29,44,1
62,101,507,494,1
136,30,148,0,1
294,283,287,202,1
205,255,118,25,1
23,135,268,463,1
82,30,686,443,1
338,191,145,366,1
364,216,380,482,1
260,10,13,426,1
261,124,601,426,1
294,8,402,529,1
134,17,244,117,1
178,147,445,435,1
203,323,247,352,1
12,237,187,263,1
170,599,431,396,1
148,267,81,0,1
159,39,34,177,1
13,128,44,264,1
51,173,106,21,1
12,127,745,551,1
38,174,338,24,1
347,50,1023,1023,1
31,61,420,589,1
319,221,771,518,1
64,6,194,298,1
25,79,329,153,1
339,228,56,39,1
128,162,363,623,1
21,127,66,226,1
138,59,630,493,1
66,276,746,614,1
177,13,502,428,1
118,51,651,231,1
386,153,348,348,1
331,32,1023,602,1
150,161,53,147,1
168,171,839,1003,1
411,161,517,326,1
93,48,342,502,1
108,158,424,525,1
411,504,81,158,1
673,812,27,423,1
42,22,508,434,1
87,221,94,209,1
104,335,684,514,1
28,62,486,825,1
78,22,481,461,1
57,66,756,1023,1
533,98,146,140,1
24,66,567,522,1
226,140,470,518,1
92,389,311,495,1
96,217,419,173,1
47,230,65,68,1
388,345,431,626,1
59,236,144,693,1
242,160,71,0,1
99,60,370,458,1
30,247,268,120,1
182,100,443,644,1
310,327,30,282,1
282,115,406,539,1
408,326,186,141,1
286,267,730,1023,1
779,28,411,1023,1
6,115,193,522,1
277,155,263,366,1
347,260,355,557,1
170,372,65,0,1
55,398,222,572,1
131,258,319,141,1
31,167,564,515,1
145,14,236,74,1
424,193,1023,1023,1
392,438,85,150,1
212,142,1023,1023,1
373,18,188,47,1
540,110,787,314,1
64,11,183,296,1
149,22,715,976,1
143,87,394,570,1
23,48,82,487,1
158,82,56,52,1
241,248,371,814,1
90,189,420,966,1
124,26,994,904,1
255,95,1023,1023,1
258,202,255,312,1
111,213,356,580,1
126,44,507,821,1
156,195,23,130,1
174,132,277,261,1
94,90,126,159,1
142,17,52,34,1
183,25,76,134,1
32,97,297,398,1
87,101,233,246,1
25,265,586,962,1
101,17,190,447,1
493,605,555,644,1
140,16,450,445,1
38,53,217,62,1
82,95,40,5,1
127,215,33,363,1
18,114,43,59,1
403,31,330,692,1
32,131,174,282,1
99,154,450,896,1
421,264,296,1022,1
209,62,23,236,1
74,215,168,228,1
116,180,343,420,1
100,23,281,0,1
59,54,201,58,1
244,238,576,425,1
112,191,327,323,1
47,143,52,10,1
98,110,287,123,1
233,49,314,415,1
101,322,10,153,1
203,73,213,133,1
31,18,131,179,1
8,11,99,25,1
116,124,337,142,1
307,62,22,143,1
25,40,59,361,1
17,194,190,413,1
14,18,119,251,1
150,8,190,496,1
155,392,258,142,1
151,189,356,563,1
3,76,298,103,1
9,61,175,317,1
56,228,20,0,1
125,15,530,503,1
0,81,263,307,1
222,64,21,0,1
19,115,84,244,1
185,27,184,131,1
59,90,479,741,1
88,245,278,56,1
113,194,236,241,1
112,5,29,96,1
35,235,197,204,1
107,326,198,206,1
103,167,181,215,1
157,25,46,49,1
100,10,370,273,1
5,136,311,79,1
53,95,246,151,1
24,141,264,255,1
139,45,145,80,1
233,76,33,106,1
408,43,509,677,1
242,429,158,197,1
18,95,197,408,1
190,358,18,234,1
10,63,155,278,1
101,137,186,279,1
13,103,156,0,1
4,130,291,216,1
191,7,283,187,1
261,28,20,15,1
111,214,187,15,1
0,89,330,198,1
27,186,158,93,1
74,70,75,77,1
94,139,454,427,1
69,286,396,367,1
117,82,150,109,1
5,154,338,351,1
176,55,222,132,1
41,130,100,224,1
150,75,168,154,1
227,139,5,34,1
32,52,57,156,1
101,96,119,143,1
72,93,20,59,1
58,177,237,465,1
65,25,172,356,1
59,72,38,32,1
53,94,136,290,1
66,57,90,111,1
134,81,128,134,1
94,193,83,198,1
31,13,317,30,1
4,166,457,496,1
74,9,34,91,1
146,63,275,344,1
349,277,105,33,1
199,125,338,494,1
150,91,183,259,1
170,108,16,133,1
7,65,29,24,1
28,158,15,79,1
30,22,131,110,1
147,13,123,22,1
175,248,321,213,1
47,51,28,63,1
164,108,83,29,1
2,17,35,102,1
158,15,263,346,1
6,91,377,341,1
98,45,254,372,1
101,88,405,340,1
103,45,380,305,1
292,189,110,79,1
16,43,15,162,1
315,30,17,65,1
312,289,299,186,1
16,43,25,63,1
41,34,210,277,1
11,29,101,161,1
302,81,21,78,1
200,111,118,145,1
45,177,79,0,1
294,39,143,176,1
164,127,130,189,1
62,64,63,0,1
2,153,101,10,1
33,112,407,29,1
3,233,602,161,1
134,82,190,178,1
59,176,195,276,1
232,145,25,53,1
430,534,208,186,1
144,316,37,2,1
47,106,121,45,1
32,58,76,23,1
173,139,114,56,1
3,38,208,141,1
154,165,230,155,1
180,63,43,28,1
212,225,102,183,1
312,313,372,221,1
316,431,224,159,1
547,630,495,290,1
49,159,193,242,1
291,205,334,270,1
19,189,110,0,1
158,244,225,90,1
127,56,101,0,1
24,300,282,368,1
81,7,107,425,1
103,28,2,19,1
24,102,187,237,1
18,127,97,90,1
110,94,65,125,1
25,127,162,150,1
72,216,540,431,1
170,48,152,329,1
19,53,292,141,1
282,145,252,204,1
14,120,22,1,1
31,175,60,0,1
123,146,5,13,1
1,256,13,202,1
47,68,156,50,1
12,314,184,19,1
233,95,115,78,1
264,96,38,29,1
5,11,370,308,1
37,73,69,115,1
3,81,483,327,1
5,95,94,15,1
70,100,317,265,1
29,186,104,0,1
140,254,180,64,1
46,96,134,108,1
110,298,122,0,1
37,59,307,157,1
70,17,271,230,1
80,110,57,80,1
235,91,74,29,1
99,149,145,114,1
68,21,97,2,1
71,53,18,83,1
96,163,156,213,1
143,7,86,41,1
14,35,259,39,1
326,279,299,44,1
124,15,125,24,1
320,348,111,0,1
134,321,13,0,1
140,180,218,247,1
39,77,383,345,1
25,12,217,279,1
6,26,497,288,1
11,13,31,120,1
140,166,107,46,1
44,9,85,231,1
198,57,306,194,1
86,95,302,0,1
24,212,52,93,1
374,117,15,54,1
164,334,48,42,1
36,38,30,0,1
244,182,59,157,1
147,62,117,119,1
105,43,188,149,1
100,81,66,11,1
168,54,372,433,1
165,266,419,45,1
202,163,572,427,1
45,10,167,259,1
34,250,413,316,1
6,201,104,323,1
119,174,353,302,1
49,30,275,73,1
208,283,60,90,1
116,144,69,9,1
97,39,27,97,1
384,343,44,57,1
146,338,165,83,1
20,31,94,0,1
10,20,240,23,1
30,162,454,260,1
113,116,263,83,1
301,526,399,201,1
41,70,372,192,1
18,17,7,0,1
335,59,344,308,1
47,159,31,79,1
7,166,221,199,1
0,140,121,1,1
69,119,58,69,1
1,194,123,64,1
182,71,12,30,1
100,147,51,60,1
272,433,163,122,1
582,800,205,14,1
227,73,7,10,1
30,16,341,72,1
35,72,126,84,1
90,69,122,173,1
52,74,99,71,1
39,201,117,87,1
17,77,25,0,1
236,45,243,236,1
23,7,18,26,1
3,39,69,125,1
190,109,60,112,1
246,163,3,0,1
191,97,29,65,1
277,424,189,89,1
204,164,89,0,1
29,193,150,69,1
95,240,5,8,1
47,23,26,90,1
26,90,121,73,1
61,19,214,41,1
97,16,159,36,1
4,13,201,54,1
195,8,76,0,1
30,136,76,14,1
241,240,159,49,1
42,210,68,16,1
35,347,48,16,1
184,172,160,46,1
103,59,266,89,1
16,26,218,67,1
158,14,38,96,1
7,164,10,55,1
44,68,58,8,1
11,151,68,0,1
24,29,142,8,1
65,70,60,0,1
3,78,166,36,1
110,6,24,14,1
44,86,248,146,1
67,41,22,17,1
16,165,76,95,1
53,157,99,11,1
77,183,70,79,1
42,11,118,0,1
106,196,52,43,1
150,33,7,47,1
116,347,59,26,1
30,25,46,130,1
3,56,85,15,1
26,5,103,5,1
83,281,50,29,1
4,33,19,0,1
50,13,43,51,1
58,52,18,62,1
172,143,7,0,1
3,173,22,72,1
32,84,102,37,1
131,68,21,56,1
173,47,2,15,1
3,17,37,51,1
236,421,152,146,1
109,152,170,155,1
0,111,17,0,1
48,22,132,62,1
54,154,209,72,1
6,168,32,44,1
68,91,325,233,1
74,26,39,0,1
87,153,244,236,1
96,131,143,65,1
222,94,52,147,1
96,291,202,194,1
240,220,208,0,1
5,98,64,6,1
193,209,67,94,1
27,126,243,73,1
8,78,89,150,1
83,30,131,234,1
98,76,352,166,1
2,101,327,19,1
79,145,545,392,1
59,94,492,36,1
7,66,513,323,1
28,71,76,172,1
2,28,450,153,1
115,253,37,154,1
70,205,667,309,1
48,13,152,88,1
27,111,689,349,1
59,186,375,273,1
81,115,279,0,1
15,59,179,167,1
4,262,68,25,1
164,164,117,81,1
61,124,86,60,1
3,415,293,106,1
92,263,257,29,1
195,165,452,301,1
172,140,380,13,1
15,199,133,321,1
23,75,309,277,1
161,179,212,198,1
238,23,119,190,1
14,79,5,47,1
6,7,286,95,1
40,39,83,132,1
86,6,3,162,1
70,35,560,580,1
29,259,313,11,1
355,382,652,499,1
171,152,122,254,1
80,91,3,45,1
178,18,340,27,1
151,412,360,206,1
326,336,13,283,1
69,107,136,161,1
138,124,79,146,1
58,58,134,38,1
175,144,230,371,1
15,84,348,225,1
187,21,482,394,1
35,52,417,233,1
133,89,1023,712,1
178,349,537,202,1
124,245,147,32,1
39,113,129,138,1
352,74,59,296,1
172,100,367,373,1
366,267,151,102,1
214,125,16,229,1
41,79,120,125,1
12,52,4,225,1
68,128,63,92,1
118,49,112,94,1
26,38,531,254,1
163,26,230,115,1
34,35,312,39,1
171,127,681,669,1
12,114,137,82,1
244,165,235,396,1
408,380,275,293,1
122,149,68,0,1
94,116,12,162,1
70,197,156,123,1
236,114,196,343,1
21,181,43,292,1
157,217,819,584,1
32,159,132,144,1
75,257,862,719,1
235,88,185,45,1
281,177,930,865,1
291,70,184,50,1
180,29,624,836,1
345,163,442,244,1
313,248,257,490,1
53,21,615,664,1
206,99,280,809,1
97,100,973,757,1
284,146,473,640,1
330,203,585,579,1
212,43,34,559,1
200,9,1023,891,1
9,258,247,472,1
86,220,874,871,1
31,222,41,35,1
5,190,5,33,1
23,214,415,479,1
547,464,225,306,1
262,149,875,982,1
190,37,95,372,1
19,216,436,722,1
27,260,48,68,1
137,178,107,351,1
308,368,347,395,1
260,364,414,358,1
25,91,556,843,1
99,298,367,248,1
151,19,535,786,1
109,206,172,9,1
51,97,200,546,1
48,127,463,439,1
5,170,533,782,1
138,53,41,104,1
360,243,381,722,1
97,55,136,166,1
152,31,394,618,1
22,258,192,410,1
103,25,571,783,1
23,203,13,82,1
15,30,37,152,1
368,19,196,591,1
10,115,209,5,1
31,226,516,299,2
129,104,43,294,2
116,19,71,198,2
444,310,109,140,2
177,91,362,327,2
152,218,392,581,2
11,11,189,267,2
375,150,4,55,2
47,195,368,535,2
28,13,973,907,2
154,121,546,465,2
113,100,817,693,2
20,151,39,329,2
169,68,615,359,2
9,39,251,240,2
26,44,338,276,2
70,206,298,266,2
206,208,137,186,2
238,419,446,390,2
139,69,25,18,2
153,271,337,203,2
146,146,88,236,2
3,405,65,45,2
107,27,115,381,2
233,464,358,386,2
2,95,313,1013,2
90,228,804,560,2
27,186,298,511,2
91,140,219,173,2
9,263,191,446,2
205,270,136,97,2
257,148,90,8,2
14,110,34,50,2
113,513,251,320,2
25,248,608,584,2
44,274,25,39,2
150,98,69,0,2
52,14,245,97,2
154,23,189,542,2
261,137,17,73,2
270,162,179,600,2
450,102,416,265,2
156,69,217,17,2
210,36,8,10,2
180,28,67,90,2
187,19,422,14,2
79,34,330,21,2
203,145,12,322,2
345,257,246,61,2
414,152,440,423,2
86,5,18,0,2
304,279,744,930,2
282,84,99,316,2
21,74,592,917,2
12,71,436,719,2
66,143,163,403,2
51,191,116,524,2
152,126,81,456,2
452,27,124,0,2
208,7,113,210,2
117,381,355,790,2
290,186,117,101,2
52,147,642,711,2
58,234,168,544,2
178,355,280,108,2
16,90,297,375,2
88,204,85,187,2
42,9,251,20,2
66,54,236,199,2
307,165,48,39,2
78,39,653,1023,2
163,7,97,605,2
33,42,564,598,2
101,163,85,57,2
33,17,305,777,2
9,152,425,347,2
29,47,239,489,2
92,164,60,42,2
120,32,236,415,2
252,103,548,542,2
175,315,734,876,2
58,428,251,99,2
67,45,478,506,2
147,237,661,874,2
438,166,539,1023,2
167,203,512,454,2
35,61,65,40,2
55,164,735,853,2
358,136,311,336,2
86,212,238,398,2
127,10,355,504,2
62,45,81,35,2
193,89,221,326,2
129,509,260,164,2
147,15,123,126,2
63,95,491,718,2
279,244,20,269,2
74,148,510,520,2
301,61,204,460,2
52,182,3,163,2
114,136,149,312,2
50,173,75,123,2
15,173,288,543,2
87,63,6,42,2
1,114,131,126,2
145,199,21,182,2
7,59,73,21,2
38,45,187,297,2
13,187,173,245,2
3,133,111,86,2
62,166,349,402,2
70,68,104,19,2
18,18,27,70,2
164,110,286,317,2
283,123,65,412,2
31,127,35,14,2
85,44,194,3,2
35,45,243,327,2
154,119,18,1,2
111,24,286,402,2
173,51,78,56,2
59,11,66,86,2
22,33,1,141,2
101,58,50,99,2
22,38,397,12,2
7,153,45,84,2
257,179,37,119,2
122,179,198,353,2
10,115,373,747,2
175,81,167,441,2
300,60,276,408,2
132,144,412,198,2
215,55,124,24,2
153,135,189,264,2
220,353,230,358,2
11,10,44,137,2
67,31,94,0,2
27,177,277,264,2
3,280,295,422,2
50,12,97,0,2
180,92,362,476,2
62,15,10,172,2
14,87,262,178,2
110,178,214,129,2
190,36,174,47,2
59,29,311,293,2
132,11,523,554,2
88,85,219,202,2
339,196,41,11,2
178,152,127,147,2
226,214,152,194,2
64,35,23,35,2
269,247,139,81,2
2,135,384,73,2
309,227,353,288,2
192,55,190,0,2
107,144,245,380,2
28,12,277,223,2
152,54,190,227,2
22,146,17,22,2
11,190,305,533,2
150,6,148,182,2
27,81,39,129,2
54,99,148,267,2
142,139,40,57,2
79,23,32,290,2
87,44,22,37,2
451,473,198,374,2
6,178,246,187,2
59,112,68,157,2
14,93,61,27,2
42,99,183,106,2
49,123,254,175,2
12,109,64,23,2
85,6,331,482,2
43,82,215,34,2
82,102,219,244,2
108,69,49,149,2
18,25,10,170,2
28,109,9,0,2
406,440,275,206,2
360,501,100,184,2
11,79,86,117,2
118,41,21,73,2
119,239,29,51,2
42,149,90,82,2
70,54,188,97,2
158,220,71,8,2
52,125,52,22,2
93,36,86,10,2
20,97,214,229,2
48,15,475,536,2
336,86,73,27,2
171,35,501,733,2
253,481,191,239,2
97,48,190,376,2
67,223,383,222,2
19,8,140,190,2
270,173,295,50,2
13,36,52,203,2
164,223,14,14,2
61,45,13,0,2
162,134,84,128,2
58,73,7,6,2
103,83,107,200,2
78,132,112,254,2
0,63,62,161,2
59,134,249,287,2
97,233,143,106,2
140,34,270,240,2
109,16,439,326,2
0,63,288,267,2
134,48,215,131,2
2,232,28,71,2
149,163,106,184,2
41,108,22,130,2
108,283,94,247,2
129,288,246,225,2
219,14,49,155,2
10,81,239,461,2
106,65,322,87,2
102,102,57,277,2
101,65,407,344,2
131,30,14,76,2
44,80,265,267,2
57,158,363,465,2
12,191,14,161,2
198,415,550,498,2
67,51,145,133,2
302,496,10,123,2
24,148,176,57,2
5,15,152,91,2
13,43,185,73,2
2,57,22,0,2
2,6,225,275,2
220,266,155,117,2
223,22,82,307,2
143,183,27,15,2
25,129,259,345,2
55,24,180,0,2
67,241,151,56,2
49,211,262,0,2
70,49,43,7,2
150,173,210,180,2
66,46,83,0,2
99,80,311,105,2
55,120,86,47,2
121,187,299,130,2
62,191,154,97,2
7,73,46,57,2
92,16,272,111,2
173,7,65,17,2
20,9,45,60,2
10,115,22,0,2
14,6,420,462,2
135,68,26,41,2
41,85,403,537,2
125,52,49,53,2
23,8,112,370,2
128,26,100,143,2
297,356,282,388,2
339,329,246,192,2
257,241,190,36,2
89,31,212,86,2
95,17,207,273,2
317,11,34,186,2
72,270,315,70,2
145,114,12,44,2
106,250,169,114,2
91,115,12,28,2
127,268,70,5,2
215,176,125,119,2
143,259,53,150,2
220,369,37,6,2
119,76,158,181,2
152,67,77,30,2
30,96,176,204,2
6,12,53,13,2
68,152,162,245,2
2,72,115,0,2
110,188,62,184,2
174,243,194,91,2
57,20,68,68,2
67,128,105,71,2
102,103,66,13,2
159,103,185,148,2
168,18,71,95,2
25,87,163,145,2
53,121,203,258,2
0,59,196,149,2
10,61,360,411,2
60,47,134,145,2
7,46,17,94,2
179,34,94,173,2
126,82,47,41,2
52,16,51,38,2
43,19,122,169,2
55,61,68,41,2
130,22,80,156,2
144,242,155,163,2
158,86,15,22,2
281,64,6,151,2
42,26,195,166,2
4,106,86,95,2
203,165,103,3,2
14,12,17,40,2
66,7,19,18,2
98,126,142,68,2
16,147,280,430,2
13,93,2,1,2
123,43,544,647,2
42,75,27,35,2
74,114,301,359,2
22,124,149,175,2
60,70,5,200,2
62,241,364,218,2
127,150,20,0,2
177,377,193,179,2
15,147,88,19,2
151,127,1,38,2
166,275,29,30,2
192,288,85,0,2
3,17,7,10,2
51,92,59,49,2
99,207,5,21,2
32,17,6,67,2
7,20,14,29,2
117,40,170,72,2
102,24,80,13,2
149,191,107,123,2
165,120,54,0,2
29,129,229,95,2
134,210,31,34,2
200,392,71,20,2
58,51,270,267,2
31,143,3,79,2
52,160,152,89,2
112,160,49,0,2
47,47,106,127,2
24,20,7,0,2
125,31,42,38,2
22,42,69,86,2
25,40,120,126,2
89,301,6,26,2
128,51,305,90,2
109,13,211,18,2
38,154,173,68,2
230,231,89,46,2
19,177,142,21,2
109,124,204,191,2
60,22,29,232,2
50,166,223,70,2
83,74,38,110,2
27,148,177,96,2
215,166,30,9,2
32,210,41,24,2
111,18,19,1,2
27,39,200,198,2
20,138,71,37,2
105,159,7,4,2
68,42,75,88,2
126,95,7,129,2
53,112,244,179,2
25,83,143,21,2
104,152,335,280,2
22,232,31,6,2
164,116,104,112,2
10,7,157,27,2
91,79,42,76,2
20,200,157,51,2
34,106,21,68,2
27,49,159,114,2
60,231,35,0,2
55,29,120,61,2
15,45,4,26,2
30,25,67,51,2
20,78,1,6,2
6,12,156,48,2
35,190,167,138,2
21,104,195,127,2
71,25,105,82,2
177,263,65,105,2
76,148,55,109,2
113,173,55,27,2
173,149,20,39,2
57,73,52,56,2
3,47,130,46,2
133,151,198,85,2
217,350,217,76,2
63,11,247,179,2
136,139,174,109,2
79,91,101,90,2
17,100,112,129,2
158,359,205,137,2
161,256,29,17,2
55,94,266,189,2
107,41,99,126,2
20,110,139,158,2
39,25,179,233,2
23,97,460,168,2
54,27,614,639,2
83,200,354,196,2
0,58,229,358,2
60,30,60,92,2
72,31,287,83,2
27,76,132,172,2
189,193,154,91,2
151,157,215,86,2
5,51,7,46,2
45,73,196,17,2
50,69,64,33,2
59,132,56,13,2
4,160,171,228,2
132,7,107,114,2
99,159,427,536,2
330,81,169,21,2
21,98,451,475,2
188,199,273,17,2
134,127,278,100,2
115,306,62,0,2
238,77,29,46,2
169,224,150,0,2
337,215,55,91,2
176,158,148,106,2
140,46,303,366,2
92,154,7,143,2
94,7,346,45,2
102,240,204,122,2
197,16,205,0,2
0,49,198,162,2
21,20,497,338,2
90,147,226,125,2
148,40,550,536,2
72,234,322,139,2
234,152,565,521,2
94,278,241,480,2
567,425,119,163,2
123,214,136,211,2
102,154,125,1,2
196,226,253,30,2
115,135,92,280,2
66,50,445,111,2
12,95,132,145,2
59,16,215,122,2
58,32,154,60,2
167,134,158,0,2
251,406,124,166,2
115,96,364,4,2
308,338,26,90,2
50,9,473,480,2
52,111,352,50,2
65,62,625,785,2
178,69,363,24,2
156,283,302,349,2
338,326,4,150,2
180,201,242,153,2
62,125,233,327,2
279,30,27,129,2
162,93,450,395,2
4,163,6,104,2
391,256,317,15,2
338,103,42,7,2
165,153,247,49,2
91,27,47,41,2
157,166,99,12,2
216,172,622,515,2
194,227,688,570,2
37,73,232,258,2
297,197,397,474,2
191,18,794,456,2
202,147,502,450,2
139,104,883,689,2
51,133,680,641,2
171,113,543,268,2
156,104,771,625,2
221,34,93,105,2
203,75,318,242,2
76,13,49,171,2
232,152,41,139,2
419,325,130,234,2
184,146,686,735,2
191,231,458,596,2
307,142,520,341,2
27,98,410,732,2
34,19,590,507,2
26,152,607,1023,2
307,197,313,96,2
198,196,93,323,2
99,281,749,109,2
328,230,92,109,2
204,73,683,20,2
385,272,197,305,2
56,69,30,411,2
72,244,76,169,2
66,26,62,200,2
155,221,77,217,2
286,210,45,179,2
52,41,216,666,2
167,93,347,537,2
180,150,699,805,2
107,90,647,726,2
114,89,226,211,2
284,218,1015,987,2
288,37,68,62,2
308,331,531,448,2
320,35,83,144,2
123,324,26,174,2
70,69,579,592,2
209,211,119,265,2
36,91,621,634,2
60,218,151,253,2
6,105,1023,969,2
128,116,341,488,2
254,131,691,807,2
225,159,480,1023,2
165,225,704,366,2
195,35,535,778,2
4,204,150,30,2
224,93,354,507,2
90,121,72,59,2
24,88,420,443,2
283,160,55,0,2
109,204,476,645,2
129,161,40,326,2
222,74,498,860,2
78,34,112,384,2
51,105,208,502,2
112,111,244,424,2
94,122,119,547,2
19,114,119,352,2
328,75,205,522,2
87,414,218,327,2
373,141,732,659,2
346,174,239,410,2
83,20,917,396,2
168,195,115,63,2
188,79,379,325,2
186,30,157,54,2
555,153,636,357,2
24,154,135,58,2
116,120,233,334,2
36,147,564,236,2
40,239,146,405,2
35,21,681,704,2
118,93,324,406,2
70,142,56,72,2
302,438,38,207,2
215,67,369,393,2
165,94,14,211,2
357,290,780,920,2
267,522,653,988,2
28,233,229,293,2
172,50,332,577,2
114,183,362,591,2
579,227,557,501,2
189,322,329,139,2
284,306,166,133,2
348,101,505,715,2
108,126,370,308,2
40,75,211,168,2
98,280,262,462,2
161,74,133,75,2
139,108,353,523,2
166,502,124,348,2
185,477,488,493,2
24,120,19,233,2
15,10,933,1023,2
146,133,166,159,2
129,140,129,0,2
470,139,264,651,2
57,70,233,243,2
519,82,43,71,2
132,22,542,647,2
177,40,86,62,2
22,54,11,0,2
78,129,190,76,2
179,149,312,162,2
3,104,157,330,2
102,78,398,240,2
4,125,196,480,2
42,55,304,375,2
47,138,141,13,2
69,281,421,386,2
27,25,658,990,2
268,92,436,275,2
202,116,340,450,2
88,184,244,0,2
89,50,79,71,2
45,13,164,245,2
12,12,119,241,2
67,14,356,574,2
6,31,68,145,2
50,164,282,333,2
271,352,64,111,2
210,207,29,121,2
10,116,206,109,2
13,152,152,95,2
113,38,342,384,2
165,151,148,341,2
106,9,272,580,2
74,121,76,347,2
3,101,589,658,2
64,15,331,504,2
111,115,140,18,2
70,52,70,142,2
28,20,234,144,2
66,134,134,105,2
250,213,69,105,2
126,105,250,345,2
99,44,3,130,2
22,7,69,181,2
16,69,135,39,2
1,64,534,622,2
22,52,163,298,2
8,138,169,34,2
43,168,38,11,2
11,103,114,34,2
36,72,148,39,2
7,82,148,332,2
2,72,9,90,2
66,16,90,180,2
73,189,19,325,2
6,109,6,64,2
62,25,14,34,2
62,19,129,182,2
61,33,179,308,2
61,203,233,487,2
43,228,326,147,2
58,73,379,435,2
152,30,291,280,2
3,54,7,4,2
177,98,74,88,2
27,44,242,388,2
282,62,117,219,2
27,25,134,16,2
111,42,68,141,2
226,158,135,88,2
13,53,200,229,2
134,21,166,71,2
249,261,181,244,2
47,162,281,400,2
120,204,183,338,2
6,10,91,120,2
61,131,195,8,2
58,33,7,124,2
123,14,8,5,2
78,179,364,526,2
109,172,368,26,2
34,114,65,140,2
115,156,14,81,2
42,121,45,70,2
125,79,106,19,2
72,20,422,327,2
53,44,22,121,2
36,67,6,4,2
74,8,422,92,2
172,124,80,89,2
21,11,115,36,2
21,104,338,305,2
1,21,110,61,2
120,18,6,4,2
15,39,251,50,2
93,143,219,189,2
136,20,84,18,2
118,135,87,164,2
31,123,7,129,2
88,7,73,66,2
86,137,170,170,2
104,264,53,158,2
111,167,31,14,2
1,218,98,172,2
63,30,76,80,2
72,92,5,186,2
11,127,49,74,2
6,22,39,293,2
11,60,127,150,2
140,175,21,108,2
108,42,56,51,2
74,83,9,48,2
22,91,200,0,2
54,52,10,90,2
97,45,176,249,2
20,11,103,67,2
137,91,57,162,2
23,44,124,33,2
7,15,312,134,2
118,274,132,153,2
56,14,109,4,2
7,214,67,0,2
15,54,188,107,2
1,133,7,0,2
93,80,274,230,2
161,117,152,0,2
33,49,349,333,2
66,105,96,113,2
84,258,34,53,2
55,87,16,66,2
111,208,114,14,2
38,19,136,131,2
55,74,58,0,2
174,245,133,102,2
100,55,257,200,2
20,90,111,113,2
91,71,65,51,2
109,37,124,196,2
1,118,216,68,2
35,140,199,215,2
63,56,101,23,2
268,240,68,203,2
230,165,96,20,2
93,147,1,75,2
35,283,303,252,2
4,62,24,13,2
173,75,313,195,2
1,66,311,69,2
43,125,218,261,2
62,35,127,0,2
25,47,58,61,2
158,43,49,65,2
39,7,272,213,2
74,14,371,144,2
10,10,146,152,2
5,35,212,287,2
132,378,233,0,2
152,154,185,235,2
142,277,115,0,2
8,107,5,91,2
190,184,73,102,2
73,15,136,0,2
47,82,22,103,2
139,236,220,89,2
209,345,96,61,2
39,109,145,196,2
64,149,50,211,2
3,228,96,8,2
43,46,94,79,2
27,156,125,225,2
61,110,306,91,2
81,151,242,314,2
248,255,289,85,2
97,250,50,131,2
72,6,192,162,2
126,216,10,121,2
130,33,146,182,2
67,17,4,12,2
146,174,3,128,2
242,371,340,214,2
45,75,43,186,2
337,418,37,39,2
0,61,198,138,2
101,55,143,123,2
114,98,243,297,2
111,242,368,118,2
139,219,7,175,2
41,168,260,0,2
119,176,39,97,2
37,69,317,267,2
100,150,75,69,2
7,103,240,214,2
102,91,68,46,2
120,52,218,229,2
12,6,106,145,2
147,154,361,284,2
179,162,162,128,2
203,247,304,277,2
166,20,365,38,2
102,38,5,113,2
128,148,116,5,2
232,235,255,179,2
124,116,33,12,2
289,248,9,50,2
147,26,82,75,2
89,44,45,124,2
181,59,381,116,2
22,32,19,58,2
7,120,352,129,2
27,138,74,31,2
133,82,49,180,2
89,54,208,107,2
161,381,2,66,2
116,299,26,135,2
86,205,162,3,2
161,232,98,6,2
95,173,72,9,2
151,236,11,107,2
153,56,95,105,2
183,119,40,0,2
80,61,100,17,2
39,41,13,33,2
94,128,113,35,2
170,54,55,85,2
42,9,57,0,2
55,60,23,27,2
28,147,4,0,2
0,60,191,246,2
184,102,175,107,2
16,53,398,348,2
120,229,302,201,2
199,155,265,340,2
174,260,283,55,2
194,165,157,275,2
38,60,136,35,2
11,75,11,46,2
67,31,15,15,2
45,112,66,71,2
113,66,114,62,2
163,119,29,4,2
135,116,25,3,2
9,13,90,168,2
108,103,102,1,2
28,158,116,61,2
160,176,182,0,2
4,18,157,181,2
166,421,508,200,2
16,86,22,68,2
133,299,388,267,2
10,78,167,211,2
0,23,75,0,2
203,106,248,207,2
36,137,90,94,2
51,30,137,145,2
41,18,51,112,2
125,98,73,83,2
59,96,121,0,2
3,55,257,132,2
196,121,313,75,2
58,61,372,194,2
41,56,95,0,2
48,11,293,204,2
60,22,68,0,2
49,58,7,90,2
61,39,71,7,2
40,44,72,0,2
64,221,29,36,2
219,380,158,34,2
108,11,7,72,2
34,146,106,0,2
153,125,110,67,2
49,12,124,96,2
14,141,55,0,2
17,22,207,57,2
33,7,68,44,2
149,88,133,0,2
7,23,168,0,2
84,46,67,108,2
3,41,231,387,2
3,115,23,285,2
153,184,437,418,2
65,110,360,49,2
145,104,532,560,2
351,251,456,59,2
126,150,405,520,2
67,115,488,219,2
22,119,181,74,2
32,169,435,280,2
298,218,114,71,2
216,120,134,37,2
12,77,273,217,2
16,167,21,74,2
8,69,372,159,2
150,48,458,336,2
301,189,313,31,2
328,195,393,217,2
205,12,409,57,2
128,8,266,221,2
37,80,184,147,2
337,451,120,45,2
136,236,212,157,2
130,63,177,68,2
311,127,243,323,2
178,217,308,220,2
148,9,226,87,2
168,259,172,223,2
117,159,84,162,2
128,87,19,14,2
11,112,195,0,2
127,6,87,145,2
131,42,14,257,2
118,37,107,246,2
18,89,517,391,2
141,175,166,0,2
193,214,788,319,2
135,154,725,582,2
17,79,227,248,2
222,157,416,149,2
325,430,121,444,2
68,13,540,250,2
159,233,353,505,2
291,315,538,107,2
46,10,253,10,2
123,101,299,567,2
183,174,37,201,2
21,13,512,581,2
398,357,291,439,2
293,331,157,65,2
12,86,985,839,2
578,332,125,261,2
182,171,834,462,2
166,242,363,76,2
274,334,34,321,2
171,204,559,415,2
131,10,618,651,2
204,58,293,36,2
97,9,668,523,2
64,225,200,535,2
179,58,721,344,2
285,10,132,301,2
594,503,941,587,2
133,93,578,733,2
57,29,621,242,2
601,425,794,1023,2
819,617,645,246,2
171,314,743,853,2
458,270,466,126,2
666,798,402,744,2
143,183,136,49,2
84,108,105,81,2
192,468,410,256,2
11,20,143,42,2
110,406,39,131,2
3,66,414,620,2
529,490,423,39,2
267,179,182,64,2
20,124,106,90,2
490,240,3,27,2
130,113,429,509,2
107,131,562,587,2
278,306,243,12,2
367,402,1023,1023,2
358,324,435,61,2
10,102,861,980,2
262,326,123,516,2
238,78,616,671,2
154,88,156,621,2
122,23,270,283,2
3,196,16,127,2
14,17,468,528,2
73,142,216,154,2
174,26,699,703,2
164,195,221,351,2
340,495,164,88,2
247,610,164,229,2
434,358,111,47,2
57,56,86,19,2
501,436,567,772,2
77,35,48,58,2
182,173,608,602,2
9,14,157,350,2
126,448,131,202,2
72,69,546,541,2
179,366,344,356,2
234,288,504,454,2
273,168,452,492,2
142,118,366,526,2
22,107,372,237,2
156,191,345,0,2
13,138,145,308,2
289,153,224,68,2
58,247,344,173,2
205,63,89,48,2
296,204,132,462,2
352,57,662,779,2
177,66,334,504,2
157,48,1023,888,2
176,121,517,522,2
8,41,934,667,2
296,199,524,303,2
170,231,294,155,2
49,195,435,344,2
148,297,235,60,2
546,695,91,34,2
71,32,331,348,2
112,221,198,146,2
196,370,25,40,2
27,53,36,3,2
103,56,67,6,2
316,7,36,89,2
186,44,208,177,2
90,98,486,431,2
231,147,51,276,2
409,344,622,628,2
85,48,75,3,2
48,248,717,534,2
138,165,279,143,2
711,478,612,724,2
126,221,57,142,2
118,115,304,238,2
110,326,47,12,2
99,353,488,258,2
133,159,397,514,2
68,155,181,75,2
57,210,505,457,2
117,197,361,272,2
6,64,140,383,2
521,37,143,0,2
125,117,186,478,2
493,123,17,122,2
42,139,141,37,2
812,924,141,342,2
414,574,283,69,2
487,561,34,90,2
189,254,21,322,2
22,122,766,965,2
122,128,383,539,2
33,276,864,981,2
504,116,466,720,2
28,107,760,777,2
14,118,293,452,2
131,138,787,1023,2
6,16,571,1023,2
183,162,775,733,2
59,20,584,855,2
27,23,473,458,2
248,27,628,788,2
2,27,261,394,2
256,147,258,700,2
498,195,140,163,2
372,403,128,69,2
189,233,7,0,2
62,122,137,206,2
334,149,192,250,2
266,327,50,328,2
8,220,321,549,2
90,115,12,0,2
195,58,259,467,2
151,102,249,294,2
81,35,347,168,2
174,100,207,271,2
54,51,18,286,2
42,127,21,142,2
15,335,330,406,2
177,501,475,712,2
89,192,211,409,2
122,134,678,752,2
72,212,138,37,2
633,321,187,215,2
93,153,141,219,2
112,61,259,110,2
136,44,216,220,2
163,53,74,277,2
67,24,55,44,2
6,17,656,1023,2
57,90,425,550,2
14,31,638,851,2
22,112,125,88,2
73,118,473,450,2
140,173,379,582,2
85,12,350,334,2
117,52,584,700,2
30,42,207,235,2
341,238,214,195,2
37,248,192,362,2
22,172,574,866,2
315,230,14,64,2
285,131,593,729,2
4,97,19,116,2
280,61,457,754,2
43,24,164,0,2
49,20,305,98,2
59,122,247,284,2
25,18,233,126,2
107,188,155,291,2
212,417,448,434,2
474,223,107,259,2
371,24,228,532,2
33,18,26,0,2
155,50,33,0,2
238,148,102,193,2
174,6,41,55,2
90,132,143,369,2
163,55,173,193,2
49,69,101,161,2
70,48,135,278,2
11,83,144,0,2
106,38,183,290,2
129,30,208,256,2
99,99,240,259,2
13,72,66,53,2
119,5,122,166,2
152,114,148,152,2
69,23,128,43,2
358,50,38,143,2
78,72,186,203,2
138,9,126,74,2
106,146,31,23,2
98,135,230,314,2
2,19,192,78,2
105,68,275,322,2
308,38,113,125,2
120,6,63,54,2
274,89,58,41,2
17,73,89,11,2
25,98,222,463,2
27,6,43,355,2
90,176,53,0,2
42,24,110,184,2
110,112,98,21,2
125,153,95,0,2
113,111,353,257,2
15,141,247,267,2
163,112,176,289,2
179,77,145,362,2
81,30,235,26,2
144,121,25,123,2
173,187,472,348,2
74,127,32,34,2
78,124,4,14,2
76,86,221,117,2
98,243,196,182,2
58,163,98,195,2
69,223,425,366,2
190,197,44,25,2
16,115,220,214,2
30,85,250,187,2
63,129,208,278,2
90,142,752,461,2
27,140,24,210,2
130,18,200,333,2
83,149,66,93,2
258,315,43,0,2
185,119,465,241,2
74,172,240,254,2
87,23,269,169,2
8,176,119,187,2
33,9,326,461,2
3,119,175,151,2
70,11,118,277,2
15,79,125,54,2
75,208,25,15,2
270,121,94,97,2
37,150,10,0,2
73,122,281,205,2
99,58,406,444,2
46,13,392,403,2
84,127,413,437,2
9,35,232,51,2
28,202,95,148,2
17,84,65,51,2
157,116,118,201,2
132,239,94,8,2
14,14,97,230,2
159,194,24,2,2
199,76,161,155,2
179,260,101,187,2
18,14,189,93,2
3,25,330,518,2
0,85,42,79,2
18,7,345,520,2
181,34,317,176,2
106,22,419,511,2
46,68,85,23,2
57,27,200,170,2
70,50,8,101,2
19,143,58,237,2
1,45,20,98,2
238,14,344,204,2
289,142,131,99,2
68,21,195,188,2
174,140,24,151,2
23,53,98,112,2
150,216,36,49,2
169,128,33,3,2
22,33,129,124,2
23,115,115,195,2
81,43,210,71,2
106,102,14,30,2
284,224,7,101,2
92,112,359,387,2
215,198,297,167,2
182,131,64,40,2
40,83,129,272,2
124,241,46,81,2
41,25,119,155,2
233,11,168,255,2
10,69,110,0,2
175,5,162,66,2
66,11,15,0,2
138,91,21,30,2
140,99,209,259,2
66,53,268,263,2
128,259,209,173,2
131,95,85,163,2
62,125,90,223,3
27,115,602,810,3
26,170,55,150,3
69,14,218,392,3
63,14,2,117,3
6,122,70,330,3
32,138,3,124,3
97,48,151,222,3
60,107,138,24,3
199,38,194,168,3
79,132,184,63,3
313,376,28,62,3
208,221,80,96,3
147,207,183,121,3
22,23,64,0,3
14,74,404,413,3
94,63,55,103,3
204,151,497,372,3
4,142,181,47,3
29,7,288,347,3
88,13,230,208,3
70,109,184,177,3
7,23,267,198,3
164,6,148,197,3
180,165,210,68,3
128,188,5,17,3
91,16,94,132,3
155,377,27,12,3
82,110,30,0,3
14,115,75,24,3
66,103,263,219,3
149,95,121,140,3
19,8,336,266,3
105,74,106,13,3
82,13,192,211,3
118,71,277,293,3
25,59,33,6,3
181,221,111,207,3
141,81,38,28,3
28,186,70,91,3
149,209,217,59,3
6,159,14,0,3
216,229,227,225,3
53,36,71,4,3
46,127,24,77,3
82,110,51,42,3
153,144,117,57,3
208,233,35,0,3
186,106,44,21,3
112,119,87,30,3
29,23,67,63,3
87,26,257,236,3
121,113,147,110,3
91,206,213,239,3
38,54,483,462,3
113,111,144,79,3
22,35,159,121,3
42,177,177,27,3
72,57,119,232,3
6,47,148,1,3
89,161,29,107,3
3,100,143,73,3
75,97,356,32,3
173,350,295,160,3
8,127,253,140,3
45,86,468,530,3
24,169,300,174,3
33,88,355,576,3
81,139,630,516,3
15,105,77,21,3
15,38,332,445,3
54,173,383,313,3
106,24,254,39,3
78,153,166,122,3
40,262,103,0,3
189,113,124,145,3
171,246,13,21,3
42,93,167,332,3
179,22,95,0,3
27,172,157,149,3
99,91,167,50,3
17,24,138,61,3
5,26,83,123,3
29,47,117,91,3
74,103,277,225,3
5,50,164,164,3
229,225,784,572,3
126,77,234,365,3
67,26,743,539,3
36,52,13,120,3
172,12,415,229,3
50,53,22,50,3
5,67,174,100,3
163,96,531,539,3
239,19,112,162,3
34,13,616,607,3
13,232,57,157,3
36,48,317,439,3
41,154,112,3,3
216,139,152,79,3
86,17,59,19,3
17,63,42,207,3
415,413,213,132,3
40,71,266,251,3
99,16,139,114,3
188,81,419,199,3
171,11,5,190,3
59,214,361,117,3
102,112,122,175,3
221,293,381,442,3
213,320,95,146,3
61,77,669,590,3
203,99,399,213,3
36,54,385,302,3
521,212,373,158,3
69,20,143,57,3
151,59,112,41,3
21,73,150,84,3
12,47,20,11,3
56,118,538,281,3
234,256,39,60,3
45,22,403,357,3
415,248,160,55,3
246,282,97,80,3
4,69,154,179,3
97,179,139,242,3
314,387,45,125,3
63,122,30,276,3
196,285,159,82,3
43,62,468,592,3
121,14,380,133,3
33,69,317,389,3
272,95,753,316,3
420,30,84,66,3
95,59,295,0,3
46,134,39,41,3
3,108,218,186,3
81,17,216,48,3
144,111,311,302,3
142,77,516,310,3
5,43,382,160,3
83,146,222,84,3
41,54,311,82,3
40,162,138,356,3
48,385,917,523,3
290,329,26,487,3
40,246,702,510,3
258,250,337,49,3
84,47,990,807,3
302,112,216,710,3
13,182,633,468,3
60,97,246,450,3
230,95,475,382,3
290,139,41,141,3
167,143,608,463,3
413,532,366,151,3
156,37,483,79,3
21,57,573,518,3
151,145,66,168,3
23,126,209,26,3
59,57,460,277,3
659,570,148,126,3
278,150,725,713,3
315,302,240,13,3
344,249,206,129,3
231,186,84,113,3
237,87,316,406,3
222,403,70,219,3
913,705,100,221,3
426,396,145,531,3
99,142,112,45,3
160,96,5,261,3
36,138,117,245,3
105,168,247,0,3
124,117,367,319,3
41,195,107,223,3
42,26,97,354,3
86,119,135,127,3
116,78,102,22,3
96,87,300,306,3
173,29,320,296,3
32,101,684,599,3
186,81,256,285,3
129,661,321,221,3
173,176,366,247,3
45,141,99,303,3
41,115,90,83,3
313,318,131,127,3
203,179,160,269,3
234,12,8,174,3
72,106,67,144,3
323,181,268,4,3
133,339,61,7,3
307,506,256,4,3
101,20,423,321,3
253,6,271,32,3
87,91,335,243,3
163,201,447,354,3
22,221,113,336,3
67,214,51,89,3
70,45,191,271,3
330,223,180,103,3
194,34,71,141,3
25,353,93,1,3
151,352,187,110,3
474,221,182,108,3
181,83,10,41,3
1,263,306,357,3
7,311,191,164,3
218,275,53,85,3
446,585,653,582,3
412,401,469,248,3
146,264,389,439,3
193,338,361,252,3
68,35,55,13,3
273,230,90,178,3
304,166,406,219,3
331,455,157,97,3
102,343,691,589,3
438,162,240,442,3
776,54,114,647,3
94,11,244,317,3
175,104,108,1,3
195,127,41,52,3
30,123,33,12,3
215,73,39,217,3
169,76,260,0,3
96,29,403,392,3
388,215,55,6,3
197,262,868,599,3
4,353,531,254,3
417,570,87,130,3
29,18,362,464,3
78,146,252,290,3
326,61,301,322,3
168,93,381,459,3
183,6,22,195,3
106,106,197,364,3
338,205,438,180,3
2,20,15,76,3
119,71,3,4,3
106,114,266,108,3
319,515,403,82,3
400,643,271,109,3
1023,1023,790,399,3
102,129,349,305,3
183,155,267,152,3
200,40,123,125,3
29,75,535,348,3
93,78,578,791,3
43,162,119,306,3
90,253,443,316,3
383,207,129,261,3
21,213,680,765,3
64,18,5,116,3
25,66,320,387,3
39,34,84,118,3
52,114,50,0,3
288,724,147,328,3
614,695,11,329,3
166,112,44,117,3
44,293,362,444,3
466,131,328,474,3
136,67,573,449,3
67,91,164,14,3
52,65,450,520,3
114,5,270,274,3
48,12,528,349,3
94,32,266,77,3
171,208,497,518,3
60,94,328,62,3
100,62,566,555,3
9,71,416,295,3
363,150,364,351,3
80,63,89,93,3
439,416,438,407,3
23,76,120,51,3
314,157,84,177,3
703,23,248,800,3
112,257,339,619,3
47,194,728,1012,3
9,32,89,83,3
215,29,56,0,3
253,175,256,319,3
192,117,599,960,3
123,104,252,110,3
139,178,581,728,3
288,35,483,665,3
262,433,6,165,3
17,239,1023,1023,3
105,287,69,108,3
294,73,592,657,3
95,26,441,477,3
109,52,205,415,3
6,9,63,202,3
181,70,269,378,3
46,141,391,396,3
280,8,506,714,3
293,30,410,495,3
224,155,256,789,3
169,49,322,614,3
257,84,294,50,3
18,28,317,415,3
152,18,311,244,3
31,120,192,173,3
162,232,31,59,3
70,109,204,336,3
3,157,89,109,3
97,333,19,37,3
281,300,120,218,3
220,122,266,213,3
267,151,380,348,3
69,29,255,329,3
86,112,221,87,3
92,71,99,111,3
24,50,166,96,3
40,35,134,19,3
124,173,175,186,3
8,9,376,599,3
45,33,399,670,3
55,91,15,342,3
95,24,220,474,3
189,212,446,41,3
214,12,204,65,3
16,18,255,181,3
25,141,28,31,3
20,77,353,352,3
41,29,74,93,3
20,38,407,526,3
39,107,7,12,3
58,35,634,648,3
7,155,349,450,3
21,101,17,5,3
193,17,283,290,3
7,130,680,542,3
39,113,76,46,3
31,40,300,291,3
163,195,91,274,3
410,215,27,231,3
94,217,229,262,3
141,351,581,612,3
138,116,7,102,3
140,183,365,382,3
69,10,45,158,3
56,151,27,18,3
187,341,86,303,3
5,198,195,152,3
97,234,213,69,3
91,67,481,659,3
67,219,230,75,3
37,46,212,133,3
299,318,141,58,3
72,180,29,44,3
43,108,664,522,3
204,241,26,45,3
70,53,283,368,3
168,264,112,43,3
13,34,18,41,3
285,482,174,181,3
97,53,254,231,3
295,314,92,88,3
33,113,328,68,3
52,239,290,78,3
138,30,57,178,3
119,104,61,144,3
91,176,102,231,3
215,99,205,150,3
26,40,259,262,3
90,115,111,122,3
85,91,386,308,3
46,60,163,240,3
90,89,285,241,3
83,19,83,99,3
68,50,6,108,3
99,254,210,240,3
158,75,237,6,3
19,39,46,96,3
123,215,430,458,3
17,23,585,367,3
8,123,207,276,3
177,241,133,50,3
99,17,217,230,3
169,87,94,1,3
194,55,268,308,3
167,120,94,0,3
31,140,94,49,3
2,15,81,31,3
33,60,99,111,3
88,217,269,298,3
45,168,18,75,3
335,568,375,344,3
247,235,33,43,3
268,389,791,795,3
216,266,26,211,3
272,92,689,831,3
86,41,178,12,3
166,34,378,489,3
329,82,6,497,3
71,12,131,121,3
45,54,153,109,3
17,201,9,68,3
163,10,127,97,3
12,12,111,90,3
161,62,34,8,3
150,191,32,45,3
148,215,213,365,3
67,11,519,379,3
343,337,387,557,3
22,107,512,235,3
139,255,280,303,3
19,67,41,70,3
0,150,19,254,3
27,29,195,185,3
102,259,305,281,3
38,57,73,0,3
21,29,330,398,3
162,195,82,65,3
142,118,91,146,3
160,277,127,108,3
79,71,247,220,3
147,189,15,0,3
67,17,179,251,3
42,31,142,0,3
6,173,39,132,3
185,124,82,77,3
92,239,65,132,3
3,54,279,193,3
3,6,28,45,3
139,50,35,88,3
56,135,4,113,3
55,93,51,41,3
55,167,107,64,3
10,24,15,0,3
93,160,23,82,3
4,42,1,26,3
13,255,56,14,3
27,32,111,84,3
100,151,89,60,3
384,509,280,0,3
96,211,389,423,3
44,9,195,131,3
13,26,501,650,3
15,7,324,274,3
130,139,279,123,3
167,150,119,47,3
30,29,61,57,3
46,142,188,100,3
101,109,85,22,3
46,80,17,104,3
78,12,209,0,3
146,163,247,81,3
65,251,44,0,3
48,57,147,131,3
163,282,117,151,3
19,101,18,26,3
97,137,155,112,3
8,120,75,154,3
69,108,352,382,3
11,146,114,75,3
56,6,59,214,3
112,70,139,216,3
12,132,290,37,3
15,243,57,0,3
228,171,13,31,3
79,302,40,85,3
233,233,105,29,3
120,33,81,8,3
9,22,55,65,3
197,104,16,81,3
5,36,47,53,3
135,103,61,35,3
160,81,17,19,3
73,118,212,161,3
11,167,293,212,3
62,171,95,32,3
104,23,11,204,3
33,9,65,0,3
176,32,79,52,3
3,196,224,93,3
50,64,3,227,3
113,15,94,0,3
112,204,166,0,3
253,311,21,65,3
240,162,207,182,3
27,18,181,89,3
149,34,110,65,3
1,80,174,155,3
0,138,90,17,3
84,56,179,124,3
17,29,65,99,3
208,82,15,53,3
103,6,22,86,3
7,48,127,179,3
52,9,273,90,3
75,57,77,263,3
9,42,267,226,3
431,212,287,450,3
226,146,50,159,3
14,156,411,612,3
43,128,221,327,3
31,141,98,221,3
1,185,254,435,3
50,33,254,101,3
116,12,281,293,3
27,30,115,127,3
7,132,312,373,3
162,124,78,61,3
124,226,118,112,3
8,127,55,68,3
26,36,90,56,3
22,12,89,234,3
132,96,306,220,3
44,88,27,0,3
134,105,564,366,3
177,242,89,0,3
6,213,562,386,3
136,193,249,213,3
96,218,219,164,3
162,247,89,128,3
198,259,541,304,3
3,40,230,100,3
66,18,547,216,3
123,12,298,153,3
41,272,377,338,3
26,196,117,72,3
118,60,81,383,3
193,35,226,223,3
193,101,302,19,3
278,123,203,324,3
207,338,764,589,3
141,23,246,48,3
364,381,529,485,3
119,176,139,16,3
261,161,59,135,3
82,65,223,310,3
265,143,308,212,3
80,122,87,17,3
28,8,338,196,3
127,78,346,49,3
137,352,342,300,3
313,94,163,145,3
161,87,262,113,3
167,97,52,36,3
0,28,61,102,3
116,169,146,61,3
48,8,29,106,3
343,259,125,287,3
539,500,245,145,3
531,481,297,363,3
221,203,364,455,3
18,261,644,663,3
189,124,851,786,3
269,362,254,314,3
459,176,712,825,3
414,355,569,374,3
97,373,366,602,3
315,301,1023,733,3
404,141,322,306,3
188,501,75,62,3
332,325,135,313,3
168,324,170,0,3
320,314,158,337,3
435,578,169,4,3
17,115,389,683,3
220,56,139,62,3
90,191,195,371,3
63,289,130,3,3
284,80,14,172,3
354,139,427,590,3
119,160,19,171,3
676,373,710,805,3
18,187,176,36,3
144,70,1023,1023,3
27,174,357,402,3
41,44,876,823,3
131,384,468,385,3
0,251,629,625,3
95,28,347,279,3
6,35,371,377,3
16,121,328,418,3
138,143,16,72,3
134,24,176,199,3
316,258,133,102,3
60,34,64,496,3
12,185,473,127,3
144,28,405,609,3
477,300,174,81,3
125,229,293,368,3
292,360,77,207,3
175,117,100,361,3
241,46,855,916,3
46,39,526,591,3
29,33,741,749,3
153,126,361,470,3
228,47,201,136,3
225,85,184,140,3
249,122,162,379,3
428,40,249,334,3
43,219,562,274,3
360,144,261,232,3
278,151,395,388,3
75,223,115,14,3
331,368,40,33,3
430,439,8,111,3
276,367,197,2,3
19,265,681,62,3
22,18,469,618,3
82,115,523,94,3
119,14,953,1011,3
209,21,140,155,3
291,29,733,772,3
482,18,149,422,3
328,49,381,711,3
35,195,158,17,3
427,215,183,77,3
116,389,301,450,3
39,164,245,245,3
230,172,59,99,3
156,77,61,108,3
338,390,435,256,3
16,57,307,362,3
238,247,84,9,3
280,301,143,93,3
396,212,29,178,3
41,49,252,314,3
107,197,224,440,3
97,117,161,114,3
73,17,13,95,3
29,89,142,186,3
173,258,321,388,3
178,183,73,3,3
88,41,169,172,3
39,153,62,33,3
594,804,169,143,3
146,57,103,28,3
105,35,108,20,3
440,270,279,230,3
81,129,96,158,3
498,284,131,83,3
473,68,335,12,3
335,142,17,74,3
3,249,122,108,3
78,87,7,63,3
103,307,98,23,3
153,63,14,175,3
292,197,42,356,3
110,404,47,8,3
875,513,151,79,3
163,260,156,6,3
173,166,268,50,3
26,8,428,570,3
160,63,26,107,3
52,53,871,914,3
93,25,119,144,3
315,181,409,234,3
224,236,648,923,3
287,6,193,137,3
84,41,908,830,3
53,36,423,381,3
301,259,1023,868,3
201,416,36,177,3
468,841,627,347,3
139,241,204,39,3
168,58,84,68,3
114,86,299,246,3
85,16,34,357,3
129,10,381,189,3
245,44,327,551,3
167,65,731,608,3
448,15,271,405,3
157,312,73,187,3
110,154,143,291,3
66,35,13,111,3
6,219,514,668,3
143,205,7,142,3
19,281,385,472,3
419,331,229,315,3
153,271,530,590,3
125,479,68,10,3
729,792,850,730,3
25,20,446,480,3
429,247,158,106,3
21,83,60,16,3
6,120,3,24,3
29,188,269,439,3
315,87,360,272,3
88,218,796,1002,3
165,36,134,164,3
240,321,846,774,3
52,117,682,697,3
116,182,521,24,3
275,69,945,914,3
225,334,234,30,3
189,531,217,444,3
109,38,769,892,3
105,205,53,292,3
190,31,393,168,3
326,6,174,13,3
75,58,98,62,3
71,16,908,1023,3
9,53,302,289,3
62,127,717,673,3
137,44,5,204,3
249,253,350,432,3
75,79,318,312,3
83,321,216,131,3
135,255,373,413,3
158,248,513,597,3
13,199,16,234,3
39,149,90,160,3
70,101,10,367,3
170,88,588,1023,3
625,388,291,581,3
55,235,654,952,3
113,122,265,168,3
258,286,714,1023,3
228,165,17,110,3
173,84,287,483,3
123,110,179,35,3
351,196,213,295,3
75,267,65,115,3
256,180,223,40,3
151,143,52,65,3
33,45,429,274,3
433,28,33,139,3
338,183,768,687,3
154,235,345,394,3
296,40,118,415,3
55,67,280,263,3
43,237,757,778,3
297,142,367,236,3
104,217,332,347,3
51,70,128,53,3
151,251,471,439,3
122,120,229,222,3
499,353,298,232,3
312,120,363,285,3
149,162,526,314,3
459,277,702,963,3
64,18,513,367,3
124,88,871,1009,3
333,21,111,267,3
449,97,479,916,3
145,150,590,431,3
124,57,561,1011,3
66,89,113,47,3
37,225,313,417,3
101,63,477,328,3
98,98,138,11,3
231,150,45,10,3
29,21,643,556,3
184,166,9,179,3
234,247,153,75,3
207,427,337,48,3
231,160,215,267,3
59,78,218,299,3
25,27,45,165,3
237,71,211,87,3
35,73,44,392,3
281,56,53,52,3
208,135,817,1023,3
265,105,285,215,3
118,147,948,1023,3
342,32,282,42,3
201,111,795,943,3
151,28,382,473,3
158,585,625,630,3
179,356,486,440,3
231,126,17,180,3
43,9,27,15,3
19,15,336,345,3
126,112,27,105,3
32,100,307,242,3
283,235,223,38,3
60,53,370,170,3
141,177,73,396,3
203,133,610,665,3
251,68,609,632,3
89,159,92,174,3
7,60,487,608,3
205,90,326,228,3
14,11,324,58,3
137,239,217,103,3
136,136,117,378,3
56,327,75,255,3
392,247,286,257,3
243,82,327,716,3
743,51,522,760,3
243,29,427,946,3
24,25,49,93,3
159,222,540,983,3
332,68,451,588,3
49,128,192,392,3
3,14,433,703,3
84,198,714,720,3
78,180,369,471,3
3,293,724,896,3
50,17,310,200,3
144,57,379,413,3
19,51,472,507,3
90,9,81,169,3
101,263,358,932,3
77,144,236,5,3
83,112,553,613,3
269,11,32,48,3
49,22,10,82,3
75,146,36,82,3
118,27,183,25,3
176,135,104,0,3
111,226,220,207,3
72,126,283,468,3
102,63,76,140,3
44,107,603,306,3
85,98,321,305,3
53,19,953,942,3
30,170,128,69,3
205,158,46,246,3
67,61,7,219,3
119,137,221,491,3
59,7,88,153,3
103,244,233,223,3
108,93,502,754,3
34,62,286,143,3
137,12,1023,1023,3
5,26,149,32,3
58,15,202,277,3
69,39,256,329,3
85,28,231,276,3
2,339,299,135,3
366,440,423,551,3
200,193,393,378,3
302,243,119,412,3
31,110,363,493,3
129,194,400,633,3
77,65,166,426,3
79,195,338,221,3
15,13,651,856,3
168,34,320,331,3
267,109,195,362,3
164,105,282,345,3
55,8,184,314,3
86,329,201,58,3
71,54,229,155,3
129,359,483,647,3
60,295,392,317,3
41,48,772,895,3
65,95,18,192,3
121,117,336,711,3
0,142,306,151,3
173,85,505,401,3
43,37,72,22,3
95,56,23,47,3
39,172,792,1023,3
210,74,186,220,3
128,66,359,531,3
73,229,292,286,3
14,126,132,37,3
64,19,88,115,3
78,134,206,243,3
1,32,41,0,3
147,165,500,760,3
164,5,239,9,3
221,74,197,87,3
21,177,149,208,3
54,66,74,60,3
38,169,143,24,3
51,23,252,399,3
98,38,361,394,3
19,45,303,355,3
164,159,122,21,3
58,17,377,521,3
118,135,250,116,3
61,14,117,178,3
3,11,93,0,3
52,11,59,146,3
29,59,9,14,3
84,71,60,76,3
66,12,64,130,3
74,68,124,11,3
163,69,428,321,3
64,141,16,14,3
1,27,171,7,3
69,74,215,223,3
21,70,99,230,3
133,56,534,531,3
63,57,28,52,3
24,51,15,54,3
128,81,12,154,3
448,227,238,342,3
0,77,235,175,3
241,80,259,281,3
27,29,42,37,3
53,62,312,119,3
125,16,169,0,3
283,67,23,90,3
57,110,111,258,3
56,117,97,140,3
3,6,400,331,3
47,123,181,201,3
110,33,95,48,3
77,132,47,111,3
174,404,72,127,3
115,188,16,94,3
72,287,15,102,3
90,33,84,43,3
128,83,253,289,3
85,88,271,58,3
44,45,135,261,3
16,43,42,35,3
68,79,135,429,3
64,34,107,18,3
26,50,171,264,3
289,240,425,280,3
179,19,124,74,3
64,80,283,147,3
15,87,93,36,3
101,28,287,168,3
22,30,336,148,3
4,95,363,263,3
19,142,24,121,3
94,7,358,407,3
252,191,247,252,3
245,142,206,221,3
15,43,338,330,3
81,12,154,28,3
18,105,452,387,3
59,23,232,314,3
23,162,317,407,3
44,109,301,318,3
139,327,328,322,3
9,180,165,188,3
250,386,270,188,3
114,196,118,209,3
56,63,20,41,3
42,41,285,409,3
24,110,97,80,3
171,189,120,186,3
258,242,14,30,3
82,77,398,441,3
6,134,235,491,3
4,392,236,51,3
83,11,101,157,3
7,168,270,148,3
7,82,102,156,3
1,273,88,35,3
183,138,234,119,3
29,69,28,108,3
26,49,32,176,3
61,280,1,15,3
139,27,41,20,3
2,36,44,41,3
15,7,154,369,3
37,103,21,188,3
237,98,273,352,3
381,137,30,30,3
295,389,23,0,3
153,42,180,101,3
26,68,136,143,3
22,5,111,37,3
491,365,268,109,3
108,58,28,90,3
5,26,144,91,3
14,196,255,306,3
171,116,47,104,3
272,373,218,156,3
65,236,95,31,3
3,96,182,159,3
87,295,82,46,3
341,314,177,54,3
12,20,260,139,3
206,115,147,172,3
255,123,464,351,3
60,19,148,103,3
151,127,445,283,3
129,263,184,291,3
60,12,119,126,3
92,280,60,91,3
149,97,98,75,3
79,24,233,0,3
128,91,172,299,3
70,13,268,108,3
100,110,126,117,3
124,194,50,14,3
97,93,383,55,3
10,169,290,25,3
85,60,7,114,3
187,39,228,25,3
2,13,10,69,3
230,29,217,11,3
35,269,49,0,3
96,58,113,168,3
22,15,253,1,3
95,257,102,122,3
91,138,54,88,3
258,318,195,50,3
36,30,36,0,3
212,158,22,116,3
83,94,459,407,3
196,229,83,136,3
138,129,420,370,3
144,47,105,168,3
139,169,70,216,3
35,39,152,336,3
102,177,471,383,3
261,206,164,442,3
467,420,212,141,3
145,102,7,49,3
37,15,214,147,3
38,25,159,136,3
240,147,3,81,3
0,13,64,18,3
112,75,132,303,3
61,29,101,140,3
1,58,180,193,3
16,92,45,21,3
157,91,262,113,3
106,101,31,112,3
75,114,277,241,3
76,103,43,8,3
12,33,96,111,3
21,303,52,114,3
59,74,22,21,3
2,87,64,22,3
23,65,91,39,3
197,383,136,141,3
120,80,259,304,3
185,106,151,115,3
51,242,177,207,3
63,266,20,38,3
222,418,5,29,3
80,42,67,200,3
66,80,201,52,3
8,29,177,194,3
28,55,25,9,3
14,50,414,426,3
51,138,66,57,4
34,50,137,58,4
29,143,48,130,4
7,54,283,45,4
3,39,47,157,4
60,30,36,35,4
104,114,134,12,4
24,58,27,22,4
204,164,281,311,4
99,222,165,151,4
28,104,274,205,4
125,238,218,274,4
46,21,14,32,4
354,373,25,177,4
193,197,339,264,4
142,128,104,137,4
48,44,104,166,4
27,11,53,21,4
174,180,119,61,4
201,56,16,74,4
43,199,49,0,4
110,102,112,278,4
40,7,230,66,4
169,102,211,244,4
114,14,40,24,4
276,140,111,124,4
385,198,158,97,4
128,188,73,76,4
268,75,380,298,4
195,129,20,0,4
119,72,290,231,4
191,103,90,65,4
70,96,140,143,4
31,153,79,106,4
38,90,21,51,4
145,202,182,6,4
10,151,179,103,4
119,215,27,13,4
38,141,156,380,4
16,19,337,262,4
21,74,191,466,4
65,18,459,411,4
240,502,19,167,4
9,27,37,121,4
25,62,123,12,4
177,78,4,39,4
103,231,40,122,4
139,154,355,0,4
57,66,175,23,4
4,112,418,156,4
12,125,71,39,4
88,257,103,65,4
193,208,95,133,4
33,195,49,5,4
112,195,36,11,4
97,62,102,73,4
76,98,39,15,4
7,42,250,229,4
272,284,311,125,4
91,21,78,142,4
40,37,283,206,4
67,329,107,249,4
153,247,69,122,4
75,76,66,211,4
90,119,183,132,4
14,121,3,12,4
3,70,55,196,4
79,9,88,75,4
220,173,337,205,4
14,11,156,13,4
214,72,340,233,4
225,374,305,82,4
207,203,135,94,4
178,74,166,40,4
294,254,15,163,4
35,220,296,13,4
430,335,16,81,4
123,151,101,150,4
282,211,201,260,4
25,35,85,152,4
9,249,255,260,4
173,106,7,256,4
149,229,55,30,4
11,74,13,97,4
215,212,31,220,4
109,401,149,119,4
191,226,267,0,4
43,25,543,257,4
66,39,71,492,4
145,441,263,397,4
323,311,239,501,4
18,217,423,675,4
418,153,510,468,4
201,42,238,75,4
159,124,119,174,4
51,94,71,39,4
30,164,78,379,4
68,207,727,190,4
63,35,632,775,4
204,456,384,95,4
10,230,585,582,4
54,242,406,529,4
42,63,704,916,4
343,195,243,280,4
145,141,126,472,4
185,77,19,89,4
59,103,338,163,4
11,29,417,368,4
153,219,175,189,4
376,204,52,231,4
238,17,77,19,4
109,373,353,345,4
244,424,71,11,4
136,143,372,278,4
199,391,111,18,4
22,201,628,520,4
36,193,87,76,4
38,142,750,668,4
356,82,90,195,4
20,119,525,752,4
269,170,63,471,4
254,221,94,24,4
121,149,461,171,4
13,137,207,582,4
153,220,27,125,4
162,89,52,362,4
178,173,160,0,4
107,231,83,454,4
99,181,731,653,4
46,103,196,195,4
55,184,609,513,4
110,254,420,257,4
53,14,591,412,4
202,49,30,46,4
235,121,673,478,4
119,302,15,0,4
257,496,79,292,4
424,554,517,250,4
8,361,207,192,4
175,136,507,380,4
13,267,322,325,4
67,95,222,385,4
9,428,287,342,4
46,356,435,256,4
17,233,15,9,4
153,14,737,552,4
184,458,223,145,4
535,425,579,394,4
210,248,585,647,4
658,303,321,356,4
183,77,652,633,4
191,132,255,247,4
130,21,12,191,4
455,371,202,215,4
298,40,288,215,4
463,533,55,38,4
367,19,154,284,4
418,302,432,406,4
496,68,60,260,4
310,184,461,225,4
277,14,132,293,4
437,94,355,366,4
213,178,183,508,4
160,92,310,248,4
64,144,5,86,4
243,297,335,329,4
383,433,545,94,4
217,224,518,465,4
314,486,266,63,4
235,201,378,455,4
168,6,120,24,4
268,46,366,411,4
90,450,551,924,4
320,56,460,567,4
49,342,204,164,4
323,17,78,373,4
157,336,103,21,4
18,67,34,83,4
254,224,285,205,4
175,105,76,364,4
7,243,735,551,4
73,143,162,358,4
28,66,13,34,4
76,149,209,276,4
113,190,177,150,4
409,447,442,640,4
243,370,169,42,4
249,442,511,254,4
165,55,294,378,4
311,91,65,113,4
121,170,101,305,4
16,18,54,3,4
59,32,162,229,4
78,382,393,643,4
101,52,221,177,4
739,718,20,130,4
214,357,158,320,4
314,562,487,391,4
173,70,36,0,4
163,178,387,208,4
193,203,855,855,4
125,132,7,152,4
120,36,630,871,4
208,9,189,116,4
403,90,25,73,4
58,212,170,303,4
241,97,251,565,4
165,161,259,242,4
42,92,317,171,4
9,18,555,417,4
169,24,127,48,4
168,113,1023,818,4
217,131,300,417,4
442,317,434,164,4
229,398,262,199,4
128,83,278,60,4
123,400,16,0,4
198,218,376,182,4
262,157,340,112,4
292,133,266,31,4
36,124,122,563,4
199,254,158,174,4
58,19,446,794,4
49,92,130,292,4
83,308,360,307,4
481,43,213,51,4
64,141,25,161,4
85,265,10,94,4
596,707,610,402,4
159,98,33,49,4
116,480,146,322,4
124,51,233,98,4
62,77,382,310,4
3,31,206,376,4
27,173,77,101,4
101,55,74,85,4
331,23,62,115,4
133,113,445,335,4
48,191,67,21,4
134,51,472,422,4
60,73,271,52,4
758,708,40,6,4
528,740,196,209,4
434,187,457,376,4
14,95,504,219,4
252,229,81,245,4
31,105,50,71,4
240,116,112,259,4
473,127,339,389,4
79,557,271,617,4
679,314,597,870,4
52,95,150,337,4
270,108,84,1,4
67,190,228,356,4
31,23,92,206,4
489,421,33,131,4
137,309,109,147,4
92,135,141,266,4
657,660,250,135,4
10,206,45,260,4
13,411,156,117,4
75,254,28,458,4
26,139,226,440,4
35,326,110,267,4
337,164,385,752,4
24,171,376,281,4
154,28,51,50,4
273,392,594,599,4
171,243,117,113,4
6,151,204,239,4
265,168,291,325,4
291,165,169,320,4
49,176,14,519,4
193,31,874,1023,4
19,311,336,294,4
181,146,765,959,4
313,110,40,154,4
249,63,591,938,4
59,164,137,62,4
620,141,538,771,4
38,21,209,14,4
181,203,234,367,4
298,160,396,311,4
251,479,116,191,4
270,198,656,399,4
105,146,60,183,4
280,318,437,208,4
75,235,316,505,4
10,335,215,119,4
324,79,10,120,4
108,416,89,157,4
172,234,60,46,4
135,55,536,382,4
350,15,389,395,4
189,169,630,597,4
243,113,127,62,4
13,239,814,677,4
29,38,139,35,4
26,7,544,727,4
127,124,638,518,4
268,28,143,274,4
2,152,664,564,4
98,182,269,85,4
302,122,709,1023,4
154,96,219,33,4
253,35,1023,1023,4
118,132,520,754,4
18,126,609,313,4
5,44,1023,1023,4
14,36,447,359,4
167,47,663,495,4
67,139,318,9,4
65,86,216,296,4
280,251,494,181,4
257,351,90,566,4
114,22,259,51,4
80,74,219,523,4
241,118,105,269,4
145,133,426,434,4
102,127,827,874,4
529,46,523,392,4
134,107,1023,1023,4
310,114,357,562,4
213,67,928,1023,4
30,82,551,628,4
68,120,784,1023,4
12,286,943,848,4
205,42,717,1023,4
91,194,878,905,4
56,7,592,470,4
91,117,613,736,4
28,32,416,433,4
68,60,123,405,4
349,71,371,252,4
73,130,194,392,4
598,137,839,999,4
11,118,296,622,4
177,54,585,824,4
23,156,72,25,4
53,173,437,607,4
146,135,205,39,4
255,17,505,24,4
34,86,50,200,4
159,135,618,924,4
3,77,21,167,4
183,192,1023,1023,4
264,161,214,287,4
24,101,1023,1023,4
323,50,506,380,4
142,197,620,253,4
630,122,826,963,4
0,18,86,190,4
175,110,853,1007,4
58,92,209,175,4
146,90,882,1023,4
14,198,18,303,4
136,102,504,676,4
40,113,359,669,4
170,22,423,739,4
126,106,62,457,4
153,212,692,782,4
76,42,28,415,4
137,30,491,409,4
40,200,391,98,4
91,190,547,769,4
40,172,418,468,4
112,249,503,408,4
133,137,110,229,4
126,30,281,82,4
24,96,343,518,4
290,59,645,895,4
196,226,565,778,4
100,65,696,686,4
2,28,178,435,4
163,106,293,27,4
200,34,55,22,4
46,283,56,1,4
47,9,198,95,4
10,186,121,19,4
184,37,59,0,4
149,42,252,173,4
109,32,16,13,4
153,35,95,201,4
198,110,28,17,4
65,152,285,561,4
106,161,109,70,4
71,21,103,143,4
61,7,150,0,4
61,55,75,19,4
138,73,206,343,4
51,45,220,36,4
229,98,551,764,4
27,114,24,94,4
31,154,142,204,4
342,103,59,196,4
63,163,141,273,4
206,151,123,157,4
90,87,23,0,4
89,95,256,161,4
53,119,115,150,4
41,15,129,72,4
58,37,236,379,4
267,121,7,93,4
250,98,38,31,4
18,135,13,39,4
120,321,567,587,4
45,65,414,767,4
12,83,445,70,4
109,373,430,525,4
60,47,299,575,4
90,71,400,356,4
91,250,187,184,4
58,93,269,348,4
99,59,204,221,4
55,62,9,0,4
102,230,484,567,4
107,219,308,191,4
139,160,549,423,4
6,88,164,63,4
123,22,130,236,4
99,56,167,63,4
130,150,126,83,4
8,71,167,20,4
44,73,189,14,4
115,168,43,352,4
51,28,33,183,4
339,187,59,228,4
65,31,341,299,4
18,10,177,73,4
76,141,15,154,4
159,23,455,673,4
154,67,83,69,4
5,118,82,40,4
94,147,381,333,4
100,12,198,111,4
82,10,9,64,4
73,313,227,342,4
246,194,88,133,4
135,295,14,308,4
31,75,100,152,4
55,194,7,217,4
31,236,36,162,4
126,25,189,156,4
48,14,68,58,4
31,88,170,21,4
78,25,26,75,4
169,19,51,16,4
76,45,119,6,4
45,199,208,108,4
145,194,75,149,4
164,136,48,42,4
55,32,256,47,4
71,30,157,118,4
136,201,89,121,4
210,50,129,125,4
94,80,80,106,4
104,91,125,119,4
238,34,328,218,4
41,11,276,417,4
42,169,230,200,4
82,43,63,58,4
10,50,20,118,4
106,49,232,126,4
23,41,17,104,4
37,63,144,114,4
124,115,591,380,4
85,35,412,331,4
58,114,233,173,4
29,27,138,137,4
99,55,10,79,4
32,29,165,239,4
112,113,26,0,4
202,361,34,175,4
2,23,60,78,4
27,168,110,176,4
100,289,218,442,4
95,43,105,113,4
127,40,7,25,4
15,19,32,0,4
134,169,224,215,4
39,227,153,114,4
108,164,129,162,4
95,174,349,133,4
7,42,205,107,4
45,19,139,0,4
219,90,25,86,4
46,34,60,88,4
50,39,117,18,4
120,102,8,3,4
15,20,216,242,4
265,45,66,27,4
125,97,225,104,4
170,242,412,243,4
11,77,195,417,4
102,138,182,115,4
24,123,381,402,4
4,46,7,102,4
170,190,224,257,4
487,628,153,156,4
129,58,352,177,4
103,75,62,0,4
148,119,120,200,4
262,195,140,85,4
262,122,55,172,4
20,158,457,587,4
60,26,71,0,4
58,104,291,362,4
27,69,67,182,4
14,18,376,203,4
209,183,124,401,4
5,104,311,39,4
224,209,166,174,4
19,60,158,7,4
123,62,23,68,4
111,261,10,90,4
312,126,173,117,4
49,203,2,141,4
81,31,77,0,4
8,81,158,60,4
86,104,68,213,4
8,132,94,1,4
111,226,161,203,4
118,178,65,76,4
103,77,259,183,4
42,88,15,116,4
176,270,153,182,4
271,195,236,52,4
100,50,292,322,4
54,75,264,66,4
97,187,149,209,4
55,101,114,90,4
114,17,40,0,4
240,242,23,46,4
130,23,157,85,4
11,144,60,140,4
3,50,180,169,4
59,166,23,5,4
162,102,135,238,4
253,120,291,48,4
24,18,50,38,4
255,7,89,244,4
108,114,148,183,4
3,77,235,383,4
172,327,11,50,4
7,190,95,188,4
52,78,42,26,4
131,112,223,211,4
139,193,7,76,4
132,111,87,215,4
38,61,221,259,4
21,133,139,97,4
61,134,8,141,4
20,35,143,89,4
53,19,74,6,4
0,112,255,343,4
91,63,393,214,4
55,89,121,271,4
91,85,496,419,4
27,127,186,161,4
109,48,103,9,4
146,142,33,62,4
84,126,70,0,4
38,270,71,85,4
70,60,133,182,4
84,92,224,0,4
112,102,94,95,4
127,62,143,130,4
188,10,103,2,4
43,21,8,0,4
80,69,104,196,4
178,157,7,283,4
9,8,25,28,4
220,325,53,72,4
154,185,466,442,4
354,339,108,53,4
140,137,44,133,4
112,20,46,35,4
14,42,249,94,4
9,27,45,74,4
265,367,135,40,4
395,419,23,80,4
159,149,142,33,4
110,172,40,0,4
2,100,46,76,4
60,46,157,111,4
223,53,105,73,4
20,143,49,111,4
29,99,23,148,4
25,169,242,341,4
117,40,74,197,4
329,137,288,330,4
192,215,310,344,4
78,54,11,88,4
285,280,170,219,4
126,144,230,183,4
99,135,90,7,4
1,27,181,248,4
117,115,89,112,4
39,147,46,104,4
132,171,26,41,4
9,37,19,24,4
3,59,136,116,4
361,406,334,349,4
10,124,191,69,4
353,550,299,306,4
137,343,309,215,4
322,540,62,44,4
276,235,97,80,4
135,7,67,48,4
110,85,111,93,4
48,217,4,20,4
39,123,134,111,4
7,105,47,0,4
3,131,77,12,4
16,21,45,25,4
216,31,62,0,4
0,91,48,19,4
43,122,195,111,4
129,122,213,41,4
248,315,53,74,4
125,71,322,232,4
226,603,164,2,4
220,217,93,72,4
93,39,27,0,4
222,327,3,0,4
161,169,82,14,4
28,9,10,0,4
3,31,27,21,4
11,63,71,66,4
46,162,10,60,4
152,90,33,34,4
146,16,26,106,4
96,74,1,9,4
50,125,29,0,4
32,62,77,35,4
102,311,63,87,4
109,39,143,0,4
16,51,11,49,4
284,363,97,69,4
7,84,12,57,4
22,121,126,26,4
131,14,32,56,4
56,55,21,13,4
44,51,1,27,4
51,27,57,0,4
75,302,18,33,4
16,116,28,14,4
15,98,52,26,4
127,28,79,71,4
131,260,8,0,4
88,111,26,128,4
106,191,48,19,4
114,143,103,39,4
76,140,73,0,4
131,187,156,178,4
39,74,3,25,4
52,171,12,17,4
193,228,67,29,4
127,163,13,0,4
27,7,13,0,4
89,257,11,12,4
3,110,57,47,4
59,113,26,51,4
127,205,13,0,4
75,9,136,63,4
37,148,17,0,4
22,94,141,56,4
75,14,46,0,4
127,12,1,29,4
8,38,18,85,4
64,102,1,51,4
103,47,176,40,4
253,183,30,109,4
129,108,216,48,4
60,93,213,162,4
54,75,90,112,4
182,107,85,25,4
6,7,92,30,4
31,137,52,0,4
124,174,88,10,4
2,106,29,18,4
166,59,67,25,4
72,61,7,116,4
95,167,184,258,4
145,172,155,6,4
4,119,81,46,4
56,27,141,15,4
114,27,337,256,4
222,194,36,37,4
146,251,510,447,4
113,85,366,347,4
136,29,404,308,4
93,156,396,247,4
174,229,191,234,4
34,39,197,52,4
15,117,741,421,4
72,123,94,52,4
40,193,885,541,4
4,93,270,73,4
133,79,486,606,4
129,330,398,0,4
60,236,319,411,4
30,21,399,310,4
39,60,865,654,4
17,38,360,49,4
231,259,968,712,4
216,229,208,97,4
35,9,534,597,4
149,95,143,162,4
323,232,524,483,4
5,158,69,59,4
70,68,281,321,4
75,109,7,0,4
114,112,9,154,4
8,7,379,136,4
18,84,128,205,4
16,99,238,9,4
223,225,526,600,4
171,14,276,163,4
82,86,1023,1023,4
396,348,121,123,4
194,412,459,318,4
91,162,347,177,4
60,102,169,220,4
638,685,497,394,4
97,54,60,76,4
288,477,17,166,4
227,20,550,500,4
65,212,527,501,4
171,215,618,498,4
131,271,639,407,4
291,133,596,558,4
15,256,557,552,4
24,110,459,215,4
61,198,220,0,4
120,81,252,52,4
43,196,65,336,4
26,149,255,397,4
475,382,129,205,4
41,42,457,507,4
169,201,10,124,4
265,333,205,170,4
16,36,119,304,4
41,29,64,134,4
532,426,74,91,4
41,379,9,20,4
377,162,10,71,4
102,41,359,160,4
174,149,326,246,4
290,335,166,319,4
21,111,34,80,4
88,124,53,4,4
13,114,160,318,4
157,55,81,59,4
439,109,151,111,4
216,114,112,68,4
147,44,270,292,4
262,82,13,188,4
613,9,7,138,4
231,196,120,202,4
60,473,111,0,4
374,630,68,138,4
480,506,256,133,4
558,494,204,273,4
105,288,258,208,4
235,332,47,6,4
238,393,176,71,4
229,29,162,470,4
88,40,307,162,4
194,64,99,181,4
64,49,612,684,4
178,174,58,251,4
520,344,518,576,4
194,118,98,375,4
273,269,82,307,4
360,147,125,143,4
484,433,80,278,4
645,310,170,554,4
265,79,207,237,4
334,332,420,207,4
168,72,119,222,4
324,300,330,280,4
308,376,214,142,4
87,60,511,573,4
233,53,124,13,4
98,25,343,523,4
170,15,345,101,4
222,143,669,655,4
126,160,174,130,4
138,143,460,343,4
118,41,81,296,4
313,492,97,104,4
12,77,134,156,4
146,191,26,34,4
469,495,152,362,4
131,314,201,278,4
118,6,53,25,4
242,314,47,243,4
279,235,373,246,4
505,392,227,409,4
275,232,813,506,4
211,63,17,65,4
37,87,369,239,4
122,13,225,473,4
414,314,141,98,4
202,119,547,481,4
114,285,104,692,4
858,914,51,50,4
307,280,353,264,4
261,357,157,87,4
118,177,517,514,4
167,11,262,618,4
32,55,417,282,4
61,362,26,78,4
296,236,678,481,4
19,465,180,117,4
20,202,494,264,4
41,67,326,483,4
103,83,512,465,4
219,309,318,335,4
49,13,517,130,4
258,189,414,549,4
163,405,634,551,4
31,54,39,392,4
78,308,566,27,4
216,148,27,151,4
202,460,456,187,4
512,630,236,293,4
75,234,204,250,4
182,273,129,383,4
265,55,346,613,4
227,64,12,487,4
26,47,37,83,4
44,209,135,51,4
214,119,101,55,4
216,140,210,251,4
11,12,19,17,4
758,723,89,93,4
651,669,123,126,4
497,741,356,166,4
33,228,426,459,4
248,132,397,292,4
467,669,199,263,4
75,125,90,1,4
357,139,316,367,4
55,76,5,240,4
25,11,104,61,4
49,84,174,144,4
277,105,274,607,4
97,322,167,110,4
165,324,236,313,4
159,526,46,261,4
474,662,274,245,4
805,981,141,130,4
212,401,306,299,4
270,394,297,156,4
168,299,57,59,4
27,53,353,484,4
346,415,15,82,4
360,420,410,323,4
269,152,379,347,4
26,129,436,276,4
142,298,39,26,4
126,45,115,0,4
137,90,24,37,4
395,52,20,319,4
270,875,667,444,4
545,105,300,386,4
103,94,748,665,4
368,614,439,343,4
499,598,74,157,4
508,750,515,809,4
226,51,535,589,4
12,365,275,831,4
264,65,831,796,4
127,9,163,288,4
136,91,35,208,4
75,67,369,480,4
25,43,634,597,4
101,200,368,295,4
49,54,252,273,4
672,416,190,421,4
331,277,410,291,4
866,957,223,410,4
1023,1023,755,317,4
394,487,135,0,4
436,515,22,163,4
101,254,38,157,4
108,167,161,180,4
90,180,109,269,4
254,109,39,75,4
145,110,694,480,4
12,139,236,382,4
356,17,951,1023,4
38,86,65,98,4
60,22,495,573,4
54,25,230,31,4
732,1023,76,332,4
907,1023,535,86,4
427,551,134,43,4
171,393,603,484,4
22,117,39,6,4
118,92,140,316,4
82,302,185,359,4
264,35,815,902,4
18,248,3,280,4
7,151,119,60,4
57,143,16,64,4
456,37,183,35,4
239,472,80,21,4
268,215,7,210,4
306,232,178,55,4
230,119,229,592,4
158,484,58,83,4
409,550,466,320,4
84,89,13,29,4
162,502,157,380,4
18,232,549,514,4
263,390,6,207,4
182,143,262,93,4
611,245,20,103,4
54,91,363,209,4
109,56,80,263,4
185,107,227,56,4
613,28,173,167,4
1,123,157,228,4
64,26,281,112,4
147,337,40,155,4
72,45,286,81,4
198,239,24,28,4
7,47,125,276,4
419,402,242,268,4
287,252,215,241,4
98,191,400,1023,4
32,55,161,14,4
245,173,288,93,4
447,61,572,637,4
79,106,255,102,4
4,6,71,320,4
18,186,518,558,4
6,37,311,205,4
311,538,20,514,4
408,199,466,359,4
892,876,807,435,4
201,81,104,238,4
163,38,888,776,4
200,529,43,224,4
555,487,210,6,4
89,189,115,43,4
302,129,280,329,4
354,90,328,326,4
81,156,244,341,4
344,56,2,20,4
136,30,10,284,4
58,72,32,77,4
73,195,720,800,4
359,292,20,12,4
37,194,690,811,4
108,189,229,419,4
132,129,615,682,4
195,500,113,95,4
56,36,350,600,4
144,129,140,264,4
228,393,194,14,4
278,221,277,78,4
112,152,103,161,4
232,274,314,461,4
83,206,13,176,4
183,106,561,747,4
4,19,42,225,4
226,44,198,585,4
116,104,67,116,4
390,568,302,249,4
904,734,346,268,4
123,171,207,97,4
186,119,568,544,4
9,176,72,257,4
198,320,853,557,4
298,358,326,732,4
270,286,574,496,4
378,109,185,302,4
796,300,520,703,4
1,71,443,556,4
327,15,584,693,4
59,88,429,769,4
3,155,14,25,4
335,127,78,0,4
231,277,16,107,4
20,129,170,21,4
92,315,97,47,4
550,738,2,336,4
165,29,116,291,4
214,109,467,363,4
283,188,124,160,4
110,88,30,222,4
357,34,124,227,4
111,111,267,3,4
63,16,254,242,4
56,46,233,120,4
46,97,247,531,4
94,74,56,205,4
34,79,26,7,4
71,320,4,180,4
248,392,544,371,4
95,146,230,326,4
549,741,457,206,4
211,15,241,247,4
57,19,42,54,4
123,356,81,427,4
100,244,44,163,4
85,23,378,455,4
498,180,333,861,4
45,143,53,395,4
103,191,4,50,4
449,208,121,601,4
43,16,27,13,4
206,71,54,343,4
111,52,326,75,4
146,25,121,103,4
86,16,322,291,4
241,452,605,690,4
110,202,51,228,4
16,81,638,572,4
4,187,180,127,4
210,40,318,513,4
64,343,478,440,4
97,66,1023,1023,4
207,111,328,37,4
152,89,1000,1023,4
487,69,310,450,4
211,67,254,272,4
199,5,55,23,4
250,50,427,127,4
103,60,36,91,4
151,106,114,394,4
165,97,34,362,4
2,172,7,332,4
63,53,11,140,4
320,512,391,584,4
45,8,170,114,4
40,94,616,610,4
257,41,104,392,4
218,86,603,354,4
88,188,114,104,4
79,164,499,632,4
77,37,39,155,4
38,109,233,315,4
202,20,42,28,4
296,120,23,248,4
173,273,2,23,4
139,179,235,407,4
223,302,701,1019,4
334,144,448,172,4
387,297,632,698,4
214,153,538,400,4
169,107,700,1023,4
358,427,349,72,4
25,88,346,558,4
372,540,307,573,4
198,37,35,374,4
276,275,57,180,4
68,172,92,492,4
435,131,297,707,4
221,30,169,72,4
98,21,931,1023,4
167,96,268,507,4
166,121,736,708,4
124,33,27,300,4
127,10,960,859,4
1,147,353,309,4
101,223,454,399,4
103,34,639,546,4
70,112,598,1023,4
140,9,276,232,4
223,35,415,463,4
28,42,324,503,4
14,27,394,149,4
290,192,163,281,4
211,212,658,399,4
50,74,119,476,4
30,10,199,491,4
14,6,394,612,4
160,92,27,148,4
94,52,406,863,4
259,64,710,629,4
258,162,474,673,4
9,52,443,291,4
58,206,454,569,4
288,322,81,39,4
40,317,193,1,4
49,151,135,75,4
20,81,155,59,4
8,270,411,395,4
40,398,2,336,4
34,148,61,5,4
480,536,365,678,4
227,345,587,526,4
175,235,919,916,4
23,63,24,217,4
25,443,572,964,4
248,373,939,1023,4
72,447,6,8,4
496,11,140,377,4
256,110,132,0,4
40,198,114,401,4
153,144,44,83,4
4,13,24,65,4
56,8,596,1023,4
15,105,259,73,4
6,137,1003,940,4
80,339,521,477,4
177,55,1023,1023,4
78,125,205,465,4
130,163,135,6,4
92,342,287,204,4
892,429,439,873,4
27,422,5,233,4
313,75,182,22,4
328,132,201,146,4
83,11,468,748,4
389,251,233,357,4
139,271,335,601,4
30,62,185,295,4
155,238,115,24,4
209,29,138,66,4
142,313,26,138,4
115,184,71,45,4
38,407,258,546,4
95,221,95,117,4
126,59,570,957,4
33,252,254,65,4
558,15,455,375,4
488,213,300,346,4
302,7,333,186,4
610,151,340,615,4
75,21,149,158,4
306,52,768,1023,4
32,341,71,2,4
161,62,842,1023,4
216,140,83,37,4
136,59,289,315,4
190,221,584,700,4
189,279,334,361,4
23,254,464,604,4
113,239,680,982,4
199,267,19,126,4
45,9,222,155,4
74,11,129,479,4
152,19,151,315,4
75,31,344,652,4
166,28,146,203,4
235,303,257,319,4
399,351,484,333,4
218,167,296,295,4
361,190,279,19,4
140,46,65,146,4
258,43,499,1020,4
126,97,177,157,4
261,8,952,1023,4
65,143,959,1023,4
96,252,571,771,4
3,172,1023,1023,4
24,150,489,551,4
74,6,1023,1023,4
170,61,91,344,4
23,296,1023,1023,4
221,40,350,21,4
149,321,724,678,4
39,186,110,260,4
208,60,394,468,4
254,391,265,729,4
776,394,571,1023,4
180,59,593,1023,4
113,338,228,743,4
436,430,38,218,4
112,112,48,24,4
201,63,46,38,4
28,162,24,130,4
175,49,106,174,4
266,85,235,504,4
141,12,76,154,4
147,113,150,135,4
65,99,51,0,4
0,75,3,122,4
30,108,779,1023,4
97,261,315,283,4
420,664,831,1023,4
31,103,133,44,4
99,191,284,65,4
82,104,175,14,4
67,160,199,244,4
24,155,112,155,4
77,114,262,396,4
81,26,25,136,4
40,81,15,25,4
10,29,302,333,4
21,121,258,178,4
13,62,262,300,4
129,74,126,18,4
54,37,12,181,4
121,24,371,502,4
23,183,1023,1007,4
18,149,1014,1023,4
47,77,1023,973,4
179,97,367,669,4
71,63,542,502,4
44,90,691,779,4
366,81,844,1023,4
90,54,49,296,4
0,140,403,469,4
7,73,226,90,4
228,63,370,866,4
13,350,506,338,4
77,37,561,633,4
13,225,273,301,4
30,315,544,559,4
123,293,449,395,4
191,523,164,66,4
258,269,190,234,4
692,724,377,68,4
202,355,388,467,4
234,324,391,875,4
183,238,250,513,4
8,192,315,273,4
476,146,717,933,4
123,41,752,1023,4
379,42,600,473,4
40,193,527,826,4
274,150,191,101,4
121,54,534,501,4
346,62,93,81,4
334,272,679,882,4
440,74,36,96,4
283,254,419,835,4
152,60,15,31,4
307,117,448,620,4
57,147,13,2,4
113,36,583,856,4
348,148,228,365,4
213,141,525,545,4
139,278,592,489,4
535,230,35,171,4
476,205,395,592,4
89,119,274,212,4
203,152,109,77,4
102,6,142,212,4
7,53,49,30,4
0,35,177,163,4
120,118,6,70,4
55,93,11,164,4
110,265,34,130,4
464,221,177,441,4
172,6,70,167,4
3,104,23,27,4
59,192,67,88,4
31,164,30,0,4
6,197,18,173,4
73,9,14,28,4
140,124,99,231,4
20,47,68,58,4
122,8,73,0,4
46,6,147,124,4
132,142,249,241,4
161,208,119,102,4
81,217,117,217,4
213,162,255,325,4
185,189,126,106,4
34,142,254,523,4
64,175,165,0,4
86,330,497,591,4
103,61,138,40,4
36,38,224,308,4
99,80,92,149,4
202,124,162,11,4
200,212,43,81,4
43,169,127,235,4
294,118,339,445,4
9,68,147,271,4
40,14,285,466,4
102,210,149,268,4
205,121,202,309,4
123,398,10,38,4
11,12,278,398,4
143,7,395,354,4
140,181,319,429,4
70,56,44,9,4
132,57,88,35,4
17,15,39,110,4
9,38,185,156,4
38,268,200,285,4
98,18,56,0,4
12,64,109,60,4
25,186,54,193,4
23,5,193,338,4
54,174,184,350,4
158,191,11,270,4
175,150,376,361,4
99,196,234,187,4
50,65,162,317,4
2,109,600,574,4
617,698,449,471,4
203,173,138,93,4
139,25,586,510,4
114,11,118,9,4
50,109,430,350,4
65,81,5,115,4
34,153,197,288,4
289,247,177,683,4
54,50,366,210,4
163,31,70,289,4
7,133,224,265,4
103,117,305,451,4
111,40,43,135,4
26,32,178,231,4
137,79,117,114,4
0,195,409,323,4
26,91,171,97,4
0,49,174,180,4
64,91,180,166,4
238,184,427,507,4
26,252,100,133,4
58,136,100,24,4
351,52,327,551,4
73,25,175,131,4
182,133,292,344,4
115,162,315,384,4
6,34,238,0,4
159,28,274,332,4
57,21,180,314,4
63,299,169,24,4
25,15,415,639,4
132,104,210,60,4
76,146,223,405,4
5,73,273,306,4
42,68,234,69,4
41,121,17,51,4
133,6,291,356,4
2,105,204,75,4
259,272,359,205,4
15,115,211,288,4
1,120,61,68,4
73,61,181,244,4
90,98,284,289,4
10,60,127,5,4
23,93,413,391,4
60,149,124,84,4
43,84,168,39,4
251,138,52,12,4
8,32,210,252,4
16,67,167,101,4
58,71,132,8,4
52,43,63,139,4
111,188,200,228,4
100,7,77,0,4
14,39,36,0,4
132,144,14,138,4
157,406,99,0,4
44,199,253,311,4
71,16,87,51,4
68,44,33,41,4
70,203,31,186,4
47,24,315,249,4
37,165,47,158,4
106,149,324,205,4
45,47,58,77,4
38,72,307,293,4
55,184,271,321,4
245,111,115,237,4
0,85,110,316,4
42,46,173,137,4
109,233,98,0,4
24,32,219,161,4
172,160,38,116,4
5,112,19,37,4
242,253,21,35,4
5,68,188,259,4
260,407,45,22,4
87,188,254,330,4
3,10,84,93,4
39,62,141,32,4
17,20,76,68,4
11,172,95,2,4
70,87,295,237,4
75,160,87,27,4
15,87,91,10,4
12,58,174,150,4
4,30,290,179,4
124,76,340,458,4
66,218,50,62,4
7,129,98,129,4
107,36,18,156,4
21,11,377,141,4
210,210,76,56,4
169,16,120,84,4
8,25,187,317,4
65,91,376,87,4
5,83,114,233,4
17,84,112,7,4
62,95,47,34,4
23,63,297,108,4
237,115,46,8,4
196,98,313,254,4
36,68,22,85,4
86,24,471,294,4
10,126,57,0,4
87,32,99,89,4
18,78,43,16,4
72,121,3,73,4
18,5,307,526,4
52,26,226,85,4
106,17,463,521,4
25,151,297,298,4
25,60,126,149,4
109,270,247,242,4
123,141,269,63,4
28,22,9,34,4
245,160,81,20,4
185,183,6,68,4
52,19,68,61,4
45,8,129,176,4
125,6,251,332,4
10,11,13,79,4
71,159,42,208,4
159,49,128,69,4
47,71,49,239,4
9,14,28,42,4
146,8,73,0,4
28,33,171,165,4
46,135,425,352,4
145,101,112,47,4
60,60,447,335,4
67,28,14,3,4
271,197,112,150,4
85,43,15,13,4
225,211,79,11,4
246,121,273,398,4
47,60,138,247,4
18,15,183,303,4
66,71,127,280,4
16,100,66,120,4
94,40,146,112,4
21,64,36,22,4
133,135,96,0,4
127,23,213,290,4
26,140,126,77,4
66,17,213,279,4
23,50,198,208,4
96,156,11,0,4
182,253,201,151,4
58,29,205,87,4
55,98,181,205,4
49,71,330,299,4
81,28,46,24,4
27,52,58,203,4
67,39,49,0,4
45,153,54,100,4
4,146,61,71,4
81,76,40,12,4
44,67,24,10,4
36,48,25,42,4
83,34,56,30,4
162,189,157,312,4
161,150,110,123,4
82,123,238,54,4
26,170,92,77,4
65,144,293,60,4
183,52,297,198,4
68,97,27,31,4
8,153,223,152,4
97,137,75,140,4
60,10,188,117,4
50,167,88,36,4
3,32,235,57,4
93,172,125,98,4
58,23,246,224,4
13,133,143,118,4
54,155,199,427,4
2,60,190,140,4
37,85,83,213,4
139,166,131,135,4
26,52,130,119,4
126,56,452,415,4
58,33,130,29,4
147,148,107,103,4
7,17,60,25,4
92,36,211,239,4
165,111,245,259,4
7,61,101,181,4
140,142,121,77,4
9,121,190,0,4
175,107,136,173,4
152,131,296,180,4
114,91,462,330,4
49,135,72,0,4
159,175,354,253,4
13,47,253,25,4
224,269,144,47,4
94,196,101,85,4
99,6,520,172,4
13,8,167,193,4
92,112,157,228,4
236,71,151,157,4
133,151,362,252,4
138,199,186,0,4
83,46,322,296,4
64,55,307,267,4
203,280,2,13,4
153,131,236,81,4
14,60,32,37,4
28,74,201,186,4
143,161,314,403,4
176,31,347,370,4
146,106,102,374,4
234,237,536,498,4
222,228,438,155,4
139,110,540,651,4
42,98,448,36,4
5,241,403,292,4
212,110,48,0,4
166,273,76,47,4
161,399,208,93,4
117,121,6,48,4
88,267,357,561,4
28,99,377,138,4
204,38,246,146,4
42,271,443,474,4
315,256,534,313,4
117,170,20,13,4
241,122,38,204,4
7,238,449,217,4
482,508,117,266,4
407,361,323,19,4
62,140,8,103,4
3,201,279,167,4
69,115,116,145,4
237,74,575,389,4
279,50,185,474,4
81,19,567,592,4
295,216,11,280,4
28,64,550,720,4
73,115,489,440,4
40,133,458,587,4
265,121,357,444,4
1,44,42,244,4
302,345,80,80,4
232,325,213,208,4
141,94,2,245,4
52,66,417,558,4
214,162,630,338,4
158,68,251,340,4
89,67,411,497,4
402,312,293,293,4
60,125,115,146,4
7,14,353,533,4
16,180,103,274,4
113,201,101,91,4
7,44,82,42,4
147,226,308,618,4
125,242,652,642,4
215,29,499,203,4
130,262,179,366,4
35,166,360,86,4
120,516,279,209,4
411,68,170,461,4
212,112,758,1023,4
86,47,448,363,4
324,65,152,448,4
109,184,433,548,4
286,228,522,637,4
203,21,734,800,4
268,386,654,616,4
184,265,590,583,4
33,31,754,836,4
275,342,438,320,4
55,206,672,506,4
191,107,404,255,4
23,135,1023,1023,4
198,193,262,187,4
17,39,644,744,4
402,198,808,540,4
25,226,701,1022,4
492,28,844,573,4
90,172,408,517,4
85,169,578,519,4
193,104,97,44,4
7,116,211,324,4
271,314,188,301,4
41,281,102,382,4
194,473,436,632,4
352,47,423,269,4
186,324,132,114,4
253,432,77,3,4
322,372,179,246,4
218,157,31,190,4
40,29,322,363,4
63,74,42,6,4
250,235,38,148,4
309,289,5,0,4
4,14,265,264,4
417,239,32,149,4
0,41,608,544,4
97,121,195,211,4
58,238,165,245,4
157,101,58,111,4
160,272,152,269,4
48,156,63,49,4
34,257,345,571,4
84,29,540,401,4
7,66,554,840,4
5,163,704,725,4
77,273,311,446,4
3,235,998,1023,4
267,33,108,269,4
18,183,777,779,4
149,38,774,787,4
395,337,386,262,4
183,453,136,322,4
236,251,434,358,4
406,471,119,520,4
47,393,494,593,4
68,124,161,52,4
117,237,523,442,4
195,89,174,212,4
213,77,885,827,4
349,315,63,3,4
417,418,899,1023,4
408,200,292,237,4
204,72,68,51,4
148,158,229,215,4
196,352,36,157,4
114,107,5,52,4
81,22,343,183,4
114,14,11,183,4
0,129,423,459,4
155,122,452,358,4
50,17,31,81,4
39,19,14,204,4
201,20,118,181,4
33,16,51,54,4
82,140,118,232,4
70,74,332,345,4
47,21,413,409,4
45,30,230,476,4
147,134,126,98,4
62,100,32,18,4
45,91,357,139,4
204,105,502,713,4
72,7,408,604,4
509,393,21,44,4
247,452,1,340,4
282,45,72,0,4
10,50,209,164,4
150,95,408,232,4
328,212,105,3,4
207,123,287,162,4
203,44,23,40,4
148,15,172,246,4
10,185,110,190,4
7,109,298,161,4
84,137,476,435,4
43,163,474,501,4
204,105,193,64,4
345,356,285,183,4
525,375,486,76,4
25,36,356,411,4
141,371,88,27,4
169,9,415,261,4
77,124,19,0,4
255,37,751,808,4
54,99,313,160,4
2,204,512,619,4
148,36,634,652,4
131,172,234,245,4
314,201,439,555,4
30,88,105,124,4
245,336,432,233,4
89,176,199,327,4
179,159,231,26,4
170,234,219,103,4
92,14,504,442,4
21,215,110,0,4
4,47,48,191,4
160,460,47,76,4
130,334,149,154,4
169,263,212,196,4
267,246,181,88,4
338,259,21,286,4
113,36,321,370,4
47,136,431,337,4
279,337,145,296,4
298,15,199,288,4
28,76,61,198,4
138,284,171,161,4
188,325,99,348,4
27,217,21,57,4
15,53,264,378,4
385,362,153,0,4
194,313,206,471,4
440,290,102,45,4
164,291,602,629,4
236,363,101,158,4
67,76,654,519,4
27,103,357,202,4
62,22,422,430,4
21,62,169,161,4
87,16,121,18,4
312,115,266,108,4
62,69,284,87,4
189,223,189,214,4
430,266,463,326,4
84,360,299,195,4
87,174,327,273,4
199,228,412,165,4
54,291,103,308,4
319,300,358,336,4
161,103,127,69,4
94,7,485,648,4
360,255,34,17,4
347,15,356,195,4
240,7,408,603,4
33,382,412,0,4
249,66,696,856,4
182,49,566,451,4
250,481,9,114,4
415,223,331,440,4
286,269,221,95,4
127,259,15,336,4
195,324,18,95,4
73,74,53,243,4
260,409,112,27,4
486,512,334,396,4
19,129,57,54,4
128,215,212,387,4
38,99,13,29,4
171,133,114,0,4
121,71,210,142,4
87,142,251,313,4
171,113,352,335,4
135,51,290,324,4
153,212,66,28,4
140,396,345,569,4
572,643,222,189,4
167,24,199,0,4
30,39,54,233,4
147,274,498,132,4
55,196,24,24,4
130,8,122,13,4
74,80,95,11,4
249,190,28,220,4
135,240,310,402,4
104,204,367,603,4
217,68,84,278,4
328,261,553,608,4
178,175,243,235,4
12,164,309,346,4
146,139,229,422,4
325,341,742,879,4
188,275,375,249,4
67,39,345,566,4
57,80,125,192,4
187,359,75,69,4
11,80,148,177,4
261,134,829,868,4
265,53,88,104,4
72,27,252,487,4
40,7,615,838,4
79,125,189,217,4
86,89,120,254,4
146,112,518,640,4
228,461,623,349,4
240,164,246,454,4
120,549,902,875,4
450,103,443,499,4
75,234,404,629,4
97,94,12,199,4
97,105,250,200,4
34,117,185,109,4
407,447,1023,1023,4
282,133,558,108,4
85,369,356,251,4
390,71,267,639,4
83,82,266,8,4
159,140,418,972,4
161,46,414,552,4
218,53,250,125,4
217,128,347,146,4
103,304,245,183,4
209,7,621,797,4
268,221,651,693,4
295,486,445,414,4
716,576,85,284,4
130,100,156,454,4
98,11,203,241,4
63,52,334,114,4
