Ch1,Ch2,Ch3,Ch4,label
1,6,27,1,1
1,6,45,3,1
0,6,41,37,1
1,6,16,8,1
1,6,196,174,1
1,6,61,14,1
1,6,33,15,1
1,6,29,22,1
1,6,186,105,1
1,6,66,51,1
1,6,2,0,1
0,6,114,0,1
1,6,72,0,1
0,6,22,103,1
0,6,82,118,1
1,6,111,39,1
1,6,78,81,1
1,6,172,143,1
1,6,125,56,1
1,6,22,0,1
1,6,124,0,1
1,6,201,308,1
0,6,138,1,1
1,6,163,140,1
0,6,47,77,1
1,6,124,31,1
0,6,60,115,1
1,6,1,37,1
1,6,23,38,1
1,6,85,44,1
1,6,123,104,1
1,6,109,37,1
1,6,26,85,1
1,6,79,12,1
0,6,72,0,1
1,6,2,0,1
0,6,108,83,1
0,6,59,33,1
1,7,94,9,1
1,6,71,128,1
0,6,88,69,1
1,6,75,115,1
1,6,204,75,1
0,6,39,24,1
1,6,75,86,1
0,6,158,27,1
0,6,119,156,1
1,6,18,5,1
0,6,123,164,1
1,6,26,0,1
1,6,65,0,1
1,6,123,54,1
1,6,227,114,1
1,6,179,157,1
1,6,1,76,1
0,6,130,126,1
0,6,79,28,1
1,6,85,15,1
1,6,118,12,1
1,6,47,0,1
1,6,47,45,1
1,6,28,14,1
1,7,97,50,1
1,6,67,0,1
1,6,270,75,1
0,6,168,316,1
1,6,7,0,1
1,6,314,310,1
0,6,167,133,1
1,6,38,0,1
1,6,137,148,1
0,6,101,107,1
1,6,138,3,1
0,6,12,289,1
0,6,83,121,1
0,6,114,164,1
0,6,51,67,1
0,6,3,116,1
0,6,30,215,1
0,6,125,80,1
1,6,32,23,1
0,6,108,26,1
1,6,34,30,1
1,6,116,23,1
1,6,72,140,1
1,6,139,102,1
0,6,80,39,1
0,6,62,45,1
0,6,288,226,1
1,6,36,62,1
1,6,180,139,1
0,6,355,341,1
0,6,86,40,1
1,6,356,248,1
0,6,148,146,1
1,6,184,23,1
0,6,204,139,1
0,6,48,39,1
1,6,198,43,1
1,7,451,428,1
1,6,123,48,1
1,6,553,342,1
0,6,123,231,1
1,6,73,22,1
1,6,42,7,1
1,6,246,254,1
1,6,335,86,1
0,6,82,0,1
1,6,168,42,1
1,6,219,101,1
1,6,22,124,1
0,6,203,93,1
1,7,459,606,1
0,6,203,162,1
0,6,26,0,1
1,6,252,469,1
1,6,201,147,1
1,6,230,102,1
0,6,95,98,1
0,6,173,295,1
1,6,347,248,1
0,6,6,0,1
0,7,249,323,1
1,6,189,6,1
1,6,478,105,1
0,6,327,479,1
0,6,446,322,1
0,6,207,130,1
1,6,518,451,1
0,6,140,164,1
1,6,114,13,1
1,6,263,89,1
1,6,76,25,1
1,6,349,289,1
0,6,438,106,1
0,6,370,194,1
1,6,88,150,1
1,7,468,118,1
0,6,78,376,1
1,7,977,37,1
0,6,279,93,1
1,7,890,219,1
0,6,168,601,1
0,6,682,581,1
0,6,232,21,1
0,6,318,746,1
0,6,147,0,1
0,6,269,133,1
1,6,450,490,1
0,6,118,347,1
0,6,347,380,1
0,6,39,71,1
1,6,299,142,1
0,6,35,236,1
1,6,284,150,1
0,6,404,114,1
0,6,303,251,1
0,6,149,70,1
1,6,385,267,1
0,6,401,395,1
0,6,103,615,1
0,6,308,505,1
0,6,168,643,1
0,7,541,745,1
1,6,264,100,1
1,6,581,128,1
0,6,299,46,1
1,6,95,141,1
0,6,128,225,1
1,6,92,476,1
0,6,31,355,1
1,6,527,522,1
0,6,278,501,1
0,6,314,556,1
0,7,572,800,1
0,6,309,605,1
0,6,170,187,1
0,6,153,102,1
0,6,48,172,1
0,6,230,325,1
1,6,359,78,1
1,7,193,991,1
0,6,10,181,1
1,6,164,516,1
0,6,273,307,1
1,6,96,35,1
1,6,82,565,1
1,7,840,574,1
0,6,35,211,1
1,7,766,376,1
0,6,415,531,1
0,6,81,444,1
0,6,277,144,1
1,6,782,53,1
0,6,82,527,1
606,609,928,1023,1
94,100,327,355,1
11,18,588,758,1
0,5,61,866,1
0,6,141,461,1
0,6,227,277,1
1,6,364,80,1
52,55,1023,493,1
3,8,235,126,1
0,5,175,278,1
0,6,645,261,1
0,6,419,337,1
0,6,247,632,1
1,7,866,948,1
444,442,1023,708,1
141,146,631,88,1
65,71,1023,823,1
40,45,701,272,1
3,9,248,54,1
0,5,88,441,1
1,7,574,352,1
0,6,129,0,1
1,6,420,281,1
1,6,127,407,1
1,7,599,0,1
0,7,98,496,1
603,608,1023,931,1
81,87,378,316,1
468,469,212,1023,1
132,138,119,205,1
19,25,511,38,1
0,5,163,261,1
0,6,72,485,1
1,6,321,38,1
1,7,731,480,1
0,6,33,388,1
1,7,682,910,1
0,6,351,297,1
1,6,551,156,1
0,6,554,63,1
1,6,64,47,1
1,6,284,479,1
0,6,308,384,1
1,6,240,50,1
1,7,960,647,1
0,6,911,349,1
0,6,37,439,1
1,6,298,108,1
1,7,923,652,1
624,626,1023,971,1
109,114,709,338,1
15,21,435,405,1
0,5,246,545,1
0,6,334,361,1
0,6,203,676,1
171,176,713,42,1
45,51,813,208,1
386,369,515,1023,1
58,63,955,1023,1
34,40,223,255,1
31,39,846,483,1
77,82,598,13,1
8,13,143,568,1
0,5,366,343,1
0,6,154,262,1
1,6,410,157,1
1,6,10,267,1
1,6,162,544,1
1,6,374,59,1
601,603,368,1023,1
77,82,599,384,1
9,15,298,68,1
0,5,848,590,1
0,6,364,633,1
1,6,756,165,1
1,6,122,8,1
1,7,923,340,1
1,6,548,109,1
1,7,638,641,1
0,6,391,144,1
1,6,161,426,1
1,7,807,567,1
81,89,1023,1023,1
782,795,1023,1023,1
809,812,304,263,1
665,665,1023,1023,1
348,326,1023,358,1
315,319,285,150,1
62,69,6,429,1
4,10,412,255,1
0,6,902,376,1
1,6,131,293,1
486,487,1023,889,1
158,163,1006,461,1
173,178,681,605,1
34,39,394,63,1
0,5,921,759,1
0,5,476,218,1
1,6,181,154,1
1,7,38,141,1
1,6,30,110,1
1,6,138,86,1
1,6,22,136,1
1,6,69,379,1
1,7,525,499,1
0,6,237,229,1
1,6,223,39,1
0,6,70,232,1
1,6,162,101,1
1,6,299,134,1
1,6,5,213,1
0,6,223,205,1
1,6,206,0,1
1,6,213,62,1
0,6,392,173,1
1,6,264,160,1
1,6,142,227,1
0,6,21,355,1
1,6,33,513,1
0,6,17,218,1
0,6,347,518,1
0,6,15,265,1
1,6,463,307,1
0,6,54,267,1
1,6,4,144,1
0,6,55,143,1
1,6,100,148,1
1,6,122,141,1
1,6,597,309,1
0,6,108,55,1
1,7,341,245,1
1,6,1,257,1
1,6,30,8,1
1,6,6,110,1
1,6,73,0,1
1,7,210,288,1
1,6,56,0,1
0,6,163,156,1
1,6,247,43,1
1,6,19,118,1
1,6,2,0,1
0,6,148,44,1
1,6,145,150,1
0,6,181,305,1
1,6,310,25,1
1,6,267,116,1
1,6,79,7,1
0,6,195,109,1
1,6,165,244,1
1,6,60,191,1
0,6,73,27,1
1,6,9,7,1
0,6,178,242,1
0,6,28,17,1
1,6,17,191,1
1,6,87,2,1
1,6,285,140,1
1,6,214,165,1
1,6,666,242,1
0,6,174,62,1
0,6,3,14,1
0,6,194,128,1
0,6,95,28,1
1,6,197,30,1
1,6,8,0,1
0,6,309,8,1
0,6,151,70,1
1,6,65,56,1
1,6,55,79,1
1,6,88,55,1
0,6,319,220,1
0,6,25,242,1
1,6,343,274,1
1,6,9,45,1
1,6,63,116,1
0,6,227,169,1
0,6,104,113,1
0,6,79,39,1
0,6,5,37,1
0,6,205,155,1
0,6,191,236,1
1,6,43,133,1
1,6,251,107,1
0,6,157,69,1
0,6,51,0,1
1,6,183,89,1
1,6,135,51,1
1,6,5,325,1
1,6,240,186,1
1,6,172,149,1
1,6,18,230,1
1,6,139,12,1
0,6,428,511,1
0,6,138,126,1
1,7,105,362,1
0,6,53,242,1
0,7,264,612,1
0,6,59,121,1
1,6,255,167,1
0,6,37,24,1
1,6,272,4,1
1,6,489,463,1
0,6,373,282,1
1,6,628,376,1
0,6,178,563,1
1,6,472,545,1
1,6,23,42,1
0,6,383,348,1
1,6,288,148,1
1,6,145,53,1
1,6,138,44,1
0,6,65,134,1
1,6,9,57,1
0,6,5,52,1
1,7,252,324,1
1,6,146,79,1
1,6,409,456,1
1,6,202,68,1
0,6,200,345,1
1,7,591,248,1
0,6,280,267,1
1,7,890,599,1
0,6,13,213,1
0,6,331,301,1
0,6,54,55,1
1,6,71,68,1
1,6,168,66,1
0,6,11,105,1
1,6,92,168,1
0,6,122,7,1
1,6,60,262,1
0,6,212,222,1
0,6,510,552,1
0,6,15,28,1
0,6,722,430,1
0,6,64,254,1
0,6,508,354,1
1,6,375,308,1
0,6,38,27,1
1,6,106,0,1
1,6,570,358,1
0,6,92,10,1
1,6,298,252,1
1,6,185,63,1
1,6,215,103,1
1,6,180,110,1
1,6,84,157,1
0,6,217,261,1
1,6,209,170,1
0,6,123,0,1
1,7,77,302,1
0,6,265,468,1
0,6,20,15,1
0,6,204,239,1
1,6,331,432,1
0,6,250,160,1
0,6,1,230,1
1,6,158,0,1
1,6,123,109,1
0,6,101,109,1
1,6,21,114,1
0,7,203,336,1
0,6,217,27,1
1,6,129,24,1
0,6,16,95,1
1,6,468,509,1
0,6,175,100,1
0,6,411,191,1
1,6,585,670,1
0,5,182,310,1
0,6,372,170,1
0,6,292,317,1
0,6,96,183,1
0,6,395,221,1
0,6,187,159,1
0,6,138,72,1
1,6,148,60,1
0,6,111,217,1
0,6,57,179,1
0,6,77,187,1
1,6,287,408,1
0,6,139,184,1
1,6,172,141,1
0,6,77,54,1
0,6,23,38,1
1,6,341,234,1
1,6,263,116,1
1,6,274,123,1
1,6,304,178,1
0,6,103,0,1
1,6,126,196,1
0,6,36,5,1
0,6,227,119,1
0,6,178,342,1
1,6,62,425,1
0,6,243,382,1
0,6,12,73,1
0,6,375,335,1
1,6,10,109,1
1,6,6,25,1
0,6,315,62,1
1,6,8,12,1
1,6,193,83,1
0,6,33,26,1
1,6,6,41,1
1,6,31,52,1
0,6,114,152,1
0,6,144,141,1
1,6,105,0,1
1,6,203,89,1
0,6,3,214,1
0,6,115,103,1
0,6,93,78,1
0,7,272,144,1
1,6,322,296,1
1,6,259,244,1
0,6,8,68,1
0,6,209,210,1
0,6,165,177,1
1,6,103,44,1
1,6,45,43,1
1,6,45,7,1
1,6,57,101,1
1,6,273,131,1
1,6,38,0,1
1,6,72,48,1
1,6,168,278,1
0,6,94,109,1
1,6,2,11,1
1,6,47,2,1
1,6,110,46,1
0,6,3,87,1
0,6,15,4,1
1,6,40,60,1
1,6,59,65,1
0,6,40,15,1
1,6,21,91,1
1,6,35,0,1
1,6,50,25,1
1,6,49,22,1
0,6,141,163,1
1,6,68,195,1
0,6,84,106,1
1,6,172,154,1
0,6,14,120,1
1,6,398,127,1
0,6,236,240,1
0,6,299,0,1
0,6,302,173,1
1,6,43,213,1
1,6,3,26,1
0,6,117,117,1
0,6,105,39,1
1,6,102,3,1
0,6,4,151,1
1,6,47,0,1
1,6,144,185,1
0,6,153,119,1
1,6,120,114,1
1,6,259,195,1
0,6,108,133,1
1,6,43,6,1
0,6,36,146,1
1,6,6,54,1
1,6,7,50,1
1,6,225,77,1
0,6,215,297,1
1,6,161,0,1
0,6,115,97,1
1,6,4,0,1
1,6,173,70,1
1,6,238,103,1
1,6,167,78,1
1,6,201,35,1
1,6,150,45,1
1,6,226,155,1
1,6,36,286,1
0,6,199,176,1
1,6,414,403,1
0,6,277,328,1
1,6,104,98,1
0,6,286,160,1
0,6,477,269,1
0,6,63,242,1
0,6,152,99,1
1,6,14,100,1
1,6,154,17,1
1,6,235,298,1
1,6,170,157,1
0,6,281,219,1
0,6,5,205,1
1,6,89,47,1
1,7,644,558,1
0,6,9,32,1
0,6,236,399,1
0,6,32,49,1
1,6,249,138,1
0,6,288,520,1
1,6,10,6,1
0,6,120,224,1
1,6,80,66,1
1,6,471,154,1
0,7,516,678,1
0,6,65,2,1
0,6,540,356,1
0,6,203,287,1
0,6,314,381,1
0,6,150,315,1
0,6,334,182,1
0,6,287,465,1
1,6,788,103,1
0,6,9,435,1
0,6,812,412,1
0,6,485,318,1
0,6,824,266,1
0,6,197,446,1
0,6,678,397,1
0,6,765,412,1
0,6,464,188,1
1,7,1023,167,1
0,6,382,129,1
0,6,504,397,1
0,6,17,202,1
1,7,815,699,1
0,6,315,223,1
1,6,459,216,1
1,6,360,356,1
0,6,14,32,1
1,6,505,137,1
175,181,500,815,1
55,61,514,472,1
4,9,745,336,1
0,5,590,201,1
0,6,223,391,1
1,6,136,108,1
603,606,949,1023,1
87,92,75,125,1
11,17,421,295,1
0,5,32,232,1
163,169,450,436,1
45,51,864,813,1
3,9,471,514,1
0,5,239,121,1
1,6,416,388,1
1,6,325,217,1
0,6,17,374,1
1,6,437,77,1
1,6,78,218,1
713,735,956,287,1
210,219,1023,984,1
233,248,1023,517,1
856,853,1023,1023,1
334,339,422,756,1
67,73,236,208,1
4,10,454,540,1
0,5,514,522,1
106,113,392,301,1
50,55,574,318,1
549,553,782,1023,1
291,295,554,289,1
96,89,1023,980,1
169,175,793,352,1
26,32,502,153,1
0,5,683,274,1
0,6,503,476,1
1,7,130,376,1
20,26,522,628,1
7,12,310,236,1
0,5,709,419,1
1023,1023,1023,1023,1
541,544,478,404,1
732,731,1023,1023,1
788,790,826,856,1
187,193,755,977,1
28,34,560,597,1
0,5,493,120,1
0,6,385,458,1
1,7,251,432,1
1,7,349,756,1
1,6,656,246,1
558,557,758,1023,1
71,76,694,135,1
8,14,276,0,1
0,5,535,210,1
0,6,344,716,1
1,7,388,838,1
1,6,343,79,1
1,6,133,46,1
0,6,294,322,1
1,6,175,23,1
1,6,126,106,1
1,6,235,184,1
1,7,604,121,1
2,8,621,1023,1
39,44,515,81,1
575,579,114,1023,1
221,226,832,436,1
44,50,289,77,1
110,98,1023,828,1
132,137,355,123,1
18,24,168,3,1
0,5,106,450,1
0,7,481,534,1
1,7,800,958,1
0,6,486,289,1
0,6,25,335,1
1,7,757,976,1
1,7,740,865,1
260,264,55,23,1
66,71,710,691,1
6,12,280,136,1
0,5,562,14,1
0,6,143,55,1
1,7,721,524,1
0,6,100,56,1
1,6,744,13,1
0,6,103,330,1
1,6,425,419,1
0,6,3,312,1
6,12,817,1023,1
1,6,611,907,1
1,6,193,47,1
1,7,825,503,1
0,6,285,197,1
1,6,771,723,1
0,6,362,142,1
5,14,861,1023,1
31,37,54,0,1
583,588,1023,855,1
135,155,1023,1023,1
400,404,814,488,1
98,104,531,648,1
11,17,21,188,1
0,5,880,231,1
1,7,828,536,1
1,6,36,69,1
1,6,74,153,1
1,6,215,237,1
1,6,627,433,1
1,6,437,11,1
1,6,71,0,1
0,6,141,90,1
1,6,163,53,1
0,7,562,328,1
0,6,233,129,1
1,7,943,949,1
0,6,282,86,1
1,7,943,289,1
1,6,86,73,1
1,6,148,164,1
0,6,128,302,1
1,6,118,225,1
1,6,266,10,1
1,6,483,123,1
0,6,139,376,1
0,5,178,0,1
0,6,32,40,1
1,6,357,328,1
1,6,208,0,1
1,6,290,165,1
1,6,522,16,1
0,6,106,354,1
1,6,53,11,1
1,6,512,427,1
0,6,66,9,1
0,6,321,222,1
0,6,298,280,1
0,6,16,4,1
1,6,479,290,1
1,6,233,75,1
0,6,303,545,1
1,6,53,395,1
0,6,331,300,1
0,6,279,457,1
1,7,226,669,1
0,6,270,281,1
0,6,12,162,1
1,6,420,94,1
1,6,3,120,1
0,6,238,188,1
1,6,112,54,1
1,6,66,83,1
1,6,70,0,1
1,6,97,229,1
1,6,302,315,1
0,6,24,304,1
1,6,101,265,1
1,6,184,219,1
1,6,266,156,1
1,6,243,154,1
1,6,49,0,1
1,6,117,118,1
1,6,172,124,1
1,6,171,67,1
1,6,67,0,1
1,6,87,101,1
0,6,98,371,1
1,6,171,154,1
0,6,33,277,1
0,6,198,321,1
1,6,286,317,1
0,6,117,9,1
0,6,294,446,1
1,7,583,628,1
1,6,574,515,1
0,6,103,95,1
0,6,555,475,1
1,6,31,0,1
1,6,26,102,1
1,6,272,209,1
1,6,109,62,1
0,6,168,183,1
0,6,111,146,1
1,7,61,546,1
1,6,240,554,1
1,6,155,171,1
0,6,7,450,1
1,7,361,825,1
0,6,300,445,1
0,6,98,267,1
0,6,162,43,1
1,6,20,8,1
1,6,282,174,1
0,6,210,9,1
1,6,247,12,1
1,6,153,35,1
0,6,98,83,1
1,6,58,281,1
1,6,50,326,1
1,6,54,1,1
1,6,36,83,1
0,6,238,15,1
1,6,196,163,1
0,6,154,90,1
1,6,372,104,1
0,6,266,287,1
0,6,257,620,1
71,76,53,273,1
10,16,437,502,1
0,5,270,222,1
0,6,13,373,1
0,6,58,131,1
1,6,123,14,1
1,6,12,20,1
1,6,169,62,1
1,7,112,165,1
1,6,29,64,1
1,6,117,113,1
1,6,13,135,1
1,6,365,542,1
1,6,119,22,1
1,7,490,628,1
0,6,277,84,1
1,6,250,72,1
1,6,82,197,1
1,6,82,44,1
0,6,72,204,1
1,6,8,20,1
0,6,276,0,1
0,6,25,88,1
1,7,575,324,1
1,6,72,12,1
1,6,199,52,1
1,6,10,0,1
0,6,57,34,1
1,6,10,69,1
1,6,89,0,1
0,7,227,807,1
0,6,54,14,1
0,6,285,101,1
1,6,152,197,1
0,6,614,277,1
0,6,73,15,1
1,6,150,224,1
0,6,364,232,1
0,6,50,225,1
1,7,417,839,1
0,6,296,198,1
0,6,193,213,1
0,6,259,62,1
0,6,328,26,1
1,6,42,34,1
0,6,179,68,1
1,6,253,385,1
0,6,75,272,1
1,6,75,17,1
1,6,108,0,1
1,6,424,365,1
0,6,183,8,1
1,6,508,235,1
1,6,375,85,1
1,6,107,154,1
1,6,144,157,1
1,6,115,28,1
0,6,309,221,1
0,6,294,61,1
1,6,273,23,1
0,6,128,107,1
1,6,432,106,1
0,6,100,12,1
1,6,329,148,1
1,6,347,401,1
1,6,137,68,1
0,6,336,94,1
0,6,384,400,1
0,6,169,13,1
0,6,192,250,1
0,6,61,209,1
0,6,98,153,1
1,6,251,241,1
0,6,20,26,1
0,6,271,223,1
0,6,257,198,1
0,6,3,0,1
1,6,83,10,1
1,6,618,265,1
0,6,52,345,1
1,6,5,279,1
0,6,108,361,1
1,6,541,450,1
0,6,224,233,1
0,6,309,282,1
0,6,24,169,1
1,6,365,198,1
0,6,100,97,1
1,6,150,132,1
1,6,7,115,1
0,6,37,145,1
1,6,362,158,1
1,6,73,0,1
1,6,176,333,1
0,6,217,76,1
0,6,328,509,1
1,6,338,269,1
1,6,26,24,1
1,6,252,78,1
1,6,188,170,1
0,6,228,61,1
0,6,180,0,1
0,6,112,3,1
1,6,17,0,1
1,6,144,80,1
1,6,95,128,1
1,6,237,124,1
1,6,19,159,1
1,6,218,110,1
1,7,1006,761,1
0,6,231,98,1
0,6,441,260,1
1,6,397,489,1
0,6,56,220,1
1,6,158,138,1
1,6,163,104,1
1,6,42,15,1
1,6,15,48,1
1,6,71,19,1
0,6,23,3,1
1,6,15,58,1
1,6,52,150,1
1,6,3,104,1
0,6,144,140,1
0,6,216,187,1
0,6,267,0,1
1,6,550,131,1
1,6,187,197,1
1,6,496,227,1
1,6,407,269,1
1,6,122,11,1
1,6,191,101,1
0,6,11,20,1
1,6,15,14,1
1,6,54,0,1
0,6,23,11,1
1,6,108,34,1
1,6,51,23,1
1,6,55,0,1
1,6,104,21,1
1,6,3,44,1
1,6,2,31,1
1,6,81,97,1
1,6,38,22,1
1,7,584,193,1
0,6,235,31,1
1,6,267,9,1
0,6,43,2,1
1,6,55,20,1
1,6,159,210,1
1,6,28,41,1
1,6,15,19,1
0,6,43,36,1
1,6,188,22,1
1,6,188,160,1
0,6,90,145,1
1,6,19,157,1
0,6,164,224,1
1,6,243,127,1
1,6,7,0,1
1,6,8,98,1
0,6,84,83,1
1,6,256,326,1
1,6,40,52,1
1,6,3,89,1
1,6,16,11,1
1,6,220,91,1
1,6,52,32,1
1,6,136,0,1
0,6,80,62,1
1,6,2,90,1
1,6,247,63,1
1,6,409,209,1
0,6,87,132,1
0,6,171,165,1
1,6,238,121,1
0,6,200,45,1
0,6,91,87,1
0,6,81,79,1
0,6,182,222,1
1,6,233,197,1
0,6,8,68,1
1,6,24,15,1
1,6,348,116,1
1,6,449,320,1
1,6,61,106,1
1,6,357,37,1
1,6,56,239,1
0,6,147,55,1
0,6,120,103,1
0,6,43,212,1
1,6,200,55,1
0,6,5,71,1
1,6,14,6,1
0,6,22,52,1
0,6,61,31,1
1,6,12,8,1
0,6,54,66,1
1,6,44,18,1
1,6,38,124,1
1,6,128,60,1
0,6,132,4,1
1,6,236,292,1
0,6,519,359,1
1,6,213,22,1
1,6,62,0,1
1,6,413,291,1
0,6,201,0,1
0,6,389,166,1
1,6,313,140,1
1,6,156,128,1
1,7,601,590,1
0,6,212,263,1
1,6,58,74,1
0,6,275,51,1
1,7,711,539,1
0,6,186,137,1
1,6,591,488,1
0,6,440,243,1
1,6,47,148,1
1,6,474,117,1
0,6,148,107,1
0,6,151,194,1
0,7,608,352,1
0,6,12,57,1
1,6,375,390,1
0,6,588,214,1
0,6,181,82,1
1,7,679,685,1
0,6,67,28,1
0,6,518,253,1
0,6,152,168,1
0,6,183,128,1
1,6,503,293,1
1,6,50,126,1
0,6,492,323,1
0,6,13,223,1
2,7,1023,960,1
0,6,282,135,1
1,6,575,538,1
1,6,392,561,1
0,6,7,0,1
1,6,29,222,1
1,6,162,45,1
1,6,263,279,1
0,6,44,54,1
1,6,443,206,1
0,6,89,90,1
1,6,572,768,1
0,6,564,152,1
0,7,673,542,1
1,6,230,338,1
0,6,10,447,1
0,6,79,168,1
0,6,447,136,1
0,6,379,36,1
0,6,608,454,1
0,6,75,177,1
0,6,129,167,1
1,7,737,589,1
0,6,8,283,1
0,6,267,195,1
0,6,346,330,1
0,6,347,418,1
0,6,135,14,1
1,6,699,367,1
0,6,181,266,1
0,6,219,33,1
1,6,353,14,1
0,6,164,562,1
1,7,982,853,1
0,6,604,782,1
113,118,29,487,1
20,26,842,746,1
0,6,91,108,1
0,5,144,91,1
0,6,493,500,1
0,6,301,17,1
1,6,492,376,1
230,235,451,1023,1
7,13,574,924,1
0,5,434,507,1
0,6,695,421,1
0,6,54,385,1
1,7,598,946,1
233,240,235,596,1
94,99,321,722,1
10,17,723,398,1
156,161,55,99,1
35,40,1023,301,1
1,7,114,88,1
0,6,785,202,1
1,6,21,134,1
0,6,232,105,1
10,16,450,594,1
4,9,186,34,1
0,5,396,406,1
0,6,213,599,1
1,6,379,266,1
1,6,50,410,1
1,6,400,73,1
0,7,718,667,1
0,6,368,212,1
0,6,529,87,1
0,6,172,199,1
43,52,521,624,1
69,75,465,972,1
513,507,119,1023,1
39,45,683,961,1
7,13,35,402,1
141,156,1023,191,1
27,33,67,0,1
0,6,869,184,1
0,5,44,1023,1
44,50,399,692,1
4,10,147,518,1
0,5,411,5,1
0,6,454,47,1
0,6,81,259,1
1,6,179,122,1
0,7,474,199,1
1,6,921,227,1
0,6,368,202,1
1,7,374,392,1
0,6,270,488,1
1,7,729,623,1
0,6,106,48,1
0,6,485,241,1
599,602,762,1023,1
108,114,497,952,1
147,149,1023,902,1
253,258,754,803,1
44,50,526,113,1
1,7,169,130,1
0,6,589,97,1
1,6,62,125,1
388,376,1023,976,1
57,58,1023,1023,1
378,384,977,513,1
120,126,496,721,1
15,21,810,600,1
0,5,580,605,1
0,6,533,209,1
1,6,134,159,1
1,7,124,58,1
1,7,129,71,1
1,7,82,374,1
1,6,53,181,1
1,6,266,286,1
1,7,975,766,1
0,6,131,456,1
1,7,918,856,1
0,6,291,169,1
1,6,873,726,1
1,6,418,34,1
0,6,343,568,1
0,6,424,70,1
1,6,585,147,1
1,6,475,349,1
1,7,726,177,1
1,6,627,665,1
0,6,101,0,1
0,6,357,77,1
1,6,584,216,1
1,6,83,50,1
1,6,417,89,1
1,6,138,178,1
1,7,21,542,1
1,7,115,671,1
0,6,144,25,1
1,6,211,69,1
1,6,209,197,1
0,6,102,229,1
1,6,85,156,1
1,6,507,236,1
0,6,72,92,1
1,6,604,628,1
0,6,419,231,1
0,6,126,67,1
1,6,644,480,1
0,6,35,215,1
0,6,34,105,1
1,6,102,271,1
1,6,560,458,1
0,6,363,71,1
1,6,215,394,1
0,6,251,23,1
1,6,269,203,1
1,6,244,425,1
0,6,144,151,1
0,6,341,524,1
0,7,803,541,1
0,6,238,292,1
0,7,123,782,1
0,6,57,159,1
0,6,148,259,1
1,6,228,454,1
1,7,425,840,1
0,6,319,530,1
0,6,55,94,1
0,6,113,220,1
0,6,108,31,1
0,6,46,14,1
1,6,339,6,1
1,6,480,200,1
1,6,271,135,1
1,6,144,61,1
1,6,351,187,1
1,6,116,129,1
1,6,56,197,1
1,6,211,466,1
0,6,35,122,1
0,6,185,682,1
0,6,51,147,1
1,6,125,42,1
0,6,110,0,1
1,6,13,86,1
1,6,160,20,1
1,6,13,0,1
1,6,225,105,1
1,6,5,235,1
1,6,539,334,1
0,6,28,152,1
1,6,570,9,1
0,6,126,506,1
0,6,443,324,1
0,6,228,299,1
0,6,259,453,1
0,6,61,0,1
1,6,162,25,1
1,6,85,23,1
0,6,165,278,1
0,6,142,282,1
0,7,381,240,1
1,6,56,43,1
1,6,506,431,1
1,6,153,228,1
0,6,3,29,1
1,6,326,217,1
1,6,49,7,1
1,6,374,151,1
1,6,257,221,1
1,6,215,142,1
1,6,411,387,1
0,6,12,161,1
0,6,223,131,1
1,6,102,101,1
1,6,85,204,1
1,6,156,186,1
1,6,161,174,1
0,6,92,0,1
1,6,482,269,1
1,6,72,20,1
1,6,478,254,1
1,6,196,254,1
1,6,7,58,1
1,6,176,30,1
1,6,287,149,1
1,6,224,163,1
1,6,328,277,1
1,6,139,233,1
0,6,400,228,1
0,6,45,78,1
1,7,404,627,1
1,6,249,240,1
1,6,186,282,1
0,6,83,22,1
1,6,7,101,1
1,6,223,16,1
1,6,196,148,1
1,6,100,270,1
1,6,428,540,1
0,6,135,408,1
0,6,4,340,1
0,6,6,166,1
1,6,371,593,1
0,6,7,241,1
0,6,128,79,1
0,6,6,165,1
1,6,133,96,1
1,6,208,50,1
0,6,20,355,1
0,6,265,419,1
1,6,579,449,1
0,6,413,138,1
1,6,146,144,1
1,6,88,152,1
1,6,289,123,1
0,6,199,159,1
1,6,175,199,1
1,6,106,45,1
1,6,181,184,1
1,6,26,0,1
1,6,179,30,1
0,6,128,278,1
1,6,79,32,1
1,6,78,106,1
1,6,206,137,1
1,6,158,283,1
1,6,243,106,1
1,6,28,15,1
1,6,131,0,1
0,6,34,89,1
1,6,261,123,1
1,6,45,63,1
1,6,333,172,1
1,6,466,481,1
0,6,188,136,1
1,7,748,954,1
0,6,364,238,1
1,7,476,681,1
0,6,107,139,1
0,6,348,210,1
1,6,338,134,1
1,6,23,1,1
1,6,397,307,1
0,6,61,56,1
1,6,208,6,1
0,6,80,100,1
0,6,19,195,1
0,6,27,88,1
1,6,49,191,1
1,6,53,99,1
0,6,8,8,1
0,6,47,121,1
0,6,42,223,1
1,6,415,308,1
1,6,126,297,1
0,6,43,158,1
0,6,95,47,1
1,6,98,84,1
1,6,79,100,1
1,7,361,382,1
0,6,92,84,1
0,6,224,199,1
1,6,145,0,1
0,6,140,80,1
1,6,176,19,1
0,6,69,109,1
1,6,106,56,1
1,6,248,178,1
1,6,68,186,1
1,6,271,62,1
1,6,194,149,1
0,6,275,245,1
0,6,30,25,1
1,6,231,319,1
1,6,15,75,1
1,6,128,95,1
1,6,206,16,1
1,6,96,26,1
1,6,229,12,1
1,6,247,82,1
1,6,230,3,1
1,6,124,74,1
1,6,110,104,1
1,6,2,94,1
1,6,352,218,1
1,6,213,65,1
1,6,202,15,1
1,6,147,66,1
1,6,49,5,1
1,6,92,119,1
1,6,197,75,1
1,6,43,107,1
1,6,119,0,1
1,6,214,150,1
1,6,69,87,1
1,6,73,9,1
1,6,188,135,1
1,6,51,95,1
1,6,99,52,1
1,6,27,229,1
0,6,160,257,1
1,6,157,203,1
1,6,190,27,1
1,6,169,183,1
0,6,23,125,1
1,6,57,18,1
1,6,183,148,1
1,6,51,53,1
0,6,49,198,1
1,6,192,25,1
1,6,96,4,1
0,6,289,110,1
0,6,101,69,1
1,6,5,17,1
0,6,64,191,1
1,6,79,127,1
1,6,75,138,1
1,6,229,40,1
1,6,36,109,1
1,6,109,99,1
0,6,37,164,1
1,6,56,15,1
1,6,34,11,1
0,6,19,153,1
1,6,219,56,1
1,6,226,49,1
1,6,160,120,1
1,6,308,120,1
0,6,12,110,1
1,6,117,169,1
1,6,6,0,1
0,6,9,34,1
1,6,459,178,1
1,6,338,57,1
1,6,206,44,1
0,6,60,33,1
1,6,87,63,1
1,6,41,15,1
1,6,92,109,1
0,6,22,77,1
1,6,28,62,1
1,6,99,41,1
1,6,167,30,1
0,6,58,60,1
0,6,173,96,1
0,6,280,37,1
1,7,317,92,1
1,6,239,191,1
1,6,238,53,1
0,6,231,146,1
1,6,11,50,1
1,6,54,0,1
1,6,107,35,1
1,6,97,169,1
1,6,8,15,1
1,6,131,36,1
1,6,168,31,1
1,6,35,59,1
1,6,34,7,1
1,6,161,174,1
1,6,117,53,1
1,6,102,84,1
1,6,88,0,1
1,6,115,73,1
1,6,64,0,1
1,6,15,139,1
1,6,133,107,1
1,6,80,69,1
1,6,145,18,1
0,6,131,226,1
1,6,354,85,1
0,6,197,230,1
0,6,50,51,1
1,6,441,330,1
0,6,155,259,1
0,6,6,9,1
1,6,90,90,1
1,6,52,64,1
1,6,152,242,1
0,6,16,35,1
1,6,284,106,1
1,6,22,204,1
1,6,22,5,1
1,6,314,253,1
0,6,16,54,1
0,6,15,11,1
1,6,157,153,1
0,6,306,123,1
0,6,124,251,1
1,6,74,155,1
1,6,350,472,1
1,6,166,0,1
1,6,111,125,1
1,6,376,120,1
1,6,438,298,1
1,6,117,70,1
0,6,77,29,1
1,6,33,33,1
1,6,24,405,1
1,6,500,349,1
1,7,397,559,1
1,6,586,197,1
0,6,414,347,1
0,6,178,129,1
76,84,1014,714,1
67,72,361,138,1
5,11,923,441,1
0,5,4,86,1
0,6,581,200,1
0,6,235,125,1
1,6,256,338,1
1,6,19,121,1
0,6,308,467,1
1,6,266,0,1
1,6,72,0,1
1,6,34,412,1
0,6,16,242,1
1,6,461,283,1
1,6,765,229,1
1,6,342,313,1
1,6,313,138,1
1,6,443,226,1
0,6,108,33,1
0,6,13,419,1
1,6,267,133,1
1,7,770,705,1
52,58,265,370,1
7,13,693,314,1
0,5,529,371,1
0,6,388,126,1
1,6,32,44,1
1,7,391,517,1
0,6,437,512,1
0,6,465,84,1
0,6,259,648,1
1,7,798,668,1
0,6,366,484,1
1,6,629,323,1
0,6,317,375,1
1,6,648,477,1
0,6,700,575,1
0,6,160,4,1
0,6,449,253,1
1,7,493,357,1
0,6,481,441,1
0,6,561,198,1
0,6,38,584,1
0,6,13,419,1
0,6,217,179,1
23,25,560,665,1
47,53,774,981,1
4,10,576,231,1
0,5,105,639,1
168,158,1023,768,1
91,97,727,366,1
11,17,664,15,1
0,5,104,125,1
0,6,16,182,1
1,6,150,330,1
1,6,412,224,1
1,6,240,268,1
1,6,203,144,1
0,6,36,175,1
1,6,185,116,1
0,6,27,0,1
0,6,84,60,1
1,6,15,215,1
1,6,333,26,1
1,6,612,618,1
0,6,358,540,1
0,6,234,282,1
0,6,217,132,1
79,80,1023,443,1
3,9,271,434,1
0,5,211,27,1
0,6,17,17,1
0,6,362,358,1
0,7,492,642,1
0,6,279,126,1
1,6,227,17,1
1,6,624,204,1
0,6,63,204,1
1,7,523,698,1
1,6,529,311,1
1,6,198,19,1
0,6,115,655,1
1,7,650,818,1
50,55,133,201,1
6,12,676,9,1
0,5,10,228,1
0,6,307,414,1
1,6,639,579,1
1,6,612,237,1
1,6,743,172,1
0,6,217,134,1
0,6,244,152,1
1,6,127,101,1
1,7,1023,1022,1
0,6,48,449,1
1,7,444,832,1
172,180,492,273,1
88,94,312,340,1
11,16,238,40,1
0,5,194,684,1
0,6,392,145,1
998,995,1023,1023,1
380,384,1023,712,1
126,139,583,1023,1
117,123,622,898,1
22,27,262,349,1
0,5,882,986,1
153,168,261,1023,1
6,11,117,214,1
0,5,203,294,1
0,6,117,213,1
1,7,673,383,1
1,6,676,596,1
171,176,668,389,1
44,50,589,611,1
2,8,385,262,1
0,6,176,697,1
0,6,69,192,1
1,7,513,677,1
1,7,817,574,1
1,7,653,275,1
1,7,907,946,1
0,6,414,427,1
373,376,1023,683,1
181,186,584,345,1
30,35,334,169,1
0,6,16,332,1
0,6,311,273,1
1,6,94,21,1
1,6,114,131,1
1,6,34,70,1
1,6,240,199,1
1,6,123,197,1
1,6,439,223,1
1,7,408,956,1
0,6,287,228,1
1,6,55,102,1
1,7,459,226,1
0,6,37,88,1
1,6,288,158,1
1,6,446,527,1
1,7,868,406,1
0,6,269,435,1
0,6,271,355,1
1,6,629,344,1
1,7,554,731,1
1,6,75,74,1
1,6,437,305,1
1,6,316,430,1
1,6,683,370,1
0,6,354,264,1
0,6,103,198,1
1,6,44,84,1
1,6,108,283,1
1,6,180,134,1
1,6,271,380,1
0,6,229,193,1
1,7,952,591,1
0,6,45,321,1
0,6,397,360,1
0,6,166,159,1
1,6,697,346,1
0,6,207,208,1
3,9,1023,776,1
0,5,890,603,1
0,6,163,426,1
1,7,909,891,1
0,6,722,235,1
0,6,210,414,1
1,7,861,465,1
0,6,422,331,1
0,6,479,354,1
3,9,1023,781,1
0,6,627,41,1
0,6,432,324,1
1,7,1006,388,1
0,6,191,362,1
0,6,708,77,1
0,6,212,484,1
0,5,309,285,1
0,6,388,21,1
0,6,186,297,1
1,6,302,177,1
1,6,456,195,1
0,6,49,377,1
0,6,42,354,1
1,6,689,438,1
0,6,594,279,1
0,6,162,20,1
1,6,199,93,1
0,6,153,219,1
1,6,342,161,1
0,6,25,53,1
1,6,309,606,1
0,6,159,310,1
0,6,167,418,1
1,7,454,688,1
0,6,133,139,1
0,6,293,533,1
0,6,66,21,1
1,6,110,69,1
1,6,626,321,1
1,6,473,369,1
0,6,228,99,1
0,6,102,35,1
1,7,390,498,1
1,6,209,300,1
0,6,307,182,1
1,6,28,289,1
0,6,285,184,1
1,6,438,47,1
1,6,255,87,1
1,7,177,865,1
0,6,65,350,1
0,6,51,0,1
0,6,272,37,1
1,6,255,0,1
1,6,55,0,1
0,6,19,52,1
0,6,12,83,1
0,6,53,214,1
0,6,121,276,1
0,6,216,177,1
1,6,53,318,1
1,6,227,293,1
1,6,139,94,1
1,6,48,99,1
0,6,8,117,1
1,7,169,496,1
1,6,21,281,1
0,6,17,22,1
1,6,182,0,1
1,6,591,283,1
0,6,294,283,1
1,6,248,13,1
1,6,439,2,1
1,6,290,97,1
0,6,148,268,1
0,6,128,470,1
1,6,31,16,1
1,6,344,288,1
1,6,55,125,1
1,6,3,170,1
1,6,78,158,1
0,6,63,74,1
0,6,111,0,1
1,6,496,320,1
1,6,275,129,1
0,6,195,669,1
0,6,17,9,1
0,6,126,114,1
1,6,6,38,1
1,6,46,135,1
1,6,31,74,1
0,6,73,1,1
1,6,30,27,1
1,6,123,25,1
1,6,197,228,1
0,6,17,139,1
0,6,463,451,1
1,6,309,353,1
1,6,167,312,1
1,6,417,353,1
0,6,128,128,1
0,6,63,146,1
1,6,43,160,1
1,6,189,94,1
0,6,387,388,1
0,6,61,71,1
1,6,371,345,1
0,6,220,301,1
0,6,145,187,1
1,6,117,7,1
1,6,8,509,1
1,6,203,512,1
1,6,440,676,1
0,6,133,140,1
0,6,518,458,1
0,6,322,177,1
0,6,209,284,1
0,6,279,455,1
0,6,65,201,1
1,6,331,405,1
0,6,270,378,1
0,6,152,174,1
1,6,14,239,1
0,6,129,242,1
0,6,288,419,1
0,6,488,399,1
0,6,311,483,1
1,6,455,586,1
0,6,85,66,1
1,6,458,281,1
1,6,335,142,1
1,6,418,485,1
0,6,132,39,1
0,6,150,133,1
1,6,270,512,1
1,6,56,27,1
1,6,695,411,1
0,6,412,328,1
1,7,836,557,1
1,6,828,478,1
0,6,134,309,1
1,6,502,395,1
0,6,11,35,1
0,6,245,320,1
1,6,108,76,1
1,6,190,157,1
1,6,163,206,1
0,6,259,391,1
1,6,22,6,1
1,6,340,266,1
0,6,45,59,1
1,7,821,200,1
0,6,182,204,1
1,7,842,724,1
0,5,137,45,1
0,6,682,372,1
0,6,206,246,1
1,6,158,0,1
1,6,188,158,1
1,6,127,193,1
0,6,48,106,1
1,6,210,201,1
1,6,174,98,1
1,6,67,86,1
0,6,5,75,1
1,6,320,55,1
1,6,79,157,1
1,6,35,183,1
0,7,290,366,1
1,6,125,23,1
1,6,231,39,1
0,6,405,126,1
1,6,124,55,1
1,6,156,107,1
0,6,2,6,1
1,6,7,75,1
1,6,75,0,1
1,6,272,53,1
1,6,124,34,1
0,6,91,30,1
1,6,47,75,1
1,6,518,320,1
0,6,85,23,1
1,7,455,537,1
0,6,321,231,1
1,6,135,13,1
1,6,207,222,1
0,6,145,46,1
0,6,45,54,1
0,6,20,4,1
1,6,25,6,1
1,6,175,89,1
0,6,33,44,1
1,6,53,0,1
1,6,291,126,1
1,6,298,57,1
0,6,166,13,1
1,6,515,209,1
0,6,338,189,1
1,6,48,171,1
1,6,150,52,1
0,6,186,0,1
1,6,73,117,1
1,6,3,21,1
0,6,84,45,1
1,6,26,36,1
1,6,31,17,1
1,6,35,0,1
1,6,103,16,1
1,6,38,11,1
1,6,18,10,1
0,6,19,14,1
1,6,103,12,1
1,6,85,13,1
1,6,93,48,1
1,6,45,12,1
1,6,57,149,1
0,6,23,11,1
1,6,102,19,1
1,6,45,65,1
1,6,43,0,1
0,6,12,0,1
1,6,4,26,1
1,6,37,83,1
1,6,58,26,1
1,6,83,52,1
0,6,15,0,1
1,6,13,80,1
1,6,62,71,1
0,6,164,86,1
1,6,32,116,1
1,6,141,117,1
0,6,114,17,1
1,6,135,87,1
1,6,67,35,1
1,6,4,11,1
1,6,18,15,1
1,6,26,39,1
1,6,92,21,1
0,6,3,25,1
1,6,18,15,1
0,6,109,68,1
0,6,65,38,1
1,6,13,34,1
0,6,13,9,1
1,6,5,5,1
0,6,48,0,1
0,6,24,0,1
1,6,26,22,1
1,6,14,0,1
1,6,27,15,1
1,6,56,37,1
1,6,146,31,1
1,6,30,0,1
1,6,38,18,1
1,6,20,70,1
1,6,103,0,1
1,6,22,0,1
1,6,51,76,1
0,6,46,0,1
1,6,157,50,1
0,6,7,54,1
1,6,81,0,1
0,6,150,74,1
1,6,242,60,1
1,6,95,23,1
1,6,78,0,1
0,6,80,16,1
0,6,58,0,1
1,6,49,0,1
1,6,80,0,1
1,6,108,70,1
0,6,253,131,1
1,6,59,27,1
1,6,52,22,1
1,6,48,4,1
0,6,13,0,1
1,6,315,292,1
0,6,70,60,1
1,6,140,132,1
0,6,214,18,1
0,6,8,271,1
1,6,5,38,1
0,6,4,66,1
0,6,108,298,1
1,6,90,16,1
1,6,20,3,1
1,6,124,51,1
1,6,172,172,1
1,6,169,300,1
0,6,86,167,1
1,6,115,96,1
1,6,9,94,1
1,6,243,156,1
1,6,311,27,1
1,6,48,200,1
1,6,370,58,1
1,6,95,120,1
1,6,155,25,1
1,6,71,0,1
1,6,37,109,1
1,6,91,0,1
1,6,105,100,1
1,6,29,228,1
1,6,30,103,1
0,6,267,249,1
0,6,139,85,1
1,6,121,66,1
0,6,4,0,1
1,6,188,191,1
1,6,71,64,1
1,6,605,357,1
0,6,68,161,1
1,6,196,183,1
0,6,12,13,1
0,6,145,166,1
1,6,134,0,1
1,6,16,0,1
0,6,2,59,1
0,6,131,73,1
1,6,83,122,1
0,6,24,38,1
0,6,128,203,1
0,6,464,373,1
0,6,122,270,1
1,6,386,278,1
0,6,139,19,1
0,6,302,130,1
1,6,62,32,1
0,6,278,295,1
1,6,218,87,1
0,6,366,316,1
1,6,141,207,1
1,6,540,277,1
0,6,479,593,1
0,6,102,494,1
0,6,51,361,1
0,6,234,125,1
1,6,266,86,1
0,6,196,61,1
0,6,140,207,1
8,14,271,150,1
0,5,588,197,1
0,5,152,291,1
1,6,663,324,1
0,6,134,511,1
0,6,416,121,1
0,6,180,580,1
0,6,414,149,1
0,5,73,46,1
0,6,144,387,1
0,6,232,497,1
0,6,444,242,1
560,546,544,1023,1
86,91,785,234,1
10,15,690,718,1
0,5,648,635,1
0,6,461,199,1
0,6,57,235,1
1,7,228,475,1
0,6,127,681,1
0,6,15,433,1
1,6,167,31,1
1,6,19,47,1
47,53,444,22,1
6,12,17,259,1
0,5,316,313,1
0,6,43,507,1
1,6,684,23,1
0,6,154,432,1
1,6,630,646,1
0,5,422,84,1
1,6,637,438,1
1,6,650,625,1
0,6,858,725,1
1016,1013,1023,1023,1
598,601,332,122,1
554,555,1023,1023,1
721,724,4,746,1
174,179,347,747,1
25,31,520,441,1
0,5,498,334,1
1,7,604,871,1
1,7,347,273,1
1,7,27,229,1
360,375,930,1023,1
127,132,669,347,1
450,452,1023,1023,1
206,210,499,0,1
550,552,715,1023,1
124,130,253,555,1
18,24,178,492,1
0,5,178,248,1
1,7,602,1023,1
1,7,605,820,1
2,8,1023,1023,1
0,6,408,719,1
0,6,179,482,1
1,6,218,1023,1
33,39,534,523,1
253,259,656,154,1
421,425,424,22,1
481,484,1023,1023,1
331,334,1023,1023,1
699,699,1023,1023,1
521,524,356,466,1
109,115,444,171,1
10,17,855,732,1
0,5,684,510,1
138,144,746,21,1
39,45,531,173,1
1,7,791,96,1
0,5,512,328,1
1,6,3,211,1
1,7,384,367,1
1,6,95,552,1
1,6,112,193,1
1,6,14,243,1
1,7,745,989,1
469,474,680,506,1
325,328,1023,255,1
228,233,169,283,1
39,45,386,500,1
1,7,360,140,1
0,6,27,369,1
2,7,768,546,1
1,6,950,11,1
7,16,231,1023,1
30,30,1023,872,1
60,65,595,249,1
6,11,347,45,1
0,5,333,246,1
0,6,43,176,1
1,6,107,226,1
1,6,105,10,1
0,6,292,255,1
1,7,241,678,1
1,7,73,635,1
1,6,457,145,1
1,7,842,872,1
1023,1023,1023,1023,1
630,632,212,108,1
146,151,822,561,1
20,26,366,302,1
0,5,40,90,1
1,7,389,428,1
1,7,40,547,1
1,7,313,428,1
1,7,517,621,1
1,7,657,548,1
0,6,102,218,1
0,6,384,288,1
1,7,582,778,1
0,6,159,434,1
1,6,1010,451,1
0,6,413,197,1
0,6,213,264,1
1,6,52,108,1
1,7,1017,490,1
0,6,10,323,1
1,7,642,320,1
0,6,117,90,1
0,6,113,150,1
0,6,274,296,1
1,6,545,267,1
0,6,16,13,1
1,7,811,374,1
1,7,988,676,1
0,6,53,37,1
1,7,767,752,1
0,6,609,283,1
0,6,94,73,1
1,6,737,321,1
0,6,333,35,1
0,6,90,115,1
1,7,743,942,1
0,6,259,442,1
0,6,780,208,1
0,6,758,291,1
0,6,426,303,1
1,7,1023,692,1
76,81,307,282,1
10,17,695,494,1
0,5,532,145,1
0,6,363,216,1
0,6,292,329,1
1,7,814,530,1
0,6,164,106,1
1,6,495,249,1
1,6,8,25,1
1,7,260,596,1
1,7,934,733,1
1,7,841,826,1
0,6,743,782,1
0,6,121,519,1
0,6,463,321,1
1,6,458,263,1
0,6,223,0,1
1,6,544,357,1
0,6,78,55,1
1,6,285,79,1
0,6,210,344,1
0,6,40,271,1
0,6,139,392,1
0,6,296,357,1
0,6,92,51,1
0,6,81,216,1
1,6,175,83,1
1,6,118,66,1
1,6,332,198,1
1,6,273,39,1
0,6,83,190,1
1,6,3,72,1
1,6,28,19,1
1,6,47,241,1
0,6,158,226,1
1,6,13,30,1
1,6,73,149,1
1,6,296,99,1
0,6,474,463,1
0,6,255,419,1
0,6,118,155,1
1,6,14,187,1
0,6,201,299,1
1,6,191,52,1
0,6,11,261,1
1,6,72,36,1
1,6,386,293,1
0,6,96,295,1
1,6,107,116,1
1,6,58,512,1
0,6,138,283,1
0,6,186,259,1
1,6,59,102,1
1,6,416,818,1
0,6,174,746,1
0,6,53,433,1
0,6,214,165,1
1,6,367,75,1
1,6,164,62,1
0,6,96,210,1
1,6,710,250,1
0,6,158,321,1
1,6,686,0,1
1,6,217,569,1
0,6,31,73,1
1,6,108,93,1
0,6,88,255,1
1,6,7,79,1
1,6,362,662,1
0,6,14,513,1
0,6,147,471,1
0,6,29,298,1
1,6,48,93,1
0,6,259,330,1
1,6,139,73,1
1,6,139,143,1
1,6,202,221,1
0,6,8,299,1
1,6,326,16,1
1,6,57,24,1
1,6,18,74,1
0,6,119,11,1
1,6,95,222,1
1,6,152,266,1
0,7,231,124,1
0,6,255,471,1
1,6,76,157,1
1,6,458,115,1
1,6,305,34,1
1,7,403,866,1
1,6,182,201,1
0,6,73,229,1
0,6,302,343,1
0,6,164,348,1
1,6,461,306,1
0,6,160,58,1
1,6,255,66,1
1,6,146,432,1
0,6,28,307,1
1,6,37,377,1
1,6,20,37,1
0,6,339,587,1
1,6,89,538,1
1,6,62,124,1
0,6,77,491,1
61,67,213,249,1
20,25,41,105,1
0,5,181,274,1
0,5,10,56,1
0,6,317,381,1
0,6,338,288,1
0,6,623,385,1
0,6,335,3,1
1,6,557,332,1
1,6,30,26,1
0,6,419,142,1
1,6,51,43,1
1,7,129,786,1
0,6,345,179,1
1,6,80,327,1
1,6,386,254,1
0,6,74,247,1
1,6,315,38,1
1,6,59,13,1
1,6,196,0,1
1,6,3,176,1
1,6,150,284,1
1,6,170,14,1
0,6,285,257,1
1,6,426,300,1
0,6,158,224,1
0,6,99,101,1
1,6,325,197,1
1,6,142,211,1
0,6,118,179,1
1,6,81,79,1
1,6,199,25,1
0,6,391,393,1
1,6,117,140,1
0,6,230,33,1
0,6,637,275,1
0,6,54,11,1
1,6,604,403,1
0,6,81,59,1
0,6,81,192,1
1,6,71,15,1
0,6,41,48,1
0,6,180,139,1
0,6,179,111,1
1,6,76,114,1
1,6,25,9,1
1,6,208,177,1
0,6,81,386,1
0,6,159,454,1
0,6,93,1,1
1,7,231,746,1
0,6,349,392,1
0,6,225,150,1
0,6,438,325,1
1,7,441,880,1
0,6,231,233,1
1,6,47,155,1
1,6,57,10,1
1,6,171,94,1
1,6,336,172,1
0,6,47,275,1
0,6,181,162,1
0,6,138,14,1
1,6,125,0,1
1,6,422,90,1
1,6,275,348,1
0,6,169,14,1
1,6,55,39,1
1,6,21,90,1
1,6,128,1,1
0,6,10,69,1
1,6,160,63,1
1,6,170,57,1
1,6,8,125,1
1,6,90,280,1
1,6,435,294,1
0,6,477,475,1
0,6,355,272,1
1,6,650,391,1
0,6,126,339,1
0,6,90,0,1
1,6,307,152,1
1,6,20,42,1
0,6,130,75,1
0,6,450,184,1
0,6,141,132,1
1,6,113,56,1
0,6,74,117,1
0,6,86,168,1
1,6,12,101,1
1,6,62,0,1
1,6,440,105,1
1,6,295,287,1
1,6,231,0,1
0,7,518,408,1
0,6,1,161,1
0,6,128,201,1
0,6,98,288,1
0,6,33,155,1
1,6,8,84,1
1,6,18,19,1
1,6,22,31,1
1,6,35,78,1
0,6,55,61,1
0,6,46,0,1
1,6,453,165,1
0,6,301,159,1
1,6,375,53,1
0,7,545,324,1
0,6,229,199,1
1,6,125,59,1
1,6,214,116,1
1,6,117,79,1
0,6,20,5,1
1,6,44,29,1
1,6,114,56,1
1,6,51,0,1
1,6,23,1,1
0,6,50,0,1
1,6,28,0,1
1,6,47,44,1
1,6,77,45,1
1,6,213,91,1
1,6,70,3,1
1,6,179,17,1
0,6,15,4,1
1,6,84,44,1
0,5,22,86,1
1,6,138,59,1
1,6,151,98,1
1,6,3,19,1
0,6,79,3,1
1,6,1,31,1
1,6,18,0,1
1,6,32,10,1
1,6,54,39,1
1,6,255,46,1
1,6,251,111,1
1,6,62,40,1
1,6,363,119,1
1,6,89,126,1
1,6,4,28,1
1,6,43,27,1
1,6,26,0,1
0,6,342,378,1
0,6,3,75,1
1,6,301,205,1
1,6,115,71,1
1,6,79,68,1
1,6,57,37,1
1,6,260,132,1
0,6,146,60,1
1,6,259,127,1
1,6,43,5,1
0,6,56,41,1
1,6,103,152,1
0,6,55,158,1
1,6,145,73,1
0,6,170,233,1
1,6,66,95,1
1,6,104,47,1
0,6,60,41,1
0,6,287,76,1
1,6,17,64,1
1,6,138,26,1
0,6,84,100,1
1,6,306,480,1
0,6,86,165,1
0,6,338,201,1
1,6,288,369,1
0,6,60,17,1
1,6,317,212,1
0,6,94,77,1
0,6,92,103,1
0,6,62,68,1
1,6,87,99,1
1,6,34,0,1
1,6,212,313,1
0,6,30,0,1
1,6,71,0,1
0,6,109,33,1
1,6,323,25,1
0,6,246,234,1
0,6,284,28,1
1,6,71,161,1
0,6,100,119,1
0,6,152,101,1
1,6,126,142,1
0,6,89,155,1
1,6,112,115,1
0,6,253,369,1
0,6,19,71,1
1,6,77,0,1
0,6,118,120,1
1,6,72,419,1
0,6,30,33,1
0,6,31,140,1
0,6,27,1,1
0,6,164,144,1
0,6,277,274,1
0,6,40,154,1
1,7,522,61,1
0,6,19,89,1
1,6,269,42,1
1,6,87,194,1
0,6,278,428,1
0,6,38,0,1
1,6,100,110,1
1,6,109,64,1
1,6,3,87,1
1,6,18,1,1
1,6,11,28,1
0,6,172,110,1
1,6,163,230,1
0,6,234,293,1
1,6,129,246,1
1,6,281,284,1
0,6,107,0,1
0,6,164,138,1
0,6,181,428,1
1,6,226,290,1
1,6,641,376,1
0,6,487,385,1
0,6,598,604,1
0,6,224,176,1
0,6,189,204,1
1,7,868,846,1
0,6,514,309,1
0,6,144,260,1
1,6,684,482,1
0,6,16,36,1
1,7,1023,1023,1
127,132,174,258,1
22,28,103,434,1
0,5,109,563,1
0,6,68,587,1
0,6,401,299,1
0,6,170,265,1
1,6,260,156,1
1,6,657,495,1
0,6,241,39,1
1,7,994,416,1
231,235,239,84,1
52,58,1023,132,1
4,9,254,162,1
0,5,319,56,1
0,6,468,425,1
1,6,215,139,1
1,7,250,515,1
1,6,482,355,1
0,6,593,287,1
0,6,80,437,1
1,6,439,278,1
1,7,439,550,1
1,6,609,110,1
0,6,73,299,1
1,6,726,123,1
0,6,249,125,1
0,6,742,592,1
0,6,641,777,1
0,6,316,709,1
0,6,60,89,1
0,6,81,192,1
1,7,491,610,1
0,6,260,48,1
1,6,767,228,1
0,6,335,267,1
0,6,148,463,1
0,6,20,390,1
0,6,104,608,1
1,6,549,235,1
0,6,161,431,1
0,6,30,152,1
177,198,1023,989,1
382,395,630,1023,1
194,199,196,398,1
37,43,3,419,1
1,6,338,452,1
0,5,41,83,1
1,6,530,239,1
1,6,179,44,1
1,6,312,161,1
1,7,393,616,1
0,6,553,385,1
0,6,221,22,1
0,6,194,122,1
1,6,403,322,1
0,6,210,18,1
0,6,178,264,1
0,6,5,213,1
1,7,789,563,1
0,6,153,336,1
5,11,1023,1023,1
0,5,22,466,1
0,6,651,606,1
0,6,34,328,1
0,6,167,131,1
1,6,399,47,1
1,6,733,387,1
379,397,1023,855,1
567,573,405,109,1
186,191,847,690,1
28,35,420,305,1
0,5,534,137,1
0,6,775,452,1
1,7,657,548,1
1,6,325,74,1
1,6,250,184,1
409,444,1023,1023,1
296,300,206,449,1
662,662,1023,1023,1
619,622,408,39,1
333,340,893,1014,1
100,105,45,68,1
11,17,31,118,1
0,5,1,137,1
1,7,672,711,1
1,7,197,208,1
3,9,778,1023,1
0,6,404,351,1
0,6,278,402,1
1,7,402,765,1
372,389,555,1023,1
338,343,739,666,1
87,93,662,730,1
10,15,64,180,1
0,5,411,148,1
1,6,571,467,1
1,7,607,355,1
0,6,300,4,1
393,389,1023,1023,1
29,35,760,548,1
1,7,308,287,1
0,5,8,442,1
1,6,416,44,1
2,7,840,1013,1
18,24,485,858,1
0,6,275,0,1
0,6,815,912,1
0,6,531,645,1
0,6,111,7,1
1,6,271,0,1
1,6,46,52,1
2,7,912,843,1
0,6,365,634,1
0,7,503,780,1
0,6,41,232,1
0,6,285,10,1
1,7,631,653,1
0,6,53,582,1
0,6,957,531,1
1,7,915,756,1
231,236,237,219,1
72,77,198,58,1
6,12,193,111,1
0,5,435,706,1
1,6,416,828,1
0,6,488,603,1
0,6,391,339,1
103,101,277,840,1
531,538,1023,911,1
148,133,1023,297,1
587,591,574,754,1
155,160,767,483,1
22,28,57,110,1
0,5,81,6,1
1,6,158,36,1
2,7,747,667,1
1,6,173,191,1
1,7,564,237,1
1,6,405,66,1
1,6,242,5,1
1,6,95,136,1
1,7,281,729,1
1,6,687,827,1
0,6,263,88,1
1,7,966,389,1
0,6,303,33,1
1,6,269,393,1
1,7,603,554,1
1,7,586,827,1
61,69,966,524,1
133,138,764,453,1
19,25,212,132,1
0,5,226,209,1
0,6,664,758,1
0,6,131,118,1
48,45,906,1013,1
54,69,1023,1023,1
221,226,27,460,1
44,50,459,968,1
2,8,60,188,1
0,5,291,89,1
1,6,314,600,1
1,7,558,481,1
1,6,143,195,1
0,6,177,226,1
1,6,121,204,1
1,6,33,62,1
1,6,313,148,1
1,6,15,122,1
1,6,162,65,1
1,6,238,65,1
1,6,108,54,1
1,6,185,42,1
1,6,33,73,1
1,6,333,119,1
1,6,366,151,1
1,6,79,72,1
341,327,481,1023,1
60,65,209,416,1
5,11,465,635,1
0,5,218,50,1
0,6,93,294,1
1,6,406,267,1
0,6,82,416,1
1,6,107,0,1
1,7,581,781,1
1,6,337,370,1
0,6,370,426,1
0,6,259,252,1
1,6,359,486,1
0,6,3,204,1
0,6,153,145,1
1,6,217,57,1
1,6,369,3,1
0,6,98,20,1
0,6,184,0,1
1,6,242,300,1
1,6,155,17,1
0,6,114,228,1
0,6,170,147,1
0,6,87,229,1
0,6,240,13,1
1,6,249,207,1
0,6,383,325,1
0,6,255,98,1
0,6,63,184,1
1,6,87,0,1
0,6,204,199,1
1,6,481,341,1
0,6,234,44,1
0,6,145,387,1
0,6,126,608,1
0,6,97,172,1
0,6,171,328,1
1,6,224,192,1
0,6,198,24,1
1,6,289,30,1
0,6,277,402,1
0,6,25,418,1
0,6,6,202,1
1,6,16,0,1
1,6,65,181,1
0,6,256,230,1
0,6,116,244,1
1,6,384,242,1
0,6,92,0,1
0,6,52,7,1
0,6,190,308,1
1,7,157,1,1
0,6,236,435,1
0,6,81,365,1
1,6,5,21,1
0,6,114,442,1
0,6,7,48,1
1,6,93,175,1
1,6,26,273,1
1,6,69,386,1
0,6,106,25,1
1,7,338,832,1
0,6,114,279,1
0,6,413,478,1
0,6,61,159,1
0,6,7,33,1
1,6,64,205,1
0,6,65,79,1
1,6,117,0,1
1,6,67,7,1
0,6,119,370,1
1,6,158,641,1
0,6,113,4,1
0,6,202,423,1
1,6,143,240,1
0,6,287,254,1
0,6,425,243,1
0,6,347,103,1
0,6,154,48,1
1,6,161,191,1
1,6,161,24,1
1,6,23,0,1
1,7,84,2,1
0,6,73,269,1
1,6,38,209,1
1,6,157,81,1
1,6,248,127,1
0,6,210,71,1
1,6,309,164,1
1,6,529,439,1
0,6,258,136,1
1,6,167,156,1
1,6,40,41,1
1,6,57,144,1
1,6,69,125,1
1,6,30,59,1
0,6,77,105,1
1,6,77,9,1
0,6,86,245,1
0,6,95,326,1
1,6,283,472,1
0,6,131,244,1
0,6,769,625,1
0,6,171,140,1
1,6,10,13,1
0,6,348,219,1
0,6,357,313,1
0,6,271,109,1
1,6,280,59,1
0,6,3,77,1
1,6,170,64,1
1,6,54,0,1
0,6,107,249,1
1,6,53,285,1
1,6,196,81,1
0,6,191,80,1
1,6,109,119,1
1,6,63,177,1
1,7,443,630,1
0,6,270,357,1
0,6,219,328,1
1,6,442,342,1
0,6,109,222,1
1,6,244,0,1
1,6,95,278,1
1,6,68,124,1
1,6,190,251,1
1,6,21,23,1
1,6,172,74,1
0,6,259,13,1
1,6,165,59,1
1,6,412,212,1
0,6,138,364,1
0,6,291,166,1
0,6,181,88,1
1,6,261,250,1
0,6,127,6,1
1,6,181,325,1
0,6,234,139,1
1,6,188,179,1
0,6,105,66,1
0,6,152,194,1
1,6,183,152,1
1,6,58,0,1
0,6,132,34,1
1,6,327,409,1
1,6,154,40,1
1,7,362,133,1
1,6,41,68,1
1,6,236,157,1
0,6,6,1,1
1,6,75,228,1
1,6,156,48,1
1,6,221,353,1
1,6,156,20,1
0,6,174,141,1
0,6,160,278,1
1,6,4,32,1
1,6,136,75,1
0,6,113,11,1
0,6,21,83,1
0,6,102,8,1
0,6,58,114,1
1,6,87,29,1
1,6,6,37,1
1,6,313,188,1
1,6,199,144,1
0,6,136,121,1
1,6,99,84,1
0,6,127,2,1
1,6,153,0,1
1,6,94,109,1
0,6,312,156,1
1,6,143,111,1
0,6,71,65,1
1,6,177,102,1
0,6,188,105,1
1,6,4,0,1
1,6,5,25,1
0,6,76,99,1
0,6,19,8,1
1,6,46,0,1
0,6,58,39,1
1,6,43,0,1
0,6,77,75,1
1,6,24,0,1
1,6,14,15,1
1,6,84,53,1
1,6,15,16,1
1,6,93,53,1
1,6,25,56,1
1,6,14,35,1
1,6,2,0,1
1,6,41,18,1
0,6,38,11,1
0,6,3,0,1
1,6,54,2,1
1,6,5,29,1
1,6,4,0,1
1,6,58,25,1
1,6,19,0,1
1,6,46,11,1
1,6,251,75,1
1,6,151,68,1
1,6,191,5,1
1,6,206,96,1
1,6,147,68,1
0,6,48,139,1
1,6,6,0,1
1,6,143,60,1
1,6,45,19,1
1,6,2,6,1
1,6,58,14,1
1,6,57,0,1
1,6,66,3,1
1,6,14,11,1
1,6,94,9,1
1,6,17,0,1
1,6,28,0,1
1,6,21,18,1
1,6,19,0,1
1,6,14,5,1
0,6,12,0,1
1,6,190,44,1
1,6,132,5,1
1,6,7,4,1
1,6,68,0,1
1,6,178,77,1
1,6,13,2,1
0,6,117,7,1
1,6,29,12,1
1,6,8,36,1
1,6,69,68,1
0,6,23,21,1
1,6,51,62,1
1,6,3,0,1
1,6,58,0,1
1,6,47,16,1
1,6,90,142,1
1,6,76,47,1
1,6,47,0,1
1,6,30,42,1
1,6,58,7,1
1,6,31,17,1
1,6,13,6,1
1,6,20,0,1
1,6,4,3,1
1,6,24,0,1
1,6,20,41,1
1,6,5,0,1
1,6,48,2,1
1,6,36,0,1
1,6,120,60,1
1,6,24,25,1
1,6,223,100,1
1,6,53,0,1
1,6,21,52,1
1,6,131,19,1
1,6,149,178,1
1,6,80,53,1
1,6,49,43,1
1,6,20,7,1
1,6,141,0,1
1,6,113,20,1
1,6,74,0,1
1,6,46,30,1
0,6,18,22,1
1,6,29,7,1
1,6,17,30,1
0,6,61,14,1
1,6,246,107,1
0,6,8,35,1
1,6,214,70,1
1,6,309,400,1
0,6,198,342,1
1,6,189,115,1
1,6,447,245,1
0,6,45,117,1
0,6,75,16,1
1,6,73,49,1
1,6,61,50,1
0,6,453,276,1
1,6,179,93,1
0,6,95,23,1
1,6,323,3,1
0,6,264,426,1
0,6,296,480,1
0,6,213,340,1
1,6,478,409,1
0,6,355,144,1
0,6,202,64,1
0,6,189,73,1
1,6,173,57,1
0,6,458,304,1
0,6,97,543,1
1,6,68,61,1
0,6,330,362,1
1,6,330,223,1
0,6,152,412,1
1,6,714,267,1
0,6,120,111,1
1,6,117,6,1
1,6,17,254,1
1,7,635,673,1
0,6,103,172,1
0,6,302,269,1
0,6,71,138,1
0,6,36,106,1
1,6,203,298,1
1,6,319,121,1
0,6,271,193,1
1,6,33,85,1
1,6,138,23,1
0,6,172,260,1
1,6,76,84,1
0,6,484,54,1
0,6,121,120,1
1,6,641,92,1
0,6,11,114,1
1,6,479,349,1
1,6,446,297,1
1,6,804,115,1
0,6,208,251,1
612,613,1023,182,1
134,139,502,247,1
21,27,591,563,1
0,5,461,453,1
7,13,886,1023,1
0,5,536,334,1
1,6,379,72,1
0,6,643,778,1
0,5,74,91,1
1,6,539,713,1
0,6,161,52,1
1,6,638,123,1
0,6,111,237,1
1,6,414,164,1
1,6,85,664,1
0,6,203,61,1
1,6,210,764,1
1,6,794,18,1
0,6,145,810,1
0,6,425,122,1
0,6,10,559,1
0,6,93,433,1
0,6,158,231,1
0,6,15,178,1
0,6,472,620,1
0,6,38,436,1
0,5,505,90,1
1,7,796,1023,1
0,5,892,618,1
0,5,300,581,1
1,6,1023,306,1
1,6,715,159,1
0,6,504,184,1
416,431,1023,363,1
84,89,56,101,1
10,16,871,477,1
0,5,140,259,1
622,623,1023,910,1
110,115,131,252,1
15,21,395,107,1
0,5,180,678,1
0,6,142,132,1
3,9,780,1023,1
0,6,444,448,1
0,6,60,49,1
0,6,305,333,1
1,6,360,522,1
1,6,463,253,1
1,6,521,293,1
533,532,1023,1023,1
134,139,823,855,1
538,541,1023,1021,1
592,598,359,405,1
187,192,659,125,1
28,35,654,906,1
0,6,259,209,1
0,6,342,487,1
1,7,341,191,1
2,8,775,1023,1
1,6,42,417,1
1,6,738,444,1
1,7,835,39,1
1,6,41,315,1
508,518,1023,1023,1
284,288,140,51,1
54,60,1023,737,1
6,11,216,64,1
0,5,598,194,1
1,6,543,239,1
451,464,1023,423,1
292,296,633,1023,1
926,927,1023,1023,1
475,479,66,57,1
100,105,210,499,1
11,16,179,237,1
0,5,404,445,1
227,240,714,1023,1
571,575,1023,1023,1
496,498,410,96,1
960,957,1023,1023,1
817,819,725,280,1
347,350,1023,1023,1
440,444,888,641,1
336,294,1023,1023,1
242,247,960,653,1
42,47,120,306,1
0,6,772,503,1
0,6,728,664,1
1,7,307,310,1
1,7,617,185,1
1,6,532,268,1
1,7,192,624,1
1,6,494,59,1
1,6,578,436,1
1,6,153,36,1
1,6,463,278,1
1,6,80,189,1
1,7,319,115,1
1,7,351,514,1
0,6,232,371,1
1,6,360,162,1
1,7,767,537,1
0,6,144,160,1
1,7,947,617,1
1,6,234,71,1
6,13,1023,770,1
0,5,626,153,1
0,6,599,196,1
0,6,340,136,1
0,6,371,136,1
1,6,82,6,1
0,6,76,198,1
1,6,36,148,1
1,6,421,12,1
0,6,684,23,1
0,6,577,613,1
156,162,853,218,1
50,55,985,720,1
4,10,121,37,1
0,5,606,198,1
0,6,37,0,1
1,6,37,163,1
1,6,71,37,1
1,6,28,29,1
1,6,146,61,1
1,6,85,7,1
1,6,410,87,1
0,6,7,67,1
1,7,512,563,1
1,7,565,388,1
0,6,195,245,1
1,6,418,360,1
0,6,151,213,1
1,6,157,117,1
1,7,501,919,1
0,6,495,310,1
0,6,468,259,1
0,6,317,5,1
0,6,155,161,1
1,6,166,0,1
1,6,20,85,1
1,6,325,233,1
1,6,7,98,1
1,6,77,261,1
1,6,142,31,1
1,6,221,200,1
1,6,169,46,1
0,6,60,119,1
1,6,46,101,1
0,6,301,147,1
0,6,298,157,1
0,6,291,480,1
0,6,485,422,1
1,6,133,55,1
1,6,102,77,1
1,7,275,428,1
0,6,241,186,1
1,6,654,439,1
0,6,120,103,1
0,6,279,470,1
0,6,89,284,1
1,6,365,243,1
0,6,159,14,1
554,556,737,1023,1
107,113,5,45,1
14,20,262,39,1
0,5,116,258,1
0,6,8,67,1
1,6,203,0,1
1,6,75,70,1
1,6,5,109,1
1,6,262,271,1
0,6,181,593,1
0,6,84,408,1
0,6,186,389,1
1,6,125,13,1
0,6,62,85,1
1,6,287,549,1
1,6,311,547,1
0,6,78,186,1
1,6,603,105,1
0,6,64,106,1
1,6,724,326,1
0,6,192,115,1
1,6,277,379,1
0,6,116,50,1
1,6,137,38,1
1,6,25,110,1
0,6,112,0,1
0,6,4,134,1
0,6,27,370,1
0,6,54,419,1
0,6,70,117,1
0,6,6,416,1
0,6,120,58,1
1,6,34,124,1
1,6,59,246,1
0,6,361,299,1
0,6,163,146,1
0,6,312,228,1
1,6,250,78,1
0,6,252,565,1
0,6,380,546,1
0,6,104,7,1
0,6,347,253,1
0,6,143,165,1
0,6,372,208,1
1,7,455,644,1
0,6,189,399,1
0,6,56,15,1
1,6,244,12,1
1,6,12,205,1
1,7,670,310,1
1,6,246,180,1
0,6,113,191,1
1,7,229,103,1
0,5,181,158,1
0,6,44,181,1
0,6,125,126,1
0,6,95,0,1
0,6,226,3,1
1,6,240,261,1
0,6,495,457,1
0,6,103,65,1
1,6,436,668,1
0,6,283,97,1
1,6,10,405,1
0,6,119,0,1
1,6,245,35,1
1,6,98,113,1
1,6,291,30,1
0,6,90,117,1
0,6,66,509,1
0,6,35,643,1
1,6,76,216,1
0,6,164,23,1
0,6,305,221,1
1,6,323,164,1
1,6,86,3,1
1,6,35,160,1
0,6,225,171,1
1,6,209,241,1
1,6,183,254,1
1,6,305,57,1
0,6,155,221,1
1,6,236,409,1
0,6,35,314,2
0,6,185,197,2
1,6,76,223,2
0,6,138,268,2
1,6,35,63,2
0,6,106,167,2
1,6,22,27,2
1,6,305,182,2
1,6,576,720,2
1,6,47,95,2
0,6,435,444,2
0,6,234,350,2
0,6,10,53,2
0,6,172,184,2
0,6,204,268,2
1,6,126,13,2
0,6,54,508,2
1,7,301,620,2
0,6,206,165,2
0,6,17,0,2
0,6,10,133,2
1,6,187,7,2
1,6,152,95,2
0,6,42,36,2
0,6,191,42,2
1,6,169,208,2
0,6,55,64,2
1,6,324,362,2
0,6,75,54,2
0,6,143,108,2
1,6,71,66,2
1,6,3,2,2
0,6,15,69,2
1,6,193,84,2
0,6,208,174,2
0,6,328,96,2
1,6,193,123,2
0,6,397,199,2
0,6,95,218,2
0,6,9,168,2
1,6,138,101,2
1,6,248,281,2
1,6,30,0,2
1,7,717,259,2
0,6,125,137,2
1,6,372,92,2
1,6,423,241,2
0,6,11,44,2
1,6,298,151,2
0,6,350,85,2
1,6,65,21,2
1,6,162,113,2
0,6,168,217,2
1,6,223,122,2
0,6,82,81,2
1,6,407,203,2
0,6,82,103,2
1,6,71,0,2
0,6,45,41,2
1,6,23,4,2
1,6,332,159,2
1,6,180,90,2
1,6,95,0,2
1,6,85,25,2
1,6,34,87,2
1,6,93,81,2
1,6,337,165,2
1,6,240,39,2
0,6,321,144,2
1,6,167,93,2
1,6,413,161,2
0,6,24,71,2
1,6,104,0,2
0,6,23,16,2
1,6,114,43,2
0,6,2,69,2
1,6,39,73,2
1,6,29,52,2
0,6,4,9,2
1,6,215,137,2
1,6,291,0,2
1,6,60,205,2
1,6,361,124,2
0,6,368,183,2
0,6,83,112,2
0,6,168,32,2
1,6,13,114,2
0,6,28,3,2
1,6,81,11,2
1,6,47,17,2
0,6,17,7,2
1,6,23,11,2
0,6,40,0,2
1,6,66,29,2
1,6,44,47,2
1,6,28,0,2
1,6,9,0,2
1,6,53,25,2
0,6,3,71,2
1,6,14,0,2
1,7,278,84,2
1,6,6,0,2
0,6,50,0,2
0,6,100,36,2
1,6,68,11,2
0,6,115,4,2
1,6,199,0,2
0,6,94,10,2
1,6,5,106,2
0,6,35,57,2
1,6,282,175,2
0,6,79,23,2
0,6,223,71,2
1,6,139,62,2
1,6,100,41,2
1,6,145,93,2
1,6,65,0,2
1,6,40,16,2
1,6,164,50,2
1,6,42,99,2
1,6,126,31,2
0,6,87,50,2
1,6,80,47,2
1,6,216,63,2
1,6,127,12,2
1,6,237,24,2
1,6,102,54,2
1,6,197,142,2
0,6,37,123,2
0,6,167,57,2
1,6,131,168,2
1,6,30,40,2
1,6,26,0,2
1,6,152,64,2
1,6,81,0,2
1,6,245,89,2
1,6,73,65,2
0,6,69,23,2
0,6,101,71,2
0,6,49,8,2
0,6,54,54,2
0,6,29,77,2
1,6,173,73,2
0,6,5,11,2
0,6,24,2,2
1,6,113,114,2
0,6,168,76,2
1,6,223,26,2
1,6,200,59,2
1,6,199,90,2
1,6,108,12,2
1,6,162,91,2
0,6,65,0,2
1,6,71,38,2
1,6,182,194,2
1,6,49,21,2
1,6,196,285,2
1,6,102,55,2
1,6,28,161,2
1,6,172,17,2
1,6,35,31,2
1,6,171,129,2
1,6,19,36,2
1,6,222,149,2
0,6,128,207,2
0,6,85,79,2
1,6,124,144,2
0,6,103,99,2
0,6,39,67,2
0,6,11,33,2
1,6,23,0,2
0,6,12,39,2
1,6,62,56,2
1,6,9,130,2
1,6,69,27,2
1,6,105,125,2
0,6,211,2,2
1,6,256,224,2
1,6,122,155,2
1,6,96,27,2
1,6,48,50,2
0,6,32,177,2
1,6,76,111,2
1,6,80,47,2
1,6,129,83,2
1,6,261,122,2
1,6,57,74,2
1,6,91,28,2
1,6,147,87,2
0,6,238,137,2
1,6,199,76,2
0,6,116,60,2
1,6,324,210,2
1,6,219,0,2
0,6,223,137,2
0,6,87,272,2
1,6,21,151,2
1,6,80,67,2
1,6,370,166,2
0,6,25,7,2
1,6,6,36,2
1,6,589,441,2
0,6,73,250,2
1,6,106,190,2
1,6,22,0,2
1,6,383,227,2
0,6,314,173,2
0,6,120,25,2
1,6,108,3,2
1,6,136,82,2
0,6,20,109,2
1,6,344,206,2
0,6,2,326,2
0,6,130,105,2
0,6,168,133,2
0,6,174,379,2
1,6,597,384,2
0,6,18,0,2
0,6,156,240,2
0,6,466,503,2
1,6,676,461,2
0,6,12,85,2
1,6,194,148,2
1,6,94,149,2
1,6,282,219,2
1,6,105,268,2
0,6,239,179,2
1,6,7,151,2
0,6,69,291,2
1,6,55,161,2
1,6,446,9,2
1,6,201,47,2
0,6,180,241,2
0,6,142,203,2
1,6,108,142,2
0,6,388,380,2
0,6,70,0,2
0,6,434,291,2
0,6,146,385,2
0,6,420,77,2
0,6,50,124,2
1,6,202,11,2
1,6,407,277,2
1,6,258,23,2
0,6,615,74,2
1,6,521,484,2
0,6,109,290,2
0,6,109,4,2
1,6,80,98,2
1,6,284,374,2
1,6,300,261,2
1,7,820,393,2
0,6,89,242,2
0,6,538,318,2
0,6,63,446,2
0,7,237,686,2
1,6,670,468,2
0,6,251,161,2
1,7,937,908,2
2,9,954,563,2
8,14,457,44,2
164,151,1023,823,2
117,122,517,177,2
15,21,745,583,2
0,5,499,241,2
206,212,774,686,2
64,69,75,33,2
5,10,243,3,2
0,5,351,169,2
0,6,382,137,2
1,6,2,68,2
1,6,228,156,2
0,6,200,295,2
1,7,763,600,2
0,6,208,336,2
1,6,566,14,2
0,6,416,484,2
0,6,298,220,2
1,6,233,280,2
0,6,463,239,2
800,798,1023,1023,2
641,644,552,969,2
184,188,1023,973,2
327,319,1023,1023,2
384,389,883,282,2
111,133,1023,948,2
380,386,592,270,2
465,467,1023,542,2
317,322,379,172,2
63,69,659,852,2
6,12,428,357,2
291,308,1023,1023,2
285,290,913,401,2
59,64,22,50,2
3,9,163,128,2
0,6,437,175,2
1,7,108,266,2
2,7,1023,839,2
0,5,69,97,2
0,6,10,167,2
1,7,920,503,2
0,6,224,123,2
1,6,39,525,2
1,7,299,846,2
0,6,136,157,2
1,6,107,227,2
1,6,359,310,2
1,6,585,532,2
1,7,762,728,2
14,19,891,494,2
56,62,237,291,2
4,10,548,373,2
0,5,449,733,2
1,6,270,200,2
1,7,800,758,2
1,6,368,242,2
1,6,834,24,2
1,6,75,699,2
560,561,1023,875,2
140,146,1003,617,2
330,338,1023,370,2
122,127,751,470,2
15,21,931,577,2
0,5,570,542,2
0,6,784,394,2
1,7,725,798,2
1,6,890,754,2
395,445,1023,1023,2
809,807,1023,1023,2
272,286,1023,858,2
741,747,1023,1023,2
779,781,430,278,2
181,187,913,947,2
28,34,225,424,2
338,330,1023,861,2
295,297,1023,265,2
671,671,1023,1023,2
95,106,1023,907,2
261,267,255,627,2
552,555,1023,833,2
337,341,39,309,2
504,510,1023,1023,2
272,277,314,254,2
204,210,883,266,2
67,73,623,39,2
510,518,858,1023,2
113,118,275,612,2
15,22,494,598,2
0,5,737,479,2
0,6,430,456,2
1,7,908,439,2
1,6,48,607,2
1,6,342,34,2
1,7,704,797,2
0,6,45,199,2
52,55,1023,802,2
132,137,1023,332,2
150,155,95,426,2
25,31,994,682,2
0,6,601,296,2
0,6,301,836,2
0,6,337,411,2
1,7,394,66,2
1,7,461,239,2
1,6,179,441,2
1,6,434,276,2
1,7,1023,723,2
286,293,609,364,2
117,122,642,586,2
15,21,2,54,2
0,5,194,147,2
0,6,225,392,2
1,7,506,686,2
1,6,239,239,2
1,7,795,603,2
1,6,560,312,2
2,7,782,884,2
0,6,887,671,2
0,6,194,141,2
1,6,58,12,2
0,7,206,467,2
0,6,47,156,2
1,6,61,63,2
1,7,739,510,2
0,6,441,227,2
1,6,61,179,2
1,7,586,658,2
0,6,24,251,2
0,6,364,187,2
0,6,179,191,2
1,7,860,1023,2
0,5,447,144,2
223,249,1023,464,2
599,608,330,684,2
217,222,877,499,2
35,41,196,361,2
0,6,120,286,2
1,6,633,226,2
1,6,403,122,2
355,340,1023,538,2
59,65,610,378,2
5,10,748,438,2
0,5,839,44,2
0,6,266,822,2
1,7,703,464,2
1,6,8,47,2
1,7,531,450,2
1,6,32,150,2
1,7,640,476,2
1,6,607,46,2
5,10,453,787,2
0,5,436,373,2
0,5,232,113,2
0,6,280,317,2
1,6,33,101,2
1,7,673,365,2
0,6,201,219,2
0,6,419,283,2
0,7,350,479,2
0,6,56,184,2
0,6,454,271,2
0,6,231,202,2
1,6,287,327,2
1,6,213,72,2
1,6,165,78,2
1,6,194,255,2
0,6,121,277,2
0,6,74,32,2
1,6,122,168,2
1,6,290,325,2
1,6,75,97,2
1,7,374,326,2
1,6,35,313,2
1,6,102,813,2
0,6,91,286,2
1,6,115,473,2
1,6,83,125,2
1,6,252,383,2
0,6,188,319,2
1,6,207,439,2
1,6,164,393,2
0,6,40,121,2
0,6,122,146,2
1,6,27,121,2
1,6,272,141,2
1,6,215,35,2
1,6,291,118,2
1,6,122,43,2
1,6,65,8,2
1,6,15,196,2
1,6,301,534,2
0,6,123,432,2
1,6,295,191,2
1,6,196,61,2
0,6,131,146,2
1,6,33,30,2
1,6,346,172,2
0,6,217,361,2
1,6,255,89,2
1,6,261,253,2
0,6,192,166,2
1,6,374,362,2
0,6,175,12,2
0,6,162,2,2
1,6,4,0,2
1,6,218,91,2
0,6,230,70,2
1,6,168,82,2
1,6,54,194,2
1,6,133,405,2
1,6,162,155,2
1,6,363,222,2
0,6,146,356,2
1,6,260,58,2
1,6,147,13,2
0,6,45,217,2
0,6,87,177,2
1,6,128,52,2
1,6,192,122,2
0,6,40,329,2
0,6,60,227,2
1,7,181,479,2
0,6,76,171,2
1,6,190,53,2
1,6,133,259,2
1,6,53,2,2
0,6,201,261,2
1,6,278,322,2
1,6,122,17,2
1,6,306,0,2
1,6,212,102,2
0,6,176,187,2
0,6,627,516,2
0,6,247,203,2
0,6,115,52,2
1,6,266,42,2
0,6,102,199,2
0,6,124,70,2
0,6,12,206,2
0,7,120,794,2
1,6,137,8,2
1,6,211,228,2
0,6,73,47,2
0,6,224,97,2
1,6,310,21,2
0,6,196,211,2
1,6,78,95,2
1,6,218,73,2
0,6,69,113,2
1,6,6,45,2
1,6,343,332,2
1,6,296,191,2
0,6,75,119,2
0,6,241,224,2
1,6,174,80,2
0,6,42,525,2
1,6,27,103,2
1,6,340,343,2
0,6,339,245,2
0,6,357,0,2
1,6,671,432,2
0,6,118,116,2
0,6,547,337,2
1,6,196,196,2
1,6,138,56,2
1,6,423,291,2
1,6,8,0,2
1,6,178,137,2
1,6,115,159,2
0,7,475,490,2
0,6,59,132,2
0,7,365,464,2
0,6,214,79,2
1,6,735,455,2
0,6,328,320,2
0,6,405,249,2
0,7,108,482,2
1,6,26,0,2
0,6,82,11,2
1,6,90,91,2
1,6,182,27,2
0,6,50,25,2
1,6,219,24,2
0,6,11,133,2
0,6,214,208,2
1,6,46,124,2
0,6,5,42,2
0,6,37,1,2
1,6,176,87,2
1,6,181,132,2
1,6,62,83,2
1,6,112,23,2
0,6,121,41,2
0,6,280,114,2
0,6,135,112,2
1,6,331,396,2
0,6,83,148,2
1,6,396,181,2
1,6,108,217,2
1,6,8,73,2
1,6,2,159,2
0,6,39,0,2
0,6,17,31,2
0,6,49,48,2
0,6,69,62,2
0,6,64,44,2
1,6,79,0,2
0,6,213,27,2
0,6,89,24,2
1,6,33,0,2
1,6,68,8,2
1,6,62,34,2
1,6,8,8,2
1,6,212,9,2
1,7,201,107,2
1,6,172,0,2
1,6,185,64,2
1,6,286,132,2
0,6,117,105,2
1,6,74,4,2
0,6,255,0,2
1,6,99,82,2
1,6,100,116,2
0,6,154,112,2
0,6,67,0,2
1,6,210,27,2
1,6,170,84,2
0,6,148,70,2
1,6,18,0,2
1,6,9,10,2
1,6,96,24,2
1,6,119,0,2
1,6,20,14,2
1,6,173,121,2
0,6,162,0,2
0,6,214,2,2
0,7,51,66,2
0,6,31,0,2
1,6,95,23,2
0,6,2,15,2
0,6,43,116,2
1,6,7,0,2
0,6,40,8,2
1,6,93,36,2
1,6,67,23,2
1,6,39,13,2
1,6,17,18,2
1,6,54,0,2
0,6,32,40,2
1,6,30,88,2
0,6,91,0,2
1,6,4,0,2
0,6,56,2,2
0,6,80,43,2
0,6,19,69,2
0,6,106,46,2
1,6,180,73,2
0,6,8,55,2
1,6,100,53,2
1,6,203,96,2
0,6,3,14,2
1,6,26,0,2
1,6,2,4,2
1,6,177,69,2
1,6,127,83,2
1,6,162,61,2
1,6,97,2,2
0,6,73,41,2
1,6,182,115,2
1,6,71,92,2
1,6,2,85,2
1,6,207,68,2
1,6,49,0,2
1,6,35,4,2
1,6,52,105,2
1,6,278,52,2
1,6,134,153,2
0,6,48,25,2
1,6,221,161,2
1,6,167,68,2
1,6,1,40,2
1,6,165,136,2
1,6,107,30,2
1,6,43,169,2
1,6,138,158,2
0,6,88,68,2
1,6,22,56,2
1,6,226,77,2
1,6,193,129,2
1,6,180,0,2
1,6,185,69,2
0,6,21,42,2
1,6,141,0,2
1,6,29,224,2
1,6,50,0,2
0,6,240,77,2
1,6,137,157,2
0,6,162,116,2
1,6,71,87,2
1,6,337,91,2
1,6,654,64,2
1,6,249,22,2
1,6,524,310,2
0,6,19,143,2
1,6,121,44,2
0,6,12,77,2
0,6,171,341,2
0,6,96,59,2
0,6,22,8,2
1,6,126,76,2
1,6,29,174,2
0,7,364,482,2
1,6,300,59,2
0,6,229,257,2
0,6,334,303,2
0,6,116,39,2
0,6,139,379,2
1,6,461,39,2
1,6,255,273,2
1,6,443,442,2
0,6,191,45,2
1,6,416,654,2
0,6,445,242,2
0,6,119,239,2
1,6,472,465,2
0,6,50,347,2
1,6,373,235,2
0,6,115,30,2
0,6,262,358,2
1,6,2,140,2
1,6,357,323,2
0,6,376,325,2
0,6,51,167,2
1,6,350,135,2
1,6,216,52,2
1,6,52,9,2
1,6,73,204,2
0,6,65,135,2
0,7,379,491,2
1,6,18,164,2
0,6,241,184,2
0,7,278,793,2
1,6,672,0,2
1,6,454,643,2
0,5,1017,132,2
0,6,594,182,2
0,6,352,245,2
1,7,988,442,2
0,6,365,433,2
1,7,537,1023,2
0,5,69,177,2
0,6,21,158,2
519,520,690,1023,2
117,122,537,729,2
17,23,365,425,2
0,5,517,860,2
566,572,1023,1023,2
124,129,522,136,2
18,24,597,1023,2
0,6,139,108,2
692,658,1023,1023,2
167,172,109,45,2
26,31,565,56,2
356,347,276,1023,2
20,25,41,396,2
0,5,297,618,2
0,6,9,530,2
1,6,256,286,2
213,219,75,505,2
78,83,438,205,2
7,13,130,557,2
0,5,10,135,2
0,6,39,427,2
1,6,168,201,2
0,6,39,126,2
584,585,781,1023,2
86,91,518,857,2
446,453,1023,885,2
67,72,1004,389,2
7,13,373,566,2
549,557,1023,1023,2
451,458,56,93,2
146,151,850,996,2
171,176,153,210,2
33,39,1023,734,2
1,7,197,24,2
606,611,1023,1023,2
154,159,535,430,2
26,31,430,880,2
0,5,620,280,2
127,134,121,308,2
64,70,179,540,2
6,12,34,73,2
0,5,224,142,2
1,6,543,528,2
192,203,1002,530,2
60,59,1023,219,2
197,201,1023,1023,2
209,214,1011,390,2
35,41,98,424,2
0,6,113,309,2
0,6,3,80,2
1,7,347,167,2
1,7,208,199,2
563,569,332,1023,2
74,79,86,317,2
7,14,399,586,2
38,44,244,625,2
4,10,476,351,2
0,5,800,641,2
0,6,217,3,2
1,7,880,680,2
0,6,314,428,2
1,6,667,623,2
0,6,299,402,2
0,6,87,86,2
1,7,809,959,2
0,6,503,830,2
0,6,375,33,2
1,6,321,531,2
0,6,246,366,2
1,7,954,1014,2
143,167,625,1023,2
275,280,929,314,2
61,68,514,723,2
3,12,874,1023,2
122,125,827,1023,2
173,187,1023,1023,2
939,937,1023,1023,2
555,557,1023,395,2
284,283,809,1023,2
1023,1022,1023,1023,2
354,358,495,427,2
443,448,697,244,2
112,118,814,907,2
322,328,793,680,2
1023,1023,1023,1023,2
863,868,529,555,2
849,848,1023,1023,2
353,357,109,7,2
66,72,507,31,2
4,10,659,17,2
0,6,65,60,2
1,7,46,424,2
1,7,235,123,2
2,7,851,452,2
1,7,575,0,2
1,7,377,529,2
1,6,140,17,2
1,6,418,36,2
4,10,1023,971,2
0,6,750,303,2
139,145,928,597,2
40,47,781,617,2
2,8,104,276,2
0,5,320,326,2
0,6,65,154,2
1,7,201,187,2
1,6,324,109,2
1,6,431,210,2
2,7,172,903,2
1,6,877,770,2
0,6,236,250,2
0,7,588,356,2
0,6,51,75,2
0,6,132,122,2
1,6,242,26,2
0,6,239,86,2
1,6,383,171,2
1,6,78,97,2
0,6,133,202,2
1,6,164,247,2
1,6,151,153,2
0,6,82,275,2
1,6,34,37,2
0,7,261,365,2
1,6,616,73,2
0,6,245,427,2
345,356,1023,615,2
62,67,329,325,2
7,13,336,213,2
0,5,72,122,2
0,6,334,311,2
0,6,229,258,2
1,7,816,596,2
0,6,295,570,2
0,6,251,10,2
0,6,274,314,2
1,6,36,124,2
1,6,157,229,2
0,6,82,106,2
0,6,20,1,2
0,6,56,73,2
0,6,172,125,2
0,6,190,160,2
1,6,132,69,2
0,6,284,232,2
0,6,143,59,2
1,6,150,256,2
1,7,423,439,2
0,6,121,11,2
0,6,127,198,2
1,6,77,182,2
1,6,271,145,2
0,6,119,144,2
0,6,38,104,2
1,6,99,116,2
1,6,186,237,2
1,7,792,508,2
0,6,115,71,2
0,6,416,142,2
1,6,48,16,2
1,7,279,675,2
1,6,3,53,2
1,6,226,277,2
1,6,251,0,2
1,7,433,489,2
1,7,778,766,2
0,6,100,42,2
0,6,510,364,2
0,6,142,168,2
0,6,92,242,2
0,6,238,142,2
0,6,85,551,2
1,6,271,406,2
1,6,42,623,2
0,6,7,401,2
0,6,50,23,2
1,6,417,21,2
1,6,119,41,2
0,6,416,401,2
0,6,191,80,2
1,6,167,57,2
0,6,326,100,2
1,6,132,75,2
1,6,124,165,2
0,6,96,78,2
0,6,307,240,2
0,6,46,106,2
1,6,234,52,2
1,7,283,877,2
1,6,11,99,2
0,6,451,474,2
0,6,400,205,2
1,6,53,64,2
0,6,177,190,2
0,6,22,94,2
0,6,170,0,2
0,6,247,493,2
0,6,101,41,2
1,6,159,39,2
1,6,33,65,2
0,6,117,307,2
0,6,117,157,2
1,6,66,116,2
1,6,59,248,2
1,6,33,170,2
1,6,391,342,2
0,6,201,63,2
1,6,133,150,2
0,6,182,281,2
0,6,164,84,2
0,6,166,55,2
1,6,123,146,2
1,6,321,151,2
0,6,44,103,2
1,6,78,171,2
1,6,100,646,2
1,6,323,329,2
0,6,98,304,2
1,7,659,750,2
0,6,286,229,2
0,6,392,539,2
0,6,193,174,2
0,6,38,228,2
1,6,161,64,2
0,6,229,19,2
1,6,231,148,2
1,6,285,304,2
1,6,127,27,2
1,6,151,167,2
0,6,106,211,2
1,6,178,120,2
1,6,58,85,2
0,6,292,168,2
0,6,211,187,2
0,6,56,247,2
1,6,97,273,2
0,6,21,124,2
0,6,111,52,2
0,6,40,95,2
1,6,38,71,2
0,6,79,78,2
0,6,11,436,2
1,6,321,214,2
0,6,278,299,2
0,6,317,165,2
1,6,201,76,2
0,6,197,44,2
1,6,473,409,2
0,6,32,144,2
1,6,107,57,2
1,6,29,82,2
0,6,353,493,2
0,6,34,550,2
1,6,60,231,2
0,7,22,670,2
1,6,79,17,2
1,6,62,53,2
1,6,405,212,2
0,6,16,148,2
1,6,109,0,2
1,6,92,78,2
0,6,89,211,2
0,6,344,280,2
0,6,392,316,2
0,6,51,69,2
0,6,344,132,2
1,6,163,234,2
0,6,33,0,2
0,6,168,283,2
1,6,135,18,2
1,6,179,267,2
0,6,84,213,2
1,6,5,135,2
0,6,155,327,2
0,6,43,47,2
1,6,198,188,2
0,6,231,300,2
0,6,74,182,2
0,6,152,42,2
0,6,65,97,2
1,6,22,0,2
1,6,33,43,2
1,6,121,42,2
1,6,53,33,2
1,6,15,66,2
1,6,357,155,2
0,6,95,159,2
0,6,316,239,2
0,6,125,158,2
1,6,47,43,2
0,6,149,167,2
0,6,198,99,2
1,6,49,33,2
1,6,7,0,2
1,6,57,5,2
1,6,62,0,2
1,6,106,11,2
1,7,203,44,2
0,6,111,161,2
0,6,153,164,2
1,6,141,30,2
1,6,9,159,2
1,6,3,68,2
1,6,145,198,2
1,6,25,440,2
1,6,107,56,2
1,6,148,70,2
0,6,31,26,2
1,6,85,78,2
0,6,349,194,2
0,6,6,116,2
1,6,272,146,2
1,6,369,171,2
1,6,341,12,2
0,6,131,294,2
1,6,5,53,2
1,6,204,116,2
1,6,144,176,2
1,6,68,0,2
0,6,147,156,2
0,6,1,138,2
1,6,17,122,2
1,6,1,0,2
1,6,28,48,2
1,6,111,133,2
1,6,88,4,2
1,6,52,27,2
1,6,409,360,2
1,6,129,35,2
1,6,261,135,2
0,6,354,235,2
1,6,7,27,2
0,6,197,114,2
1,6,51,27,2
1,6,28,14,2
1,6,88,0,2
0,6,5,7,2
1,6,3,41,2
1,6,116,9,2
0,6,44,63,2
1,6,93,51,2
1,6,48,20,2
1,6,16,8,2
1,6,114,51,2
0,6,183,10,2
0,6,61,54,2
1,6,111,0,2
1,6,128,59,2
1,6,33,0,2
1,6,106,39,2
1,6,2,34,2
1,6,37,51,2
1,6,47,15,2
0,6,28,10,2
0,6,420,152,2
1,6,275,0,2
1,6,384,84,2
1,6,360,258,2
0,6,126,0,2
1,6,108,80,2
1,6,59,61,2
1,6,53,7,2
1,6,78,67,2
0,6,13,39,2
1,6,78,13,2
1,6,67,43,2
1,6,37,35,2
0,6,9,105,2
0,6,220,160,2
1,6,93,4,2
1,6,327,234,2
0,6,11,174,2
1,6,35,80,2
1,6,13,35,2
1,6,7,31,2
1,6,3,1,2
1,6,37,96,2
0,6,58,44,2
0,6,126,108,2
0,6,51,45,2
1,6,51,51,2
1,6,68,172,2
0,6,54,181,2
1,6,13,214,2
0,6,107,56,2
1,6,128,84,2
1,6,249,231,2
1,6,78,173,2
1,6,11,41,2
0,6,146,77,2
1,6,30,86,2
0,6,42,0,2
0,6,32,41,2
1,6,64,35,2
0,6,99,151,2
0,6,172,109,2
1,6,1,201,2
1,6,28,14,2
0,6,136,183,2
1,6,19,13,2
1,6,57,36,2
1,6,78,219,2
0,6,144,132,2
0,6,59,46,2
0,6,41,23,2
1,6,56,163,2
0,6,325,211,2
0,6,137,148,2
0,6,143,46,2
1,6,84,0,2
1,6,186,260,2
0,6,120,86,2
0,6,8,77,2
1,6,22,18,2
0,6,365,198,2
0,6,22,87,2
0,6,53,95,2
0,7,405,429,2
0,6,31,71,2
0,6,255,36,2
0,6,81,213,2
1,6,70,61,2
1,6,251,276,2
0,6,179,241,2
0,6,454,211,2
0,6,345,89,2
0,6,151,11,2
1,6,444,170,2
1,6,758,388,2
1,6,123,0,2
1,6,240,103,2
0,6,220,196,2
1,6,220,125,2
1,6,203,81,2
0,7,179,483,2
0,6,223,144,2
0,6,220,560,2
0,6,324,109,2
0,6,26,13,2
1,6,155,474,2
1,6,481,198,2
1,6,366,320,2
1,6,225,489,2
1,6,246,54,2
0,6,38,0,2
0,6,462,649,2
0,6,113,583,2
1,6,837,141,2
0,6,447,419,2
0,6,464,166,2
0,6,219,334,2
0,6,133,3,2
1,6,179,418,2
0,6,352,143,2
0,6,270,479,2
0,6,585,387,2
0,6,340,139,2
0,6,299,215,2
1,6,300,239,2
1,6,466,199,2
0,6,193,118,2
0,6,64,62,2
1,6,149,168,2
1,6,225,238,2
1,6,761,454,2
0,6,371,310,2
0,6,221,336,2
0,6,231,116,2
0,6,33,86,2
0,6,224,870,2
0,6,8,310,2
0,6,369,246,2
0,6,321,466,2
1,6,664,316,2
0,6,100,345,2
0,6,323,208,2
1,6,251,528,2
2,8,944,896,2
0,6,550,652,2
0,6,420,203,2
0,6,41,45,2
1,6,853,320,2
0,6,276,480,2
0,6,485,310,2
1,7,838,769,2
0,6,342,302,2
1,7,1023,805,2
509,523,432,241,2
497,495,1023,1023,2
324,329,369,197,2
57,63,577,305,2
134,140,297,542,2
25,40,289,1023,2
351,358,86,877,2
113,119,101,362,2
13,19,501,163,2
0,5,223,2,2
1,6,627,332,2
1,7,168,0,2
1,6,75,196,2
1,7,635,178,2
1,6,179,225,2
164,153,773,1023,2
301,305,504,37,2
645,665,1023,1023,2
487,506,119,1023,2
776,775,1023,1023,2
794,796,335,252,2
583,584,1023,1023,2
750,753,25,272,2
331,342,1023,621,2
110,116,518,626,2
14,20,95,701,2
0,5,310,441,2
1,6,170,218,2
1,7,534,434,2
1,7,420,460,2
1,6,124,139,2
1,7,199,424,2
411,427,1023,304,2
69,74,137,24,2
7,13,838,294,2
0,5,23,157,2
1,6,632,220,2
0,7,548,493,2
0,6,152,170,2
850,871,1023,1023,2
314,324,323,139,2
75,88,1023,586,2
612,616,187,592,2
817,815,1023,1023,2
764,765,171,264,2
171,176,931,733,2
24,30,892,343,2
0,5,525,524,2
1,6,875,133,2
1,7,99,55,2
1,7,239,288,2
1,7,365,323,2
1,7,147,188,2
1,7,547,75,2
1,6,43,229,2
1,6,400,48,2
1,7,63,131,2
1,6,115,123,2
104,95,447,847,2
97,103,547,297,2
12,18,60,170,2
0,5,607,290,2
0,6,316,188,2
0,6,501,338,2
483,485,1023,610,2
178,182,924,109,2
240,244,1023,882,2
358,365,1023,648,2
374,378,313,522,2
1006,1012,1023,1023,2
626,629,220,417,2
165,171,1023,909,2
25,30,499,36,2
0,5,245,9,2
606,611,1023,1023,2
347,351,58,412,2
804,802,1023,1023,2
420,424,752,379,2
83,89,141,268,2
7,13,288,154,2
0,5,130,353,2
1,7,32,713,2
1,6,218,317,2
2,7,731,757,2
1,7,682,428,2
1,6,276,261,2
0,6,323,381,2
0,6,419,413,2
1,6,470,459,2
1,6,660,259,2
0,6,407,480,2
1,6,212,120,2
1,6,65,139,2
1,6,371,86,2
1,6,443,184,2
1,6,7,136,2
1,7,877,611,2
0,6,23,109,2
1,6,721,756,2
0,6,256,425,2
1,6,334,736,2
0,6,111,21,2
1,6,872,108,2
0,6,28,177,2
0,6,280,12,2
0,7,180,336,2
0,6,229,164,2
1,6,580,217,2
0,6,91,279,2
0,6,921,890,2
4,9,525,592,2
0,5,113,176,2
0,6,12,298,2
1,7,464,551,2
1,6,341,473,2
3,9,788,870,2
0,6,995,822,2
0,6,633,570,2
0,5,415,489,2
0,5,632,503,2
0,6,330,36,2
0,6,27,0,2
1,7,716,624,2
0,6,133,112,2
0,6,633,620,2
0,6,60,107,2
0,7,713,585,2
0,6,93,435,2
0,6,362,178,2
0,6,90,338,2
1,6,255,585,2
0,6,6,89,2
1,6,354,686,2
0,6,22,87,2
0,6,6,239,2
0,6,149,2,2
0,6,83,230,2
1,7,354,521,2
0,6,257,142,2
0,6,186,205,2
0,6,90,59,2
0,6,512,383,2
0,6,470,403,2
0,6,21,128,2
1,6,471,416,2
1,6,387,131,2
0,6,273,2,2
0,6,16,387,2
1,6,35,225,2
0,6,116,74,2
0,6,48,138,2
1,6,194,416,2
0,6,307,0,2
0,6,199,109,2
1,7,768,881,2
0,6,297,442,2
0,6,187,362,2
0,6,107,227,2
0,6,171,302,2
1,7,377,701,2
0,6,206,254,2
0,6,454,463,2
1,6,127,161,2
0,6,125,109,2
0,6,133,196,2
0,6,114,30,2
0,6,129,357,2
1,6,450,436,2
1,6,110,43,2
1,6,211,86,2
0,6,9,19,2
1,6,120,105,2
1,6,26,34,2
1,6,193,63,2
0,6,146,81,2
0,6,200,400,2
0,6,177,476,2
0,6,66,93,2
1,6,176,201,2
0,7,301,266,2
1,6,147,51,2
0,6,477,594,2
0,6,8,5,2
0,6,296,270,2
0,6,95,262,2
1,5,37,0,2
0,6,245,237,2
1,6,98,8,2
1,6,85,16,2
1,6,59,5,2
1,6,268,144,2
1,6,172,39,2
1,6,433,207,2
1,6,283,572,2
0,6,52,200,2
0,6,251,68,2
1,6,231,185,2
0,6,39,334,2
0,6,27,177,2
1,6,27,25,2
1,6,243,120,2
1,6,322,54,2
1,6,208,263,2
1,6,266,0,2
1,6,322,111,2
1,6,358,408,2
0,6,134,320,2
0,6,104,169,2
1,6,5,73,2
1,6,433,200,2
1,7,102,288,2
0,6,275,335,2
0,6,6,248,2
1,6,366,429,2
0,6,12,251,2
1,6,30,0,2
1,6,39,109,2
1,6,357,380,2
1,6,102,0,2
0,6,159,103,2
0,6,122,153,2
1,6,46,88,2
1,6,260,108,2
1,6,469,404,2
0,6,20,12,2
1,6,545,364,2
0,6,63,19,2
0,6,252,11,2
1,6,19,162,2
0,6,26,31,2
1,6,157,115,2
1,6,220,5,2
1,6,26,197,2
1,6,94,124,2
1,7,399,681,2
0,6,180,160,2
1,7,834,606,2
0,6,280,310,2
0,6,37,10,2
1,6,141,98,2
1,6,104,127,2
0,6,98,34,2
0,6,155,291,2
1,6,1,23,2
0,6,45,68,2
1,7,418,236,2
0,6,209,239,2
0,6,191,265,2
0,6,172,119,2
0,7,587,230,2
0,6,127,0,2
0,6,250,245,2
0,6,7,56,2
0,7,375,288,2
0,6,31,154,2
0,6,348,168,2
0,6,108,158,2
1,6,17,177,2
1,6,99,247,2
1,6,15,83,2
0,6,108,312,2
1,6,63,3,2
0,6,402,323,2
0,6,78,229,2
1,6,635,400,2
0,6,86,116,2
0,6,592,252,2
1,6,377,263,2
0,6,311,137,2
0,6,95,19,2
0,6,78,33,2
1,6,23,72,2
1,6,61,35,2
1,6,107,157,2
0,6,65,107,2
0,6,217,150,2
0,6,261,38,2
1,6,158,26,2
1,6,269,80,2
0,6,215,111,2
1,6,7,47,2
1,7,457,263,2
0,6,9,11,2
1,6,22,42,2
0,6,23,159,2
1,6,99,39,2
0,6,1,102,2
0,6,46,0,2
1,6,452,179,2
0,6,183,260,2
1,6,263,38,2
1,6,415,356,2
0,6,22,131,2
1,6,441,341,2
0,6,135,121,2
1,6,143,0,2
1,6,469,258,2
1,6,65,66,2
1,6,261,134,2
1,6,334,136,2
0,6,41,23,2
1,6,220,62,2
1,6,83,81,2
1,6,93,22,2
1,6,299,125,2
0,6,34,53,2
1,6,87,0,2
1,6,96,21,2
1,6,239,37,2
1,6,116,40,2
1,6,235,38,2
0,6,33,0,2
1,6,136,0,2
1,6,45,122,2
0,6,43,23,2
1,6,157,189,2
1,6,141,0,2
0,6,146,73,2
1,6,46,44,2
1,6,40,1,2
1,6,47,0,2
1,6,99,0,2
1,6,10,58,2
1,6,45,41,2
1,6,57,59,2
0,6,6,133,2
1,6,22,13,2
1,6,3,52,2
1,6,112,51,2
1,6,322,156,2
0,6,121,74,2
1,6,32,53,2
0,6,285,146,2
1,6,90,18,2
1,6,23,5,2
1,6,3,57,2
1,6,48,63,2
1,6,13,35,2
1,6,62,44,2
1,6,31,56,2
1,6,56,67,2
1,6,41,26,2
1,6,102,2,2
1,6,113,29,2
1,6,30,65,2
1,6,241,105,2
1,6,125,74,2
1,7,373,158,2
0,6,52,54,2
0,6,251,63,2
1,6,458,277,2
0,6,172,178,2
1,6,273,172,2
0,6,237,200,2
1,6,110,52,2
0,6,87,93,2
1,6,179,123,2
1,6,55,52,2
0,6,217,142,2
0,6,101,118,2
1,6,119,0,2
1,6,179,207,2
1,6,30,64,2
1,6,169,154,2
1,6,109,93,2
1,6,17,17,2
0,6,119,111,2
0,6,94,105,2
0,6,128,31,2
1,6,22,0,2
0,6,126,0,2
0,6,290,412,2
0,6,2,65,2
1,6,211,181,2
0,6,177,172,2
0,6,231,180,2
1,6,10,0,2
1,6,50,0,2
1,6,143,182,2
1,6,41,19,2
0,6,211,0,2
1,6,45,111,2
1,6,405,385,2
0,6,155,297,2
0,6,334,314,2
1,7,457,614,2
1,6,234,201,2
0,6,29,276,2
0,6,161,10,2
1,6,151,9,2
1,6,133,25,2
1,6,164,139,2
1,6,303,221,2
1,6,302,255,2
0,6,79,52,2
1,6,7,0,2
0,6,195,15,2
0,6,45,191,2
0,6,80,165,2
0,6,365,443,2
0,6,309,36,2
0,6,363,608,2
0,6,81,3,2
1,6,150,287,2
0,6,53,0,2
1,6,184,322,2
1,6,477,243,2
0,6,491,61,2
0,6,107,95,2
1,6,628,375,2
1,7,1023,713,2
0,6,2,0,2
0,6,37,86,2
1,6,580,244,2
0,6,380,262,2
206,212,469,125,2
69,74,962,362,2
6,12,918,443,2
0,5,168,14,2
0,6,985,592,2
0,6,44,197,2
1,6,399,608,2
1,6,393,59,2
1,6,318,577,2
0,6,235,116,2
0,6,173,294,2
1,7,1023,683,2
0,5,71,143,2
1,7,938,887,2
0,6,403,3,2
0,6,247,114,2
1,6,164,47,2
0,6,410,113,2
1,7,1023,473,2
0,5,258,16,2
1,7,710,1023,2
1,6,1023,385,2
0,6,108,25,2
590,595,1023,845,2
415,419,23,256,2
95,102,991,1023,2
11,18,404,279,2
0,5,384,535,2
0,6,735,289,2
590,592,828,1023,2
120,125,238,217,2
716,703,1023,1023,2
180,186,191,691,2
29,34,548,173,2
0,5,517,650,2
0,6,435,22,2
1,6,237,136,2
2,7,776,868,2
2,7,1023,724,2
34,40,302,508,2
3,8,200,84,2
484,494,1023,368,2
212,217,77,105,2
42,48,352,102,2
1,7,615,607,2
0,6,340,70,2
1,7,1023,362,2
1,6,171,54,2
1,6,481,112,2
1,6,135,18,2
0,6,37,257,2
1,7,121,890,2
0,6,207,136,2
0,6,34,519,2
1,6,375,376,2
1,6,127,173,2
1,6,588,470,2
1,6,339,57,2
0,6,408,221,2
138,144,570,445,2
55,61,918,370,2
3,10,662,750,2
0,5,167,269,2
0,6,13,182,2
1,6,500,581,2
0,6,163,261,2
0,6,409,348,2
0,6,406,324,2
1,7,662,599,2
0,6,82,99,2
1,7,698,82,2
0,6,451,504,2
1,7,939,555,2
0,6,342,498,2
0,6,284,108,2
1023,1023,1023,1023,2
587,598,479,150,2
610,608,1023,1023,2
929,932,23,87,2
795,795,1023,1023,2
864,866,325,292,2
784,782,1023,1023,2
276,281,13,368,2
49,54,70,109,2
1,7,530,136,2
0,6,448,689,2
1,7,329,787,2
121,126,208,79,2
22,28,60,232,2
0,5,14,627,2
0,7,708,805,2
1,6,328,52,2
1,7,113,375,2
623,626,1023,1023,2
112,117,237,125,2
119,104,1023,1010,2
691,712,1023,1023,2
239,244,606,460,2
45,51,102,161,2
746,745,1023,1023,2
355,359,1023,48,2
427,430,1023,1023,2
557,561,1023,594,2
97,103,1023,979,2
120,132,1023,343,2
229,218,1023,1023,2
331,335,885,53,2
186,191,875,1023,2
36,41,32,541,2
0,5,674,1023,2
41,46,918,417,2
271,275,1020,1023,2
878,882,1023,1023,2
249,261,892,1023,2
596,596,1023,1023,2
894,896,45,212,2
666,668,1023,1023,2
465,469,8,219,2
94,99,332,289,2
9,15,803,322,2
0,5,138,355,2
573,574,1023,1023,2
184,189,626,416,2
31,36,761,239,2
0,6,138,20,2
0,6,25,614,2
1,7,551,695,2
433,446,770,1023,2
30,35,881,598,2
1,7,340,8,2
0,6,650,551,2
0,6,452,554,2
0,7,614,354,2
1,6,251,281,2
1,6,192,781,2
0,6,290,571,2
2,7,1023,982,2
0,5,441,271,2
0,7,560,671,2
0,6,9,281,2
1,6,96,6,2
1,6,559,141,2
0,6,590,213,2
1,6,254,150,2
1,6,416,134,2
0,6,12,477,2
0,6,379,229,2
0,6,487,390,2
0,7,573,457,2
0,6,295,26,2
1,6,216,94,2
1,7,679,455,2
0,6,304,92,2
0,6,408,330,2
1,6,165,133,2
0,6,285,28,2
0,6,76,198,2
0,6,201,215,2
1,7,836,388,2
0,6,350,153,2
0,6,784,670,2
0,6,809,394,2
0,5,274,397,2
0,6,577,494,2
0,6,259,51,2
1,6,511,344,2
0,6,117,67,2
0,7,834,550,2
0,6,82,258,2
10,16,1023,633,2
0,5,65,137,2
0,6,470,311,2
1,6,22,102,2
0,6,40,180,2
1,6,324,335,2
1,6,234,223,2
0,6,156,268,2
1,6,317,203,2
0,6,70,175,2
1,7,625,606,2
0,6,105,50,2
0,6,165,210,2
0,6,85,78,2
0,6,4,51,2
1,6,77,114,2
1,6,279,389,2
0,6,187,82,2
1,6,386,192,2
1,6,327,148,2
1,6,4,57,2
1,6,209,93,2
0,6,87,332,2
1,7,557,674,2
0,6,221,91,2
1,6,259,281,2
0,6,138,71,2
1,6,425,554,2
0,6,42,291,2
1,7,741,565,2
0,6,17,53,2
1,6,422,335,2
0,6,162,551,2
0,6,89,243,2
1,6,270,0,2
1,6,50,59,2
1,6,31,84,2
0,6,37,272,2
1,6,145,505,2
0,6,129,388,2
1,6,137,54,2
0,6,115,312,2
0,6,160,441,2
1,6,60,25,2
1,6,150,60,2
0,7,331,80,2
1,6,185,94,2
1,6,454,0,2
0,6,7,146,2
1,6,224,0,2
1,6,91,122,2
1,6,137,294,2
1,6,128,91,2
0,6,128,261,2
0,6,15,60,2
1,6,359,93,2
1,6,263,64,2
0,6,149,137,2
1,6,151,244,2
0,6,77,48,2
0,7,147,46,2
1,6,132,170,2
0,6,60,16,2
1,6,179,18,2
1,6,67,151,2
1,6,292,171,2
1,6,271,403,2
1,6,132,707,2
1,7,101,982,2
0,6,191,445,2
1,6,17,0,2
0,6,372,164,2
0,6,4,315,2
1,6,645,297,2
0,6,44,189,2
0,6,220,74,2
1,6,206,125,2
0,6,145,217,2
1,6,308,387,2
0,6,90,93,2
1,6,213,340,2
0,6,113,477,2
0,6,18,0,2
0,6,240,329,2
1,6,78,85,2
0,6,428,199,2
1,7,71,135,2
1,6,302,192,2
1,6,18,33,2
1,6,177,213,2
1,6,214,0,2
0,6,338,345,2
1,6,246,340,2
1,6,23,8,2
0,6,11,94,2
1,6,26,20,2
1,6,144,198,2
0,6,80,339,2
0,6,173,136,2
0,6,5,283,2
1,7,384,271,2
1,6,291,349,2
0,6,235,145,2
1,6,140,12,2
0,6,141,134,2
1,6,379,141,2
0,6,236,407,2
1,6,107,169,2
1,6,172,14,2
0,6,251,335,2
0,6,178,158,2
0,6,504,366,2
0,6,200,173,2
0,6,79,125,2
0,6,368,234,2
0,6,34,395,2
0,7,121,413,2
26,33,212,385,2
15,20,14,106,2
0,5,88,197,2
0,6,307,350,2
1,6,171,154,2
1,6,316,249,2
0,6,69,168,2
0,6,489,301,2
0,6,156,138,2
1,6,257,228,2
0,6,97,115,2
0,7,264,304,2
0,6,285,48,2
0,6,243,145,2
1,6,48,423,2
1,6,32,42,2
1,6,25,179,2
0,6,269,132,2
1,6,6,27,2
1,6,228,107,2
1,6,263,102,2
0,6,409,269,2
0,6,255,33,2
0,6,298,209,2
1,6,4,24,2
0,6,50,63,2
1,6,67,90,2
1,6,120,101,2
1,6,292,53,2
1,6,270,47,2
1,6,313,250,2
1,6,86,37,2
1,6,466,311,2
1,6,422,242,2
1,6,638,500,2
0,6,30,24,2
0,6,444,327,2
0,6,286,237,2
0,6,151,0,2
1,6,39,0,2
1,6,33,29,2
0,6,212,166,2
1,6,53,60,2
1,6,57,10,2
1,6,54,17,2
1,6,22,163,2
1,6,93,3,2
0,6,84,94,2
1,6,161,87,2
0,6,255,0,2
0,6,105,152,2
1,6,71,0,2
0,6,270,164,2
0,6,233,4,2
1,6,485,396,2
1,6,109,39,2
1,6,324,116,2
0,6,210,222,2
1,6,120,81,2
0,6,100,32,2
1,6,154,0,2
1,6,7,49,2
1,6,223,90,2
1,6,117,83,2
1,6,134,80,2
1,6,269,156,2
1,6,125,49,2
0,6,626,329,2
0,6,4,57,2
1,6,440,186,2
0,6,324,187,2
1,6,99,21,2
1,6,102,87,2
1,6,30,0,2
1,6,62,40,2
1,6,57,0,2
1,6,41,3,2
1,6,49,42,2
0,6,66,0,2
1,6,6,46,2
1,6,60,29,2
0,6,120,32,2
1,6,75,0,2
0,6,21,54,2
1,6,168,2,2
1,6,290,144,2
1,6,47,44,2
1,6,148,85,2
0,6,482,259,2
0,6,123,209,2
0,6,101,82,2
1,6,389,267,2
1,6,342,339,2
1,6,212,194,2
0,6,287,193,2
1,6,90,53,2
1,6,131,4,2
0,6,61,124,2
0,6,18,8,2
1,6,16,78,2
1,6,102,36,2
0,6,76,28,2
1,6,35,11,2
1,6,2,26,2
0,6,150,12,2
1,6,48,111,2
1,6,64,25,2
1,6,32,69,2
1,6,306,274,2
0,6,100,47,2
0,6,23,92,2
1,6,27,76,2
0,6,35,63,2
1,6,10,76,2
1,6,19,15,2
0,6,8,4,2
1,6,10,0,2
1,6,189,75,2
1,6,289,162,2
0,6,7,11,2
1,6,84,22,2
1,6,4,0,2
1,6,221,0,2
0,6,25,102,2
0,6,13,154,2
1,6,138,125,2
1,6,16,3,2
1,6,42,53,2
0,6,91,15,2
0,6,74,84,2
1,6,156,183,2
1,6,109,116,2
1,6,229,14,2
0,7,2,242,2
1,6,40,195,2
0,6,47,163,2
0,6,201,84,2
0,6,62,185,2
1,6,155,77,2
1,6,181,168,2
1,6,10,54,2
1,6,612,566,2
0,6,41,38,2
0,6,177,57,2
0,6,31,283,2
1,6,77,2,2
1,6,231,208,2
0,6,292,120,2
0,6,84,229,2
1,6,40,237,2
0,6,406,366,2
0,6,83,61,2
1,6,80,187,2
1,6,91,28,2
1,6,638,327,2
0,6,245,204,2
1,6,228,135,2
1,6,299,429,2
0,6,129,252,2
1,6,155,272,2
0,6,457,245,2
0,6,115,59,2
0,6,353,230,2
1,6,104,159,2
0,6,187,14,2
1,6,659,371,2
1,6,231,518,2
0,6,404,370,2
1,6,26,225,2
0,6,207,279,2
1,6,407,228,2
0,6,304,352,2
1,6,426,428,2
0,6,268,250,2
0,6,83,196,2
1,6,459,514,2
0,6,114,280,2
1,6,817,29,2
0,6,32,174,2
0,6,508,82,2
0,6,190,91,2
1,6,646,367,2
0,6,406,282,2
0,6,175,138,2
1,6,309,52,2
0,6,260,25,2
0,6,60,477,2
1,7,874,121,2
0,6,276,155,2
1,6,745,314,2
0,5,33,282,2
1,7,724,808,2
0,6,486,365,2
0,6,409,289,2
0,6,350,174,2
0,6,558,452,2
0,6,461,92,2
0,6,221,205,2
0,6,332,246,2
0,6,14,124,2
1,6,803,471,2
0,6,163,196,2
0,6,528,508,2
0,6,222,67,2
0,6,380,306,2
1,6,747,56,2
1,6,125,249,2
1,6,238,362,2
393,410,1023,968,2
164,169,209,270,2
30,36,588,320,2
0,6,264,174,2
0,5,176,215,2
1,6,73,264,2
526,535,99,1023,2
47,53,298,804,2
4,9,496,328,2
0,5,317,198,2
0,6,113,450,2
1,6,490,434,2
5,10,1023,709,2
0,5,274,661,2
0,5,27,282,2
1,7,672,896,2
0,6,111,19,2
0,6,395,392,2
0,6,168,0,2
1,6,634,278,2
778,756,1023,1023,2
178,183,547,163,2
28,34,492,332,2
0,5,812,531,2
823,837,1023,1023,2
305,309,161,2,2
57,63,61,279,2
136,146,28,748,2
273,285,372,1023,2
68,74,1023,894,2
6,12,344,916,2
0,5,769,716,2
0,5,537,193,2
310,318,738,661,2
130,136,453,488,2
17,23,573,32,2
0,5,172,345,2
0,6,103,312,2
1,6,48,355,2
1,7,695,486,2
15,19,485,975,2
531,534,964,1023,2
100,105,355,712,2
201,207,1023,216,2
55,61,647,30,2
3,8,533,1023,2
122,127,73,169,2
20,25,762,548,2
409,418,1007,502,2
165,170,226,240,2
111,100,1023,654,2
114,119,615,144,2
15,20,42,284,2
0,5,631,756,2
1,6,41,22,2
1,7,381,58,2
605,606,1023,1023,2
227,234,1023,862,2
365,369,1023,1023,2
846,848,1023,781,2
230,234,1023,1023,2
532,536,204,410,2
106,112,484,147,2
552,558,1023,864,2
94,84,1023,717,2
179,184,707,382,2
363,386,1023,1023,2
724,731,579,801,2
352,355,1023,1023,2
282,318,888,1009,2
477,492,978,941,2
216,221,897,70,2
34,40,423,790,2
0,5,987,465,2
0,6,214,581,2
37,44,304,700,2
15,20,620,56,2
0,5,295,172,2
0,6,682,172,2
1,7,795,743,2
0,5,146,135,2
474,475,1023,1023,2
583,586,291,36,2
34,34,1015,1023,2
619,619,1023,1023,2
731,732,542,127,2
614,619,1023,1023,2
763,765,615,234,2
657,645,1023,1023,2
705,709,834,109,2
407,410,1023,1023,2
218,223,159,4,2
37,43,429,449,2
1,6,10,182,2
0,6,244,164,2
2,8,1023,822,2
1,6,544,82,2
1,7,573,670,2
1,6,198,61,2
1,6,147,86,2
1,7,485,326,2
1,6,258,5,2
1,6,70,298,2
1,6,818,596,2
0,6,267,3,2
1,7,782,243,2
0,6,144,193,2
1,6,72,123,2
1,6,297,336,2
1,6,385,140,2
1,6,511,331,2
1,6,70,160,2
1,6,453,293,2
0,6,125,166,2
0,6,286,407,2
0,6,524,506,2
0,6,340,338,2
0,6,59,252,2
0,6,403,156,2
1,7,436,738,2
387,377,1023,1023,2
45,51,545,481,2
87,94,572,394,2
41,46,707,502,2
2,8,88,59,2
0,5,42,76,2
0,6,210,180,2
1,6,649,122,2
1,7,893,738,2
0,6,356,343,2
1023,1023,1023,1023,2
362,372,239,9,2
67,74,692,1007,2
5,11,340,388,2
177,181,194,27,2
43,48,110,227,2
1,7,151,665,2
0,6,425,406,2
1,7,101,109,2
1,7,444,32,2
1,6,29,55,2
1,6,94,198,2
1,7,769,245,2
1,6,72,11,2
1,6,563,200,2
1,6,70,22,2
1,6,1,0,2
1,6,134,0,2
0,6,12,44,2
1,6,202,193,2
1,6,22,48,2
1,6,297,212,2
0,6,25,314,2
0,7,405,708,2
1,6,235,768,2
0,6,112,222,2
0,6,34,12,2
1,6,83,94,2
1,6,167,168,2
1,7,605,359,2
0,6,269,266,2
249,274,1023,656,2
184,188,341,79,2
36,41,437,204,2
0,6,709,524,2
0,5,67,85,2
0,6,345,227,2
1,6,63,13,2
1,6,98,24,2
1,7,201,214,2
1,6,153,45,2
1,6,188,524,2
0,6,17,286,2
1,6,126,67,2
1,6,69,130,2
1,6,130,90,2
1,6,273,134,2
1,6,21,180,2
1,6,282,19,2
1,6,162,0,2
0,6,20,203,2
1,6,116,286,2
1,7,126,507,2
1,6,176,17,2
1,6,14,211,2
1,6,38,667,2
1,6,613,406,2
0,6,268,22,2
1,6,507,499,2
0,6,561,399,2
0,6,73,259,2
1,6,385,148,2
1,6,66,49,2
1,6,521,588,2
0,6,331,254,2
0,6,254,228,2
0,6,446,467,2
0,6,309,694,2
0,6,8,90,2
1,6,71,92,2
0,6,513,77,2
0,6,38,249,2
1,6,710,511,2
0,6,157,187,2
1,6,229,126,2
0,6,275,320,2
0,6,121,226,2
1,6,316,550,2
0,6,315,139,2
0,6,212,538,2
0,6,172,130,2
1,6,191,48,2
1,6,288,196,2
1,6,92,205,2
1,6,76,395,2
1,6,104,280,2
0,6,27,267,2
1,6,96,247,2
1,6,145,194,2
1,6,157,396,2
1,6,122,5,2
1,6,311,50,2
1,7,280,766,2
1,6,29,5,2
1,6,25,263,2
0,6,214,465,2
0,6,11,333,2
0,6,51,148,2
1,6,69,132,2
0,6,46,162,2
1,6,67,260,2
0,6,26,140,2
1,6,377,355,2
1,6,209,200,2
0,6,218,0,2
1,6,122,113,2
0,6,130,104,2
1,6,239,116,2
0,6,493,595,2
0,6,10,87,2
1,6,389,225,2
0,6,19,92,2
0,6,107,131,2
0,6,81,40,2
0,6,259,142,2
0,6,257,171,2
0,6,396,434,2
0,6,44,131,2
1,6,126,49,2
0,6,259,0,2
1,6,76,171,2
1,6,107,0,2
1,6,32,206,2
1,6,155,0,2
1,6,232,107,2
1,6,159,185,2
1,6,174,277,2
0,6,204,115,2
1,6,46,26,2
1,6,28,94,2
1,6,27,323,2
0,6,166,285,2
0,6,418,358,2
0,6,142,190,2
1,7,689,465,2
1,6,494,383,2
0,6,290,14,2
0,7,536,436,2
0,6,197,51,2
0,6,291,191,2
1,6,198,145,2
1,6,103,27,2
1,6,346,226,2
0,6,200,302,2
1,6,112,36,2
0,6,136,160,2
1,7,160,30,2
0,6,2,118,2
1,6,118,98,2
0,6,183,218,2
0,6,87,23,2
1,6,380,238,2
0,6,60,157,2
0,6,407,302,2
0,6,4,245,2
1,6,377,312,2
0,6,392,330,2
1,6,60,216,2
0,6,168,178,2
0,6,184,209,2
0,6,7,111,2
1,6,9,15,2
1,6,35,42,2
0,6,123,0,2
1,6,85,67,2
1,6,10,0,2
1,6,185,145,2
0,6,15,175,2
1,6,21,89,2
1,6,17,72,2
1,6,240,0,2
0,6,188,81,2
0,6,303,228,2
0,6,178,87,2
1,6,2,55,2
1,6,81,12,2
1,6,115,81,2
1,6,4,39,2
1,6,37,18,2
1,6,43,24,2
1,6,40,35,2
0,6,28,60,2
0,6,51,136,2
1,7,228,115,2
0,6,340,307,2
0,6,92,7,2
0,6,444,196,2
0,6,548,297,2
0,6,9,51,2
1,6,253,175,2
1,6,67,202,2
1,6,13,14,2
0,6,100,61,2
1,6,81,81,2
1,6,216,16,2
1,6,85,46,2
1,6,164,138,2
0,6,81,9,2
1,6,9,27,2
1,6,61,23,2
1,6,21,0,2
1,6,57,42,2
1,6,31,25,2
1,6,116,68,2
0,6,45,30,2
1,6,82,39,2
0,6,36,10,2
1,6,145,0,2
1,6,213,126,2
1,6,10,0,2
0,6,41,0,2
1,6,35,17,2
1,6,12,38,2
1,6,93,92,2
1,6,5,93,2
0,6,5,9,2
1,6,134,49,2
0,6,39,184,2
0,6,142,15,2
1,6,38,9,2
1,6,97,0,2
0,6,41,0,2
1,6,205,158,2
1,6,236,42,2
1,6,142,13,2
1,6,208,71,2
0,6,11,0,2
1,6,73,60,2
1,6,7,39,2
0,6,94,77,2
1,6,87,124,2
1,6,24,78,2
1,6,16,13,2
1,6,30,1,2
1,6,3,48,2
1,6,12,102,2
1,6,67,0,2
1,6,15,7,2
1,6,253,225,2
1,6,204,28,2
1,6,213,120,2
0,6,238,136,2
1,6,79,45,2
0,6,115,52,2
1,6,20,19,2
1,6,9,0,2
1,6,165,49,2
1,6,29,53,2
0,6,7,9,2
0,6,5,29,2
1,6,286,88,2
1,6,16,73,2
1,6,159,81,2
1,6,107,121,2
1,6,87,56,2
1,6,7,0,2
1,6,136,20,2
1,6,121,112,2
0,6,2,74,2
1,6,51,15,2
1,6,20,46,2
1,6,11,38,2
1,6,206,176,2
1,6,138,122,2
1,6,47,43,2
1,6,23,40,2
1,6,2,37,2
1,6,228,149,2
0,6,309,200,2
1,6,56,11,2
1,6,130,97,2
1,6,110,107,2
1,6,246,120,2
0,6,212,0,2
0,6,42,172,2
0,6,36,66,2
1,6,8,36,2
1,6,16,37,2
0,6,124,58,2
1,6,111,136,2
1,6,166,161,2
1,6,222,37,2
1,6,39,76,2
1,6,31,30,2
1,6,78,18,2
0,6,6,30,2
1,6,362,295,2
1,6,173,302,2
0,6,16,105,2
0,6,120,162,2
1,6,42,125,2
0,6,132,334,2
1,6,54,40,2
0,6,135,15,2
1,6,230,81,2
1,6,34,0,2
1,6,241,103,2
1,6,161,23,2
1,6,396,80,2
0,6,400,385,2
0,6,127,73,2
1,6,297,220,2
1,7,575,440,2
1,6,673,243,2
0,6,7,33,2
0,6,51,299,2
1,6,54,155,2
0,6,73,130,2
1,6,228,99,2
0,6,170,267,2
0,6,107,140,2
1,6,18,9,2
1,7,551,672,2
0,6,350,23,2
0,6,411,95,2
0,6,343,61,2
0,6,99,118,2
1,6,91,76,2
1,6,209,348,2
0,6,290,354,2
1,6,325,196,2
1,6,639,479,2
0,6,202,309,2
0,6,99,112,2
0,6,34,303,2
1,6,121,13,2
1,6,40,12,2
1,6,112,63,2
0,7,543,674,2
0,6,84,121,2
1,6,182,64,2
1,6,273,262,2
0,6,234,20,2
1,7,375,598,2
1,6,573,124,2
1,6,363,337,2
1,7,1023,682,2
0,7,788,571,2
1,6,748,491,2
0,5,271,178,2
0,6,465,495,2
0,6,431,187,2
0,6,170,99,2
0,6,277,519,2
1,6,460,502,2
1,6,339,13,2
1,6,27,221,2
0,6,93,693,2
1,7,324,595,2
573,574,1023,884,2
150,155,430,43,2
23,28,836,337,2
0,5,38,296,2
0,5,135,83,2
593,593,872,1023,2
20,23,821,1023,2
46,52,116,583,2
5,11,335,243,2
597,601,454,1023,2
102,107,41,20,2
13,19,254,407,2
0,5,47,308,2
1,8,413,1023,2
0,6,113,50,2
1,6,770,220,2
180,147,982,1023,2
352,362,920,650,2
63,71,878,809,2
3,10,660,734,2
0,6,963,502,2
121,127,473,638,2
36,42,901,756,2
4,9,314,181,2
0,5,8,38,2
68,74,359,649,2
10,16,476,6,2
0,5,178,297,2
0,6,471,19,2
1,6,200,369,2
1,6,496,147,2
1,6,439,480,2
1,7,373,816,2
0,6,531,294,2
0,6,105,318,2
1,6,82,589,2
119,150,282,1023,2
202,207,307,548,2
42,48,129,318,2
2,7,455,130,2
0,5,320,11,2
1,6,677,127,2
0,6,192,14,2
1,7,1023,638,2
28,34,272,439,2
582,583,1023,779,2
388,367,516,1023,2
185,186,1023,933,2
313,317,303,19,2
150,160,972,772,2
92,97,739,603,2
9,15,813,722,2
0,5,525,416,2
0,6,191,599,2
1,7,168,165,2
1,7,508,400,2
1,6,359,8,2
1,7,1023,613,2
1,6,311,950,2
1023,1023,1023,1023,2
477,481,28,195,2
767,772,1023,1023,2
129,139,1023,841,2
735,746,844,300,2
328,333,1023,1002,2
297,301,77,18,2
143,148,419,443,2
31,37,351,831,2
0,6,187,522,2
0,5,165,100,2
912,882,1023,1023,2
220,228,1023,245,2
568,582,956,782,2
320,327,1023,968,2
243,248,418,647,2
45,51,5,268,2
1,7,781,506,2
266,290,1023,789,2
358,365,861,586,2
294,281,1023,1023,2
125,131,319,342,2
17,23,11,156,2
0,5,774,473,2
0,6,33,139,2
1,7,501,141,2
2,7,633,854,2
1,7,619,487,2
1,6,438,23,2
371,388,852,1023,2
525,528,258,263,2
124,130,763,1023,2
17,23,175,114,2
0,5,276,609,2
0,6,334,93,2
1,6,303,11,2
1,6,300,183,2
1,6,192,161,2
1,6,275,218,2
1,7,265,497,2
1,6,396,566,2
103,109,486,243,2
31,36,716,765,2
1,7,374,150,2
0,5,485,291,2
347,358,797,728,2
165,171,736,778,2
24,31,203,353,2
0,5,70,50,2
1,6,627,558,2
1,6,382,380,2
1,7,737,488,2
0,6,403,350,2
1,6,126,592,2
1,6,191,550,2
1,6,131,136,2
1,7,1023,116,2
1,6,637,248,2
0,6,317,334,2
2,8,1023,508,2
0,6,333,48,2
1,7,768,711,2
0,6,457,610,2
0,6,342,271,2
0,6,11,267,2
0,6,395,233,2
1,6,388,515,2
1,6,307,202,2
0,6,116,201,2
0,6,41,59,2
1,6,525,464,2
0,6,239,108,2
0,6,4,48,2
1,6,108,205,2
1,6,216,102,2
1,6,172,242,2
1,6,345,32,2
0,6,119,171,2
1,6,306,0,2
0,6,176,302,2
1,6,65,376,2
0,6,175,54,2
0,6,121,303,2
1,6,205,21,2
1,6,281,230,2
1,6,541,319,2
0,6,5,328,2
1,6,592,560,2
1,6,147,227,2
1,6,104,105,2
1,6,29,251,2
1,6,316,256,2
0,6,143,275,2
0,6,214,15,2
1,6,29,0,2
0,6,89,0,2
1,6,56,26,2
1,6,183,118,2
0,6,75,160,2
1,6,132,31,2
1,6,235,433,2
1,7,244,565,2
0,6,271,180,2
1,6,15,40,2
1,7,434,487,2
1,6,481,420,2
1,6,360,267,2
0,6,224,128,2
0,6,148,285,2
0,6,162,123,2
0,6,195,247,2
1,6,220,138,2
1,6,139,35,2
1,7,631,504,2
1,6,183,198,2
1,6,262,437,2
0,6,204,112,2
0,6,30,109,2
0,6,129,7,2
1,6,666,374,2
0,6,24,31,2
0,6,214,52,2
1,6,326,329,2
1,6,93,152,2
1,6,142,0,2
1,6,10,81,2
1,6,155,139,2
1,7,381,925,2
1,6,127,3,2
1,6,145,376,2
1,6,14,33,2
1,6,161,197,2
0,6,18,89,2
0,6,345,208,2
1,6,166,43,2
1,6,119,109,2
0,6,108,168,2
1,6,32,153,2
1,6,174,216,2
1,6,78,64,2
1,6,84,138,2
1,6,207,134,2
1,6,147,342,2
0,6,261,313,2
0,6,69,226,2
0,6,194,381,2
0,6,122,53,2
1,6,174,0,2
1,6,293,272,2
1,6,142,46,2
0,6,82,175,2
0,6,40,268,2
0,6,181,119,2
1,6,191,338,2
0,6,295,133,2
122,127,272,187,2
27,33,395,570,2
0,6,421,22,2
0,5,309,308,2
0,6,157,366,2
1,6,1,137,2
1,6,49,156,2
1,6,200,160,2
1,6,277,361,2
1,6,91,101,2
0,6,230,142,2
1,6,12,175,2
1,6,132,225,2
0,6,179,36,2
0,6,16,110,2
0,6,37,186,2
0,6,324,207,2
0,6,242,150,2
1,6,376,301,2
0,6,524,205,2
1,6,9,159,2
0,6,195,240,2
1,6,127,388,2
1,6,258,529,2
1,6,125,138,2
1,6,81,159,2
1,6,222,234,2
0,6,46,187,2
1,6,520,607,2
1,6,472,625,2
0,6,184,33,2
1,6,446,238,2
0,6,324,245,2
1,6,372,20,2
0,6,165,0,2
1,6,58,97,2
1,6,212,187,2
1,6,294,307,2
0,6,364,167,2
0,6,13,162,2
1,6,207,63,2
1,6,47,175,2
1,6,512,181,2
0,6,311,357,2
0,6,352,235,2
1,7,718,669,2
0,6,513,245,2
0,6,639,429,2
0,6,112,132,2
1,6,632,383,2
0,6,201,183,2
0,6,113,15,2
0,6,283,289,2
1,6,16,28,2
0,6,242,99,2
0,6,127,79,2
0,6,156,162,2
1,6,125,34,2
1,6,116,150,2
1,6,100,123,2
1,6,148,97,2
1,6,353,314,2
0,6,112,146,2
0,6,92,138,2
1,7,377,176,2
1,6,170,64,2
1,6,17,1,2
1,6,186,63,2
1,6,42,58,2
0,6,78,101,2
0,6,2,0,2
0,6,85,43,2
0,6,142,26,2
1,6,101,42,2
1,6,42,8,2
1,6,105,106,2
0,6,154,119,2
1,6,202,0,2
1,7,409,240,2
1,6,179,8,2
0,6,182,42,2
0,6,91,60,2
1,6,132,11,2
0,6,69,66,2
1,6,36,28,2
1,6,289,134,2
0,6,55,137,2
1,6,204,75,2
1,6,312,118,2
0,6,251,120,2
0,6,197,28,2
1,6,137,179,2
0,6,204,131,2
0,6,6,11,2
0,6,122,0,2
0,6,6,54,2
0,6,30,80,2
0,6,23,38,2
1,6,37,0,2
1,6,13,26,2
1,6,39,40,2
1,6,23,13,2
0,6,40,27,2
1,6,113,40,2
0,6,6,9,2
1,6,169,62,2
1,6,8,71,2
0,6,66,0,2
1,6,196,35,2
1,6,325,139,2
0,6,26,31,2
0,6,115,23,2
1,6,52,149,2
1,6,249,72,2
1,6,100,55,2
1,6,118,48,2
1,6,115,15,2
1,6,72,0,2
1,6,50,69,2
1,6,124,71,2
0,6,119,32,2
1,6,47,0,2
1,6,90,55,2
1,6,32,39,2
1,6,135,12,2
0,6,3,41,2
0,6,219,33,2
1,6,113,61,2
1,6,39,16,2
1,6,37,92,2
0,6,30,19,2
1,6,79,9,2
1,6,179,85,2
1,6,14,34,2
1,6,229,110,2
0,6,5,33,2
1,6,139,5,2
1,6,136,54,2
0,6,32,54,2
1,6,100,8,2
1,6,133,2,2
1,6,2,20,2
1,6,14,19,2
1,6,82,6,2
1,6,131,0,2
1,6,28,68,2
1,6,82,24,2
1,6,10,77,2
1,6,221,149,2
1,6,174,140,2
0,6,79,0,2
1,6,52,22,2
1,6,18,0,2
1,6,63,29,2
1,6,8,17,2
1,7,55,102,2
1,6,112,117,2
1,6,281,201,2
1,6,8,84,2
0,6,126,56,2
1,6,106,31,2
1,6,311,130,2
1,6,3,122,2
0,6,455,366,2
0,6,191,108,2
0,6,114,9,2
1,6,192,162,2
0,6,20,24,2
0,6,51,87,2
0,6,20,0,2
1,6,110,0,2
1,6,201,42,2
1,6,64,37,2
1,6,70,198,2
1,6,65,5,2
1,6,204,299,2
1,6,174,89,2
1,6,47,34,2
0,6,8,36,2
1,6,74,2,2
0,6,6,195,2
1,6,57,45,2
0,6,147,127,2
1,6,61,138,2
1,6,31,83,2
1,6,55,47,2
1,6,84,28,2
0,6,110,197,2
1,6,326,111,2
1,6,355,153,2
0,6,104,217,2
0,6,324,226,2
0,6,40,54,2
0,6,118,31,2
0,6,80,92,2
1,6,102,27,2
1,6,49,60,2
1,6,2,133,2
1,6,4,176,2
1,6,100,83,2
1,6,308,415,2
1,6,212,295,2
0,6,150,26,2
0,6,142,127,2
1,6,468,97,2
1,6,32,173,2
0,6,268,163,2
0,7,210,303,2
0,6,145,139,2
1,6,206,190,2
0,6,116,124,2
0,6,447,194,2
0,6,346,377,2
0,6,208,299,2
0,6,56,6,2
0,6,92,321,2
0,6,156,83,2
0,6,56,1,2
1,6,478,14,2
0,6,448,210,2
0,6,389,117,2
0,6,150,181,2
1,6,107,145,2
0,6,568,447,2
0,6,256,212,2
0,6,209,174,2
0,6,158,271,2
1,6,242,131,2
1,6,326,208,2
0,6,456,274,2
1,7,1023,848,2
0,6,239,17,2
0,6,486,107,2
1,6,791,361,2
0,6,17,136,2
0,6,69,46,2
1,7,767,959,2
0,6,227,37,2
1,6,917,454,2
0,6,506,285,2
0,6,194,408,2
0,6,433,93,2
518,501,1023,363,2
85,90,45,296,2
1,7,1023,640,2
303,308,573,314,2
92,97,632,327,2
713,704,1023,1023,2
154,159,511,98,2
22,28,941,779,2
0,5,189,498,2
0,6,308,11,2
1,6,51,462,2
1,6,334,257,2
1,6,138,520,2
1,7,372,85,2
1,6,244,371,2
0,6,461,165,2
632,661,1023,544,2
236,245,978,180,2
941,941,1023,1023,2
267,272,1023,966,2
195,200,192,575,2
36,41,675,274,2
0,5,373,950,2
0,6,988,675,2
4,9,878,790,2
0,5,401,130,2
0,6,885,488,2
0,6,708,677,2
0,6,784,229,2
1,6,511,60,2
226,232,809,664,2
65,71,782,1023,2
6,12,491,459,2
0,5,346,748,2
1023,1023,1023,1023,2
406,417,6,30,2
81,88,167,388,2
6,12,586,407,2
47,76,1023,1023,2
315,319,503,241,2
237,243,402,644,2
218,224,599,247,2
66,72,864,50,2
4,10,669,541,2
217,223,772,299,2
298,303,365,524,2
70,76,51,410,2
5,11,133,333,2
55,58,610,1023,2
0,5,721,727,2
0,6,498,492,2
93,96,1023,232,2
1,7,258,577,2
518,527,1023,1023,2
211,216,48,303,2
222,229,897,656,2
82,87,540,83,2
8,14,122,82,2
0,5,51,404,2
209,214,45,144,2
55,61,287,702,2
3,9,219,714,2
426,439,745,1023,2
332,336,624,450,2
457,454,1023,1023,2
347,351,857,342,2
70,75,362,225,2
4,10,526,707,2
0,5,275,336,2
198,235,1023,1023,2
133,138,961,632,2
31,36,99,105,2
1,6,488,47,2
0,6,169,672,2
1,6,335,391,2
1,7,426,847,2
324,308,1023,784,2
73,78,74,3,2
876,884,1023,1023,2
497,500,421,548,2
103,109,397,360,2
201,208,934,626,2
65,70,247,140,2
65,75,1023,962,2
83,88,123,359,2
967,979,1023,1023,2
377,381,265,601,2
80,87,487,910,2
8,14,464,127,2
0,5,287,196,2
1,6,7,253,2
1,7,615,494,2
85,91,455,683,2
16,22,283,7,2
1023,1023,1023,1023,2
247,269,1023,1023,2
671,680,87,899,2
618,617,1023,1023,2
674,677,518,709,2
982,985,1023,1023,2
758,766,117,816,2
539,555,1023,1023,2
775,777,279,411,2
180,186,462,568,2
27,32,374,68,2
0,5,204,233,2
1,6,479,714,2
0,7,9,439,2
1,7,167,813,2
1,6,47,50,2
1,7,440,490,2
1,7,277,177,2
1,6,105,129,2
1,7,764,547,2
1,6,154,314,2
1,6,310,217,2
1,6,56,304,2
1,7,423,358,2
1,6,542,286,2
1,6,305,266,2
0,7,389,495,2
0,6,374,536,2
0,6,285,180,2
108,114,344,338,2
27,32,88,358,2
0,6,181,264,2
0,5,323,212,2
1,6,351,1,2
0,6,223,177,2
1,6,92,113,2
1,6,3,109,2
1,6,455,562,2
1,7,515,511,2
1,7,723,203,2
1,6,299,22,2
0,6,571,261,2
0,6,225,77,2
1,7,903,834,2
0,6,153,89,2
0,6,278,231,2
1,6,126,17,2
0,6,26,337,2
0,6,44,198,2
1,7,426,411,2
0,6,166,38,2
1,6,205,356,2
1,6,112,41,2
0,6,232,281,2
1,6,91,296,2
1,6,119,15,2
1,6,62,45,2
1,6,324,214,2
1,6,355,498,2
553,559,693,1023,2
158,163,43,52,2
27,34,382,402,2
0,6,173,268,2
0,6,82,106,2
0,6,170,411,2
1,7,418,672,2
1,6,60,41,2
1,6,64,0,2
1,6,272,36,2
1,6,222,51,2
1,6,77,72,2
1,6,260,213,2
0,6,137,164,2
1,6,85,339,2
1,6,131,26,2
1,6,353,292,2
1,6,260,91,2
1,6,266,281,2
1,6,206,259,2
0,6,135,78,2
0,6,48,105,2
0,6,243,129,2
1,6,236,291,2
1,6,509,347,2
1,6,290,293,2
1,6,135,187,2
1,6,3,135,2
1,6,607,227,2
0,6,5,116,2
1,6,737,486,2
0,6,246,349,2
0,6,5,521,2
0,6,50,154,2
0,6,155,540,2
1,6,40,170,2
1,6,102,145,2
1,6,69,205,2
0,6,39,145,2
0,7,186,25,2
0,6,102,315,2
0,6,87,214,2
0,6,17,21,2
1,7,516,436,2
1,7,672,918,2
0,6,181,244,2
390,375,855,1023,2
45,50,112,20,2
3,9,262,248,2
0,5,233,8,2
0,6,195,338,2
0,6,219,131,2
1,7,347,571,2
0,6,249,285,2
0,6,77,249,2
1,6,75,320,2
1,6,240,24,2
0,6,5,245,2
1,6,296,3,2
1,6,352,254,2
1,6,192,36,2
1,6,226,184,2
1,6,17,238,2
1,6,263,9,2
0,6,298,160,2
1,6,327,333,2
0,6,70,124,2
0,6,35,375,2
1,6,324,474,2
1,6,101,120,2
0,6,82,76,2
1,6,440,477,2
1,6,147,264,2
0,6,22,319,2
0,6,167,139,2
1,6,236,91,2
1,7,450,617,2
0,6,366,435,2
0,6,273,392,2
0,6,31,66,2
1,6,13,55,2
1,6,97,32,2
1,6,12,151,2
1,6,188,54,2
0,6,15,132,2
1,6,303,39,2
0,6,52,79,2
0,6,327,5,2
0,6,153,200,2
1,6,71,369,2
1,6,333,0,2
1,6,394,490,2
1,6,77,113,2
1,6,350,108,2
0,6,144,78,2
0,6,84,97,2
1,6,461,204,2
0,6,117,95,2
1,6,404,498,2
1,6,133,46,2
0,6,147,182,2
0,6,115,7,2
0,6,175,159,2
1,6,107,63,2
1,6,80,39,2
0,6,70,102,2
1,6,199,24,2
1,6,75,43,2
1,6,360,294,2
0,6,351,264,2
1,6,412,354,2
0,6,12,154,2
1,6,307,161,2
0,6,3,111,2
1,6,114,38,2
0,6,2,65,2
1,6,126,132,2
1,6,5,18,2
0,6,155,130,2
1,6,150,40,2
1,6,165,192,2
1,6,330,226,2
0,6,59,166,2
1,6,236,0,2
1,6,82,120,2
1,6,27,203,2
1,6,208,74,2
1,6,25,101,2
1,6,2,165,2
0,7,368,395,2
0,6,199,48,2
0,7,408,488,2
0,6,385,95,2
0,6,51,240,2
0,6,501,229,2
0,6,254,80,2
1,6,488,336,2
0,6,246,42,2
0,6,113,31,2
0,6,159,162,2
1,6,424,260,2
1,6,75,136,2
0,6,160,138,2
0,6,197,143,2
0,6,203,223,2
1,6,18,63,2
0,6,27,167,2
1,6,315,39,2
0,6,9,20,2
1,6,203,186,2
0,6,3,18,2
1,6,89,28,2
0,6,203,72,2
0,6,110,185,2
1,6,33,35,2
0,6,219,181,2
1,6,200,294,2
0,6,41,127,2
1,6,139,21,2
0,6,123,107,2
1,6,91,207,2
1,6,270,42,2
1,6,346,170,2
1,6,231,80,2
0,6,167,100,2
0,6,69,213,2
1,6,250,223,2
1,6,90,85,2
1,6,144,184,2
1,6,164,210,2
0,6,16,8,2
1,6,88,45,2
1,6,45,60,2
1,6,3,29,2
0,6,10,16,2
1,6,298,64,2
1,6,370,160,2
0,6,5,100,2
1,6,291,11,2
1,6,427,154,2
1,6,146,79,2
1,6,16,0,2
1,6,31,0,2
0,6,153,137,2
1,6,97,34,2
1,6,86,140,2
0,7,49,0,2
1,6,212,99,2
1,6,88,64,2
1,6,121,199,2
0,7,3,160,2
1,6,130,65,2
1,6,152,112,2
1,6,117,21,2
0,6,10,75,2
0,6,11,0,2
1,6,115,41,2
1,6,192,115,2
1,6,100,7,2
0,6,55,154,2
1,6,52,46,2
1,6,285,144,2
0,6,117,102,2
1,6,273,186,2
1,6,95,9,2
1,6,156,109,2
1,6,286,110,2
1,6,166,237,2
1,6,249,136,2
1,6,153,58,2
1,6,58,131,2
0,6,157,162,2
0,6,68,39,2
1,6,97,41,2
1,6,80,97,2
1,6,264,10,2
0,6,125,67,2
1,6,228,119,2
1,6,111,51,2
1,6,81,46,2
1,6,53,101,2
1,6,87,141,2
0,6,205,21,2
1,6,88,29,2
0,6,47,258,2
0,6,14,349,2
0,6,49,1,2
1,6,103,125,2
0,6,297,232,2
1,6,25,76,2
1,6,320,223,2
0,6,10,88,2
1,6,165,77,2
1,6,106,58,2
1,6,23,52,2
0,6,64,98,2
1,6,122,119,2
1,6,49,300,2
0,6,2,285,2
1,6,205,228,2
0,6,119,188,2
1,6,42,160,2
0,6,86,202,2
0,6,60,110,2
1,6,15,70,2
1,6,147,89,2
1,6,11,113,2
1,6,14,79,2
0,6,97,31,2
1,6,170,157,2
1,6,235,23,2
1,6,177,14,2
0,6,63,213,2
1,6,160,12,2
1,6,142,22,2
0,6,76,31,2
1,6,293,201,2
0,6,80,33,2
0,6,69,95,2
1,6,230,92,2
0,6,33,0,2
1,6,265,142,2
0,6,27,69,2
1,6,290,0,2
0,6,49,7,2
1,6,561,12,2
1,6,383,103,2
0,6,494,172,2
0,6,269,155,2
0,6,99,328,2
0,6,186,66,2
1,6,124,289,2
1,6,123,94,2
0,6,23,374,2
1,6,109,0,2
1,6,394,391,2
1,6,10,13,2
0,6,48,156,2
1,6,18,86,2
0,6,56,253,2
1,6,327,119,2
0,6,33,316,2
1,6,362,28,2
0,6,26,47,2
0,6,149,185,2
1,7,878,343,2
1,6,484,6,2
17,21,1023,545,2
5,11,363,369,2
0,5,702,462,2
0,5,346,76,2
0,6,432,109,2
1,6,186,230,2
0,6,190,551,2
0,7,624,557,2
1,6,370,208,2
0,6,27,378,2
0,6,270,78,2
0,6,152,133,2
0,6,66,0,2
1,6,452,522,2
1,6,622,608,2
0,6,447,397,2
0,6,281,166,2
507,498,1023,123,2
45,51,188,17,2
3,9,550,73,2
109,140,1023,918,2
180,185,57,46,2
34,39,988,255,2
11,17,247,695,2
0,5,13,180,2
0,6,247,478,2
1,6,466,10,2
0,6,156,589,2
1,6,157,101,2
1,6,291,17,2
1,7,512,916,2
0,6,349,632,2
0,6,291,204,2
1,6,472,133,2
1,6,435,497,2
1,7,497,484,2
0,6,406,292,2
0,6,352,125,2
0,6,468,17,2
102,101,672,1023,2
31,37,38,130,2
611,612,1023,217,2
154,160,239,1019,2
30,36,841,703,2
2,8,1023,197,2
0,5,877,684,2
0,6,696,162,2
36,52,749,1023,2
63,69,104,412,2
12,18,267,323,2
0,5,20,459,2
1,6,836,967,2
0,6,403,263,2
1,7,939,861,2
72,77,250,367,2
11,16,715,296,2
0,5,218,314,2
0,6,288,211,2
1023,1023,1023,1023,2
679,691,75,22,2
47,51,1023,917,2
498,501,276,191,2
115,121,245,245,2
12,18,995,264,2
188,153,1023,873,2
258,267,176,484,2
280,282,1021,1023,2
243,248,1023,490,2
60,65,201,143,2
3,10,135,481,2
0,5,27,0,2
1,7,589,571,2
1,7,211,6,2
1,6,216,61,2
1,7,834,406,2
0,6,234,158,2
1,7,1023,862,2
0,6,62,273,2
1,6,603,155,2
1,6,151,216,2
1,6,53,104,2
1,7,260,906,2
0,6,204,239,2
1,6,824,316,2
219,224,315,310,2
45,51,1023,911,2
151,156,335,192,2
34,39,1023,268,2
19,25,111,147,2
0,5,123,453,2
0,6,195,55,2
1,6,227,82,2
367,417,1023,1023,2
454,466,173,546,2
683,681,1023,1023,2
352,356,154,51,2
513,516,800,1023,2
211,216,298,47,2
37,43,785,462,2
0,6,1023,445,2
0,6,994,196,2
233,238,342,489,2
59,65,973,990,2
5,11,281,388,2
0,5,559,568,2
0,6,571,23,2
227,232,17,309,2
536,538,1023,681,2
176,162,1023,1023,2
309,327,1023,1023,2
579,582,516,302,2
127,133,133,219,2
15,21,87,127,2
0,5,166,327,2
1,7,206,513,2
1,7,34,89,2
2,8,911,513,2
1,7,206,215,2
1,6,680,373,2
1,7,834,166,2
0,6,105,273,2
1,6,288,124,2
1,7,370,191,2
1,7,583,717,2
0,6,61,452,2
1,6,534,435,2
1,6,60,88,2
1,6,31,138,2
204,232,1023,62,2
294,299,362,946,2
521,524,1023,1023,2
748,753,404,811,2
208,214,154,251,2
31,37,169,870,2
504,514,1023,609,2
115,120,286,157,2
16,22,802,374,2
0,5,278,128,2
1,6,358,40,2
1,7,147,361,2
1,7,618,146,2
1,7,830,457,2
1,7,199,596,2
1,7,1023,418,2
1,7,1023,498,2
0,6,264,167,2
6,13,1023,821,2
0,6,747,502,2
0,6,560,481,2
0,6,472,197,2
1,6,601,494,2
0,6,223,20,2
0,6,341,88,2
1,6,222,127,2
1,6,89,63,2
1,6,488,15,2
1,7,882,429,2
0,6,69,450,2
946,951,1023,1023,2
409,413,548,577,2
85,91,164,36,2
7,13,131,905,2
0,5,180,90,2
0,6,77,236,2
1,7,239,124,2
1,7,38,27,2
1,7,361,92,2
1,7,380,317,2
1,7,662,354,2
0,6,229,227,2
1,6,101,127,2
1,6,90,0,2
1,7,69,848,2
16,29,404,1023,2
232,237,128,227,2
51,56,173,5,2
2,8,383,439,2
0,5,6,106,2
1,6,247,38,2
1,6,132,83,2
1,6,207,275,2
1,6,2,281,2
1,6,104,166,2
1,6,225,115,2
1,6,111,98,2
1,6,76,293,2
1,6,23,54,2
0,6,171,292,2
0,6,128,549,2
0,6,139,253,2
0,6,194,211,2
1,6,414,205,2
0,6,77,631,2
1,7,476,115,2
0,6,305,252,2
0,6,117,146,2
1,6,111,21,2
1,6,275,193,2
1,6,46,2,2
0,6,189,206,2
1,6,164,24,2
1,6,302,28,2
1,6,216,176,2
1,6,187,58,2
0,6,108,135,2
0,7,283,332,2
0,6,3,34,2
1,6,29,19,2
1,6,20,98,2
1,6,103,5,2
1,6,165,121,2
0,6,151,59,2
0,6,4,48,2
1,6,228,153,2
0,6,28,119,2
0,6,274,203,2
0,6,67,41,2
1,7,401,658,2
0,6,47,272,2
0,6,231,94,2
0,6,92,37,2
1,6,47,198,2
0,6,141,335,2
1,6,103,4,2
1,6,531,39,2
0,6,99,199,2
1,7,630,470,2
1,6,296,312,2
0,6,164,56,2
1,6,476,357,2
1,6,270,189,2
1,6,181,8,2
0,6,58,153,2
1,6,127,98,2
0,6,217,75,2
0,6,198,124,2
0,6,354,0,2
1,7,617,517,2
0,6,450,352,2
0,6,117,8,2
0,6,183,444,2
0,6,45,16,2
1,7,467,489,2
0,6,87,80,2
0,6,162,446,2
0,6,63,7,2
0,6,117,0,2
0,6,51,262,2
1,6,50,138,2
1,6,117,8,2
1,6,216,173,2
0,6,160,379,2
1,6,263,132,2
1,6,469,45,2
0,6,284,127,2
0,6,453,436,2
0,6,76,142,2
0,6,322,104,2
1,6,105,93,2
1,6,512,275,2
0,6,125,137,2
1,6,574,323,2
0,6,38,268,2
0,6,547,325,2
0,6,10,184,2
1,7,482,456,2
1,6,45,55,2
1,6,422,360,2
0,6,83,186,2
1,6,354,275,2
1,6,92,120,2
1,6,42,203,2
1,6,60,125,2
0,6,157,295,2
0,6,43,249,2
1,6,235,216,2
1,6,21,14,2
0,6,90,237,2
1,6,202,232,2
0,6,429,448,2
0,6,142,152,2
1,6,214,253,2
0,6,157,215,2
0,6,6,138,2
1,6,436,358,2
1,6,275,169,2
1,6,209,224,2
1,7,492,328,2
0,6,392,327,2
0,6,4,96,2
0,6,332,325,2
1,6,37,228,2
1,7,551,469,2
0,6,103,17,2
0,6,254,278,2
0,6,92,70,2
1,6,76,55,2
0,6,123,108,2
1,6,245,145,2
1,6,584,284,2
0,6,79,196,2
1,6,336,80,2
1,6,324,210,2
0,6,188,335,2
1,6,187,0,2
0,6,43,175,2
0,6,353,256,2
0,6,121,86,2
1,6,26,12,2
1,6,115,104,2
0,6,132,100,2
0,6,90,20,2
1,6,11,4,2
1,6,14,4,2
1,6,285,101,2
1,6,311,164,2
1,6,239,2,2
1,6,324,69,2
0,6,12,39,2
1,6,313,153,2
1,6,8,119,2
1,6,122,8,2
1,6,68,189,2
1,6,169,171,2
0,6,6,148,2
0,6,58,0,2
1,6,90,29,2
0,6,527,361,2
0,6,75,0,2
1,6,365,133,2
0,6,440,130,2
1,6,17,36,2
0,6,475,192,2
0,6,121,48,2
1,6,2,58,2
1,6,183,56,2
1,6,195,84,2
1,6,635,305,2
0,6,13,3,2
1,6,361,56,2
1,6,533,328,2
0,6,25,228,2
1,6,208,112,2
1,6,344,220,2
1,6,216,207,2
0,6,26,6,2
0,7,273,240,2
1,6,159,160,2
0,6,234,78,2
0,6,241,141,2
1,6,56,32,2
0,6,5,57,2
1,6,123,42,2
1,6,89,30,2
0,6,64,0,2
1,6,67,7,2
1,6,3,41,2
1,6,24,0,2
1,6,160,51,2
0,6,112,11,2
1,6,72,0,2
1,6,48,71,2
0,6,171,99,2
1,6,288,51,2
1,6,2,46,2
1,6,113,34,2
0,6,33,7,2
1,6,7,0,2
0,6,103,53,2
1,6,1,10,2
1,6,34,0,2
1,6,29,18,2
1,6,32,46,2
1,6,63,0,2
1,6,162,40,2
0,6,326,134,2
1,6,140,18,2
1,6,231,32,2
1,6,171,63,2
0,6,59,27,2
1,6,6,8,2
0,6,97,37,2
1,6,87,57,2
1,6,28,0,2
1,6,51,0,2
1,6,123,52,2
1,6,60,25,2
1,6,21,57,2
1,6,59,48,2
1,6,186,83,2
0,6,76,3,2
0,6,1,36,2
0,6,135,13,2
1,6,303,137,2
0,6,25,54,2
1,6,108,10,2
1,6,169,12,2
0,6,173,0,2
1,6,18,48,2
0,6,3,55,2
1,6,24,0,2
1,7,66,6,2
1,6,57,67,2
0,6,38,62,2
1,6,392,126,2
0,6,136,104,2
0,6,257,52,2
0,6,170,67,2
0,7,258,286,2
0,6,77,90,2
1,6,53,91,2
1,6,102,155,2
0,6,240,96,2
0,6,1,129,2
0,6,111,15,2
0,6,54,2,2
1,6,116,0,2
1,6,55,44,2
1,6,23,53,2
1,6,269,155,2
1,6,231,114,2
1,6,281,143,2
0,6,243,209,2
0,6,103,78,2
1,6,211,99,2
0,6,125,0,2
0,6,37,0,2
1,6,129,79,2
0,6,370,281,2
1,6,344,353,2
1,6,524,331,2
0,6,106,2,2
1,6,386,195,2
1,6,61,43,2
0,6,113,0,2
1,6,237,55,2
1,6,179,79,2
0,6,124,0,2
0,6,26,146,2
1,6,211,55,2
1,6,416,240,2
0,6,96,103,2
1,6,69,182,2
1,6,501,195,2
0,6,349,74,2
0,6,161,292,2
1,6,363,0,2
1,6,402,221,2
0,6,144,95,2
1,6,403,436,2
0,6,8,144,2
0,6,174,154,2
0,6,91,121,2
1,6,62,184,2
1,6,166,0,2
0,6,82,55,2
0,6,28,184,2
1,6,362,6,2
0,6,287,224,2
0,6,21,187,2
0,6,389,209,2
1,6,3,97,2
1,6,170,7,2
1,6,47,10,2
1,6,27,90,2
1,6,46,87,2
0,6,134,253,2
0,6,149,190,2
1,6,256,9,2
1,7,675,459,2
1,6,455,450,2
0,6,482,393,2
0,6,246,179,2
0,6,231,50,2
1,6,764,173,2
0,6,739,687,2
0,6,90,229,2
0,6,781,602,2
0,6,352,219,2
0,6,156,35,2
1,6,302,0,2
1,6,227,486,2
0,6,158,132,2
1,6,179,116,2
0,6,383,322,2
0,6,475,233,2
0,6,42,0,2
0,6,472,382,2
0,6,49,292,2
1,6,600,344,2
36,41,134,277,2
3,9,576,593,2
0,5,644,106,2
0,5,759,311,2
0,5,529,57,2
0,6,592,145,2
0,6,269,163,2
1,7,853,555,2
0,7,768,788,2
0,6,404,251,2
0,6,115,419,2
0,6,175,347,2
1,6,472,742,2
0,6,8,133,2
0,6,48,224,2
0,6,27,102,2
0,6,11,289,2
0,6,17,313,2
0,7,728,136,2
255,259,516,189,2
71,77,840,2,2
5,11,992,555,2
12,19,1023,194,2
14,20,890,709,2
289,289,1023,413,2
175,181,76,0,2
92,97,1023,1023,2
254,259,65,727,2
44,49,384,206,2
1,7,696,69,2
0,6,727,419,2
1,6,113,102,2
1,7,107,87,2
1,7,832,477,2
1,6,649,379,2
0,7,366,648,2
1,7,769,297,2
27,34,277,280,2
16,22,67,236,2
0,5,745,855,2
0,6,503,519,2
0,6,688,435,2
0,6,211,664,2
0,6,265,296,2
1,7,1021,568,2
547,548,511,1023,2
123,128,299,316,2
122,127,1023,138,2
375,380,27,220,2
468,474,1023,1023,2
583,589,392,235,2
179,184,215,148,2
26,32,470,256,2
0,5,80,456,2
0,6,295,200,2
1,7,54,601,2
1,7,27,116,2
1,7,320,283,2
1,7,867,624,2
336,355,404,1023,2
159,165,675,325,2
27,33,697,1023,2
609,612,1023,908,2
135,139,433,58,2
22,27,396,15,2
131,121,653,1023,2
103,109,318,55,2
12,18,614,572,2
0,5,160,500,2
0,6,58,0,2
1,6,131,63,2
1,6,481,279,2
2,7,1023,14,2
310,315,233,107,2
478,485,1023,389,2
407,414,646,1023,2
785,802,1023,1023,2
721,726,764,390,2
515,525,1023,1023,2
775,778,362,39,2
181,187,131,97,2
55,51,1023,625,2
96,101,405,37,2
10,16,612,293,2
601,604,1023,988,2
209,213,710,642,2
433,435,1023,1023,2
52,59,1023,1023,2
761,765,831,890,2
931,930,1023,1023,2
697,700,189,179,2
79,84,1023,1023,2
424,428,450,119,2
489,478,1023,1023,2
359,363,611,99,2
67,73,625,491,2
5,11,153,132,2
0,5,56,88,2
1,7,25,202,2
1,6,147,119,2
1,7,89,308,2
1,7,358,133,2
2,8,1023,927,2
0,6,83,164,2
1,6,209,0,2
1,7,29,472,2
1,7,538,616,2
2,8,1023,1023,2
532,537,623,158,2
159,165,425,177,2
23,29,40,92,2
0,5,12,129,2
1,6,139,102,2
1,7,637,564,2
1,7,709,391,2
0,6,138,245,2
1,7,167,31,2
1,7,878,801,2
1,6,339,36,2
15,19,863,936,2
31,36,236,186,2
0,6,614,122,2
0,6,652,507,2
489,500,1023,1023,2
127,131,224,180,2
19,25,685,275,2
0,5,44,119,2
0,6,435,150,2
0,6,466,401,2
1,6,557,204,2
1,7,592,303,2
1,6,451,252,2
1,7,1023,311,2
0,6,270,477,2
32,38,1023,987,2
157,162,236,29,2
38,44,422,642,2
1,7,877,797,2
70,76,267,8,2
10,16,408,194,2
0,5,173,295,2
0,6,99,167,2
0,7,416,330,2
1,6,184,263,2
1,6,227,102,2
1,6,165,101,2
1023,1023,1023,1023,2
425,428,352,325,2
84,90,784,859,2
8,14,89,349,2
0,5,386,512,2
1,6,498,443,2
1,6,119,160,2
1,7,291,115,2
1,7,206,128,2
1,7,256,27,2
1,6,11,1,2
1,6,436,163,2
0,6,93,3,2
1,6,321,212,2
0,6,7,45,2
0,6,207,15,2
1,6,151,268,2
1,6,123,21,2
1,6,33,158,2
1,6,137,109,2
0,6,227,41,2
1,6,67,3,2
0,6,169,56,2
0,6,234,414,2
1,6,183,77,2
0,6,74,33,2
1,6,49,105,2
0,7,124,81,2
1,6,216,167,2
1,6,9,10,2
1,6,173,54,2
0,6,273,147,2
0,6,60,5,2
0,6,207,43,2
0,6,116,165,2
0,6,132,173,2
0,6,256,118,2
0,6,129,239,2
0,6,20,142,2
1,6,306,219,2
1,6,28,136,2
0,6,97,55,2
1,6,320,330,2
0,6,27,120,2
1,6,299,272,2
1,6,172,22,2
1,6,227,181,2
0,6,80,25,2
0,6,96,220,2
0,6,167,18,2
1,6,177,621,2
0,6,71,189,2
1,6,195,232,2
0,6,62,261,2
1,7,116,799,2
0,6,185,226,2
0,6,170,318,2
1,6,2,65,2
1,6,52,108,2
0,6,68,91,2
0,6,198,384,2
0,6,128,82,2
1,7,696,608,2
0,6,275,313,2
0,6,282,325,2
0,6,102,2,2
0,6,55,12,2
1,6,292,318,2
0,6,163,0,2
0,6,335,280,2
0,6,70,3,2
0,6,147,70,2
1,6,394,516,2
0,6,303,459,2
0,6,354,109,2
0,6,345,125,2
0,6,361,238,2
1,6,88,374,2
1,6,484,225,2
1,6,14,129,2
1,6,207,17,2
0,6,47,159,2
1,6,13,92,2
1,6,54,40,2
1,6,170,97,2
1,6,229,133,2
1,6,169,12,2
0,7,395,476,2
0,6,11,280,2
0,6,263,162,2
1,6,171,77,2
1,6,114,146,2
0,6,6,335,2
1,6,283,332,2
1,6,382,579,2
1,6,317,237,2
0,6,80,40,2
0,6,240,53,2
1,6,133,226,2
0,6,367,326,2
0,6,119,357,2
1,6,51,249,2
1,6,150,75,2
0,6,127,260,2
0,6,270,126,2
1,6,139,219,2
0,6,473,261,2
1,6,105,50,2
1,6,663,401,2
0,6,252,39,2
0,6,79,161,2
1,6,131,2,2
1,6,171,160,2
0,6,5,20,2
1,6,2,99,2
0,6,6,151,2
1,6,522,477,2
1,6,88,54,2
0,6,443,270,2
0,6,313,220,2
1,6,315,174,2
0,6,299,264,2
0,6,91,145,2
0,6,226,9,2
1,6,99,25,2
1,6,65,40,2
0,6,245,62,2
1,6,174,222,2
1,6,82,28,2
0,6,170,189,2
0,6,96,132,2
1,6,177,0,2
0,6,143,117,2
0,6,78,58,2
1,6,368,115,2
1,6,141,53,2
0,6,89,41,2
0,6,62,0,2
1,6,86,0,2
1,6,197,6,2
1,6,167,55,2
0,6,134,36,2
1,6,177,0,2
0,6,174,116,2
0,6,139,52,2
1,6,55,9,2
0,6,15,89,2
0,6,103,87,2
1,6,265,0,2
1,6,393,352,2
1,6,372,156,2
0,6,646,352,2
0,6,172,264,2
0,6,31,51,2
0,6,455,185,2
0,6,326,234,2
1,6,163,24,2
0,6,336,55,2
1,6,224,159,2
0,6,62,8,2
0,6,96,66,2
1,6,58,25,2
1,6,73,0,2
0,6,7,25,2
1,6,24,22,2
0,6,14,22,2
1,6,64,20,2
0,6,70,2,2
1,6,126,32,2
1,6,46,88,2
0,6,17,0,2
1,6,14,10,2
1,6,216,67,2
0,6,179,72,2
1,6,128,91,2
1,6,62,20,2
0,6,143,41,2
1,6,24,18,2
0,6,34,0,2
0,6,74,52,2
1,6,29,21,2
1,6,2,62,2
1,6,47,0,2
1,6,7,0,2
0,6,33,0,2
1,6,54,0,2
1,6,41,20,2
0,6,2,6,2
1,6,29,0,2
1,6,58,13,2
0,6,52,0,2
1,6,39,32,2
0,6,53,30,2
1,6,27,2,2
1,6,78,0,2
0,6,58,37,2
0,6,74,39,2
0,6,16,32,2
1,6,7,162,2
1,6,126,43,2
1,6,14,99,2
1,6,7,40,2
1,6,74,0,2
0,6,52,49,2
1,6,252,97,2
0,6,45,0,2
0,6,6,0,2
1,6,96,43,2
1,6,41,30,2
1,6,56,0,2
0,6,25,63,2
1,6,42,64,2
1,6,14,21,2
1,6,127,43,2
1,6,27,0,2
0,6,163,0,2
0,6,190,121,2
1,6,17,33,2
1,6,89,43,2
1,6,125,22,2
0,6,205,109,2
0,6,96,117,2
1,6,153,54,2
0,6,104,115,2
1,6,11,54,2
0,6,102,177,2
1,6,77,148,2
0,6,49,69,2
0,6,147,154,2
1,6,119,12,2
0,6,30,22,2
1,6,14,43,2
1,6,83,34,2
0,6,107,39,2
0,6,42,15,2
1,6,357,242,2
0,6,103,182,2
1,6,6,18,2
0,6,167,141,2
0,6,112,84,2
0,6,249,235,2
1,6,114,45,2
1,6,120,6,2
1,6,76,98,2
0,6,63,142,2
1,6,265,121,2
0,6,124,157,2
0,6,136,275,2
0,6,234,228,2
0,6,234,268,2
0,6,300,93,2
1,6,60,185,2
1,6,93,2,2
1,6,111,71,2
0,6,96,211,2
0,6,248,75,2
1,6,158,303,2
0,6,188,181,2
0,6,67,0,2
0,6,50,15,2
0,6,6,0,2
0,6,18,0,2
0,6,12,139,2
0,6,67,119,2
1,6,36,11,2
1,6,362,254,2
0,6,23,98,2
1,6,353,281,2
1,6,178,294,2
1,6,31,9,2
1,6,139,87,2
0,6,12,169,2
0,6,179,26,2
0,6,35,110,2
1,6,25,155,2
0,6,48,183,2
1,6,57,102,2
1,6,26,35,2
1,6,187,67,2
0,6,150,251,2
1,7,468,346,2
0,6,125,445,2
0,6,89,193,2
0,6,304,298,2
1,6,230,196,2
1,6,110,69,2
1,6,83,13,2
1,6,370,433,2
0,6,277,296,2
0,6,90,232,2
0,6,314,191,2
0,6,259,176,2
1,6,124,231,2
1,6,63,40,2
0,6,76,416,2
1,6,460,157,2
1,6,152,8,2
1,6,24,71,2
0,6,48,6,2
4,9,1023,906,2
0,5,547,142,2
2,7,863,833,2
0,5,687,877,2
0,5,253,306,2
1,6,901,714,2
0,5,139,11,2
0,6,21,188,2
1,6,386,276,2
1,6,170,143,2
0,6,41,59,2
1,6,372,237,2
1,6,386,411,2
0,6,272,115,2
1,7,648,388,2
1,6,262,20,2
1,7,827,627,2
287,292,1023,1023,2
34,40,3,170,2
1,7,906,587,2
0,5,652,547,2
0,6,151,124,2
0,6,444,192,2
0,7,548,455,2
0,6,548,621,2
0,6,654,537,2
0,6,634,474,2
0,6,146,564,2
0,6,118,201,2
0,6,96,573,2
57,63,434,362,2
9,15,90,120,2
0,5,483,861,2
0,6,472,559,2
1,7,963,1023,2
0,5,480,105,2
0,6,323,103,2
1,7,927,414,2
0,6,63,78,2
0,7,409,593,2
0,6,122,646,2
0,6,254,314,2
0,6,167,81,2
1,6,41,9,2
1,7,644,741,2
0,6,99,109,2
0,6,371,629,2
1,6,394,659,2
0,6,74,38,2
0,6,3,12,2
1,6,266,322,2
0,6,684,36,2
1,6,356,157,2
1,7,843,746,2
0,6,13,335,2
0,6,9,97,2
555,562,1023,1023,2
421,424,92,25,2
91,97,701,323,2
9,15,791,142,2
0,5,437,555,2
0,6,445,213,2
1,7,17,662,2
1,6,414,457,2
0,7,23,246,2
1,7,581,479,2
1,7,989,834,2
479,480,541,1023,2
148,153,1023,1023,2
267,273,322,520,2
75,81,425,127,2
6,12,145,686,2
0,5,317,560,2
0,6,58,65,2
0,6,74,547,2
1,7,840,466,2
1,7,404,1023,2
240,245,145,446,2
54,59,487,419,2
3,9,79,225,2
0,5,204,351,2
0,6,8,118,2
1,6,39,141,2
1,7,924,317,2
160,166,292,486,2
35,41,1023,246,2
6,11,20,15,2
0,5,248,15,2
1,6,148,763,2
1,6,44,106,2
1,6,104,37,2
1,7,216,975,2
1,7,147,893,2
1,7,661,991,2
0,6,299,479,2
0,6,132,14,2
1,6,117,20,2
1,7,409,607,2
0,6,294,81,2
0,6,492,362,2
0,6,19,722,2
1,7,498,651,2
0,6,559,256,2
0,6,81,433,2
1,7,945,785,2
0,6,369,103,2
571,572,1023,1023,2
151,155,427,54,2
23,29,585,673,2
0,6,285,257,2
0,6,302,36,2
1,6,190,307,2
1,6,16,33,2
0,6,105,343,2
0,6,128,4,2
1,7,1006,596,2
0,6,147,242,2
407,410,1023,984,2
267,272,778,780,2
51,56,533,353,2
2,8,155,254,2
514,515,624,1023,2
140,145,798,487,2
19,26,853,839,2
0,5,43,97,2
0,6,417,260,2
1,6,463,340,2
0,6,105,137,2
1,6,84,124,2
1,6,153,54,2
1,6,568,310,2
0,6,167,23,2
1,6,119,156,2
1,6,93,110,2
1,7,735,293,2
0,6,309,691,2
0,6,326,213,2
188,195,983,1023,2
84,89,295,639,2
9,15,677,376,2
0,5,603,387,2
0,6,258,269,2
1,6,67,216,2
1,6,362,63,2
1,6,313,229,2
1,6,487,532,2
0,6,460,260,2
0,6,312,325,2
0,6,158,119,2
0,6,30,382,2
1,6,536,671,2
0,6,545,658,2
4,10,675,1023,2
0,6,248,479,2
0,6,271,310,2
1,6,350,285,2
1,6,268,143,2
0,6,128,174,2
0,6,78,66,2
1,6,280,111,2
0,6,113,9,2
1,6,102,200,2
0,6,169,434,2
1,6,11,326,2
1,6,243,326,2
0,6,96,0,2
1,7,724,754,2
0,6,126,215,2
1,6,666,60,2
0,6,75,262,2
1,6,183,140,2
1,6,2,4,2
0,6,147,119,2
1,6,115,126,2
0,6,346,247,2
1,6,58,25,2
1,6,246,108,2
1,6,12,13,2
1,6,171,67,2
1,7,256,500,2
0,6,19,213,2
1,6,55,103,2
0,6,102,158,2
0,6,291,290,2
0,6,195,0,2
1,6,540,53,2
1,6,114,450,2
0,6,175,172,2
1,6,110,241,2
1,6,35,12,2
0,6,62,82,2
1,6,31,387,2
1,6,18,237,2
1,6,19,72,2
1,6,211,97,2
0,6,38,34,2
1,6,23,3,2
1,6,228,212,2
1,6,2,0,2
0,6,84,339,2
0,6,145,318,2
0,6,270,358,2
1,6,362,178,2
0,6,154,17,2
1,6,3,143,2
1,6,153,367,2
0,6,173,110,2
1,6,157,19,2
1,6,201,298,2
0,6,8,98,2
1,6,323,314,2
0,6,83,213,2
1,6,225,363,2
0,6,148,160,2
0,6,436,675,2
0,6,12,92,2
0,7,505,641,2
0,6,586,657,2
0,6,194,150,2
0,6,378,412,2
0,6,277,236,2
0,6,147,132,2
0,6,178,173,2
0,6,16,427,2
1,6,31,62,2
0,6,251,470,2
0,6,218,7,2
0,6,191,263,2
1,6,329,166,2
0,6,94,100,2
0,6,8,81,2
1,6,303,293,2
1,6,53,103,2
0,6,333,109,2
1,6,332,274,2
0,6,112,107,2
1,6,90,188,2
0,6,320,154,2
1,6,4,53,2
1,6,6,113,2
1,6,90,448,2
0,6,118,181,2
1,6,55,16,2
0,6,238,309,2
0,6,11,101,2
1,6,358,354,2
0,6,204,207,2
1,6,197,46,2
0,6,194,28,2
1,6,5,18,2
1,6,288,273,2
1,6,153,164,2
1,6,91,422,2
1,6,45,139,2
1,6,12,93,2
1,6,232,232,2
1,6,375,0,2
0,6,96,380,2
1,7,737,525,2
1,7,569,552,2
0,6,12,34,2
0,6,255,288,3
1,6,77,250,3
0,6,161,10,3
1,6,46,0,3
1,6,7,18,3
1,6,138,79,3
1,6,42,0,3
1,6,87,15,3
1,6,95,96,3
0,7,619,470,3
0,6,221,168,3
0,6,326,132,3
1,6,308,314,3
1,6,71,95,3
1,6,58,15,3
1,6,2,0,3
1,6,200,219,3
1,6,68,250,3
1,6,112,127,3
1,6,84,181,3
1,6,24,65,3
1,6,85,71,3
0,6,198,108,3
0,6,138,0,3
0,6,188,73,3
1,6,31,0,3
1,6,175,0,3
0,6,20,55,3
1,6,16,0,3
1,6,82,107,3
0,6,68,0,3
1,6,18,20,3
1,6,137,168,3
1,6,14,51,3
1,6,93,29,3
0,6,179,9,3
0,6,166,372,3
0,6,43,17,3
0,6,358,153,3
0,6,167,90,3
0,6,265,67,3
0,6,221,20,3
1,6,397,126,3
0,6,49,55,3
0,6,228,26,3
1,6,5,117,3
1,6,141,227,3
1,6,1,16,3
0,6,91,162,3
0,6,51,86,3
0,6,75,45,3
0,6,13,21,3
1,6,104,39,3
1,6,68,11,3
0,6,76,0,3
0,6,363,260,3
0,6,167,273,3
1,6,134,73,3
0,7,241,489,3
1,6,357,235,3
0,6,67,24,3
1,6,66,37,3
0,6,129,111,3
0,6,124,117,3
1,6,11,6,3
1,6,54,151,3
1,6,28,61,3
1,6,83,229,3
0,6,59,107,3
0,6,84,143,3
0,6,10,138,3
0,6,42,87,3
1,6,334,33,3
1,6,97,159,3
0,6,256,54,3
0,6,131,26,3
0,6,47,0,3
0,6,147,0,3
1,6,228,254,3
0,6,3,76,3
1,6,31,9,3
0,6,37,86,3
1,6,71,112,3
1,6,79,158,3
1,6,99,0,3
1,6,28,43,3
0,6,51,86,3
1,6,110,130,3
1,6,118,134,3
0,6,120,73,3
1,6,65,16,3
1,6,242,115,3
1,6,42,79,3
0,6,131,16,3
1,6,209,185,3
1,6,185,197,3
1,6,169,84,3
0,6,174,158,3
0,6,281,196,3
0,6,53,30,3
0,6,127,73,3
1,6,102,17,3
1,6,314,297,3
0,6,366,26,3
0,6,204,139,3
0,6,205,51,3
0,6,204,42,3
0,6,6,0,3
1,6,100,43,3
0,6,202,169,3
0,6,67,33,3
0,6,354,270,3
0,6,145,113,3
0,6,280,196,3
1,6,418,33,3
1,6,35,23,3
1,6,178,205,3
1,6,284,253,3
0,6,131,103,3
0,6,56,0,3
1,6,101,292,3
1,6,103,95,3
1,6,94,128,3
0,6,5,90,3
0,7,389,200,3
0,6,217,326,3
1,6,68,130,3
0,6,92,44,3
0,6,31,70,3
0,6,126,0,3
0,6,103,215,3
1,6,314,35,3
0,6,134,357,3
1,6,146,14,3
1,6,196,71,3
0,6,74,117,3
1,6,349,83,3
0,6,401,506,3
0,6,565,343,3
0,6,89,131,3
0,6,22,150,3
1,6,225,174,3
0,6,56,145,3
0,6,8,14,3
1,7,896,235,3
0,6,111,504,3
0,6,566,265,3
0,6,425,557,3
0,6,212,283,3
0,6,38,246,3
0,6,50,220,3
0,6,456,346,3
0,6,88,25,3
0,6,206,89,3
1,6,729,231,3
0,6,102,235,3
0,6,539,355,3
1,6,201,53,3
0,6,89,168,3
1,6,185,127,3
1,6,365,170,3
1,6,600,365,3
1,6,455,102,3
0,6,315,440,3
1,6,560,89,3
1,6,628,259,3
0,6,137,140,3
1,6,301,35,3
0,6,458,366,3
0,6,289,183,3
0,6,16,666,3
0,6,46,0,3
1,7,87,951,3
0,6,428,64,3
1,6,482,106,3
0,6,130,264,3
1,7,842,887,3
1,6,781,246,3
0,6,431,0,3
0,6,515,209,3
1,6,114,56,3
1,6,911,201,3
0,6,172,580,3
1,6,752,600,3
0,6,559,434,3
0,6,271,222,3
0,6,308,54,3
1,6,332,289,3
1,7,833,526,3
0,6,86,299,3
24,27,19,772,3
36,41,222,624,3
2,7,417,52,3
0,5,538,84,3
0,6,127,93,3
0,6,56,200,3
1,7,53,506,3
0,6,182,484,3
0,6,501,954,3
0,5,24,341,3
0,6,553,139,3
1,7,1006,611,3
0,6,341,178,3
620,622,1023,207,3
67,73,765,305,3
8,14,136,101,3
0,5,570,666,3
0,6,696,405,3
9,15,722,230,3
0,5,751,528,3
99,97,1023,1010,3
51,57,431,677,3
34,40,1023,1003,3
46,52,253,144,3
4,10,52,397,3
0,5,856,833,3
0,6,274,711,3
70,77,644,294,3
28,35,569,310,3
56,66,797,718,3
83,89,51,312,3
9,15,593,129,3
0,5,258,104,3
1,7,829,107,3
179,188,889,17,3
107,112,924,440,3
12,18,785,1023,3
272,299,1023,1023,3
717,732,231,619,3
390,392,1023,1023,3
430,435,383,459,3
110,115,265,441,3
83,77,714,952,3
62,57,1023,54,3
105,111,1023,142,3
201,207,789,596,3
47,53,436,41,3
2,7,141,633,3
0,5,648,134,3
25,31,155,300,3
14,19,102,101,3
0,5,2,598,3
0,6,253,88,3
1,6,335,529,3
2,7,960,930,3
0,6,55,217,3
1,6,492,523,3
0,6,505,268,3
0,6,249,756,3
0,5,16,240,3
516,518,1023,1023,3
486,490,782,1023,3
713,714,1023,1023,3
913,917,561,65,3
96,104,1023,672,3
350,355,1023,550,3
80,86,360,10,3
7,13,327,27,3
0,5,632,134,3
1,6,602,253,3
1,7,415,106,3
1,7,507,555,3
1,7,1022,126,3
117,123,301,766,3
567,569,1023,911,3
101,106,446,54,3
12,18,626,496,3
0,5,635,125,3
0,6,966,367,3
0,6,69,317,3
1,6,239,8,3
1,6,554,197,3
4,9,695,31,3
0,5,833,256,3
0,6,78,124,3
1,6,176,166,3
600,604,143,1023,3
66,71,101,138,3
48,58,983,1023,3
93,98,192,207,3
10,15,882,391,3
0,5,253,485,3
0,6,785,549,3
234,238,486,125,3
267,249,763,1023,3
261,294,1023,1023,3
571,574,57,25,3
129,134,1023,763,3
166,171,87,480,3
29,35,389,332,3
0,6,317,3,3
0,6,199,10,3
1,6,566,288,3
1,6,229,91,3
1,7,93,101,3
1,6,62,0,3
1,6,317,162,3
1,7,557,609,3
0,6,235,454,3
0,6,412,323,3
0,6,8,79,3
1,6,539,491,3
0,6,282,671,3
0,6,67,256,3
83,89,101,309,3
22,28,911,733,3
0,6,957,382,3
36,42,84,287,3
6,11,403,88,3
0,5,55,493,3
0,6,94,188,3
1,6,84,322,3
1,6,173,52,3
1,6,40,59,3
1,7,299,504,3
0,6,139,381,3
0,6,233,51,3
1,6,80,340,3
1,6,159,184,3
0,6,102,222,3
1,7,401,535,3
0,6,454,197,3
0,6,314,335,3
0,6,509,328,3
0,6,230,220,3
1,6,107,40,3
1,6,61,3,3
0,6,230,359,3
1,6,90,385,3
0,6,78,75,3
0,6,16,126,3
1,6,233,155,3
0,6,41,75,3
0,6,195,335,3
1,6,216,88,3
0,6,71,40,3
1,6,435,226,3
1,6,124,47,3
1,6,383,379,3
0,6,60,106,3
1,6,424,279,3
1,7,208,778,3
0,6,17,141,3
1,6,473,472,3
0,6,103,107,3
1,6,443,340,3
0,6,187,447,3
0,6,21,231,3
1,6,61,302,3
1,6,104,132,3
1,6,122,46,3
1,6,74,98,3
0,6,77,129,3
1,6,77,201,3
1,6,40,60,3
1,6,109,223,3
1,6,155,141,3
1,6,125,239,3
0,6,144,6,3
0,6,78,189,3
0,6,24,1,3
1,6,80,311,3
1,6,25,332,3
0,6,49,202,3
1,6,123,70,3
0,6,44,116,3
1,6,168,337,3
1,7,466,725,3
0,6,77,183,3
0,6,76,143,3
0,6,91,330,3
0,6,149,199,3
1,6,48,139,3
1,6,6,18,3
1,6,173,69,3
1,7,480,337,3
0,6,429,464,3
0,6,326,121,3
1,6,4,0,3
1,6,110,92,3
0,6,465,368,3
1,6,184,51,3
0,6,8,27,3
1,7,266,550,3
0,6,132,91,3
0,6,2,88,3
0,6,237,417,3
1,6,11,0,3
0,6,345,144,3
1,7,228,602,3
0,6,337,590,3
0,6,207,54,3
0,6,16,78,3
0,6,231,198,3
1,6,68,17,3
1,6,206,34,3
0,6,132,394,3
0,6,173,105,3
0,6,259,159,3
0,6,124,134,3
1,6,253,128,3
1,7,367,614,3
0,6,75,168,3
0,6,225,112,3
0,6,13,253,3
1,6,42,11,3
0,6,43,81,3
1,6,162,216,3
0,6,191,241,3
0,6,10,186,3
1,6,126,21,3
1,6,36,7,3
0,6,62,181,3
1,6,44,453,3
0,6,3,158,3
0,6,340,22,3
0,6,238,355,3
0,6,479,316,3
0,6,382,259,3
0,6,363,318,3
0,6,214,254,3
1,6,107,297,3
1,7,498,841,3
0,6,27,43,3
0,6,7,227,3
1,6,7,0,3
0,6,105,56,3
1,6,50,29,3
0,6,374,237,3
0,6,185,22,3
1,6,184,72,3
0,6,31,378,3
1,6,365,37,3
0,6,6,88,3
1,6,445,427,3
0,6,441,79,3
0,6,449,466,3
0,6,123,0,3
0,7,404,354,3
0,6,159,167,3
1,6,125,70,3
1,6,86,246,3
0,7,132,19,3
0,6,62,0,3
1,6,20,111,3
1,6,34,0,3
0,6,25,227,3
1,6,234,97,3
1,6,477,401,3
0,6,141,243,3
1,6,489,345,3
1,6,458,522,3
0,6,396,88,3
0,6,65,87,3
1,6,165,131,3
0,6,50,52,3
0,7,150,150,3
1,6,14,61,3
0,7,123,257,3
0,6,29,98,3
1,6,153,263,3
1,6,19,8,3
1,6,53,0,3
1,6,502,118,3
0,6,280,424,3
1,6,285,87,3
1,6,326,274,3
0,6,355,216,3
0,6,426,85,3
1,6,152,190,3
1,6,222,47,3
0,6,309,225,3
0,6,30,185,3
0,6,2,21,3
1,6,143,7,3
1,6,69,0,3
1,6,98,6,3
0,6,52,227,3
1,6,76,15,3
0,6,74,0,3
1,6,149,16,3
1,6,11,27,3
1,6,67,62,3
0,6,122,57,3
1,6,98,0,3
0,6,42,2,3
1,6,260,171,3
1,6,155,91,3
1,6,110,12,3
0,6,225,245,3
1,6,165,93,3
0,6,183,136,3
0,6,131,47,3
1,6,93,130,3
1,6,21,216,3
1,6,70,0,3
1,6,142,0,3
0,6,28,9,3
1,6,105,0,3
1,6,4,19,3
1,6,96,86,3
1,6,26,9,3
1,6,104,21,3
0,6,141,62,3
0,6,135,53,3
1,6,1,30,3
1,6,29,80,3
1,6,92,0,3
0,6,7,30,3
1,6,130,119,3
1,6,234,196,3
0,6,26,34,3
0,6,144,151,3
0,6,40,24,3
1,6,98,1,3
1,6,8,16,3
0,6,76,98,3
0,6,4,272,3
1,6,3,8,3
0,6,166,34,3
1,6,28,39,3
0,6,11,12,3
0,6,105,99,3
0,6,93,83,3
1,6,138,5,3
1,6,79,6,3
1,6,56,34,3
1,6,154,60,3
1,6,193,39,3
1,6,224,38,3
1,6,225,102,3
0,6,46,40,3
1,6,251,162,3
1,6,74,1,3
1,6,101,13,3
1,6,22,85,3
1,6,35,57,3
1,6,90,95,3
1,6,246,230,3
1,6,390,232,3
1,6,301,104,3
1,6,272,223,3
0,6,107,104,3
1,6,86,66,3
1,6,13,59,3
1,6,135,0,3
1,6,1,88,3
1,6,69,141,3
0,6,52,101,3
0,6,20,78,3
1,6,26,85,3
0,6,79,3,3
0,6,3,22,3
0,6,57,145,3
0,6,62,140,3
0,6,45,103,3
0,6,41,68,3
1,6,33,0,3
0,7,36,108,3
0,6,22,6,3
1,6,188,6,3
1,6,83,56,3
1,6,88,24,3
1,6,11,35,3
1,6,2,174,3
0,6,53,180,3
1,6,30,11,3
1,6,125,0,3
1,6,45,33,3
1,6,15,0,3
0,6,29,163,3
1,6,180,168,3
0,6,237,181,3
1,6,153,306,3
1,6,187,322,3
0,6,81,71,3
1,6,115,92,3
1,6,222,82,3
1,6,100,151,3
1,6,306,134,3
0,6,133,265,3
1,6,5,0,3
1,6,32,258,3
1,6,5,0,3
0,6,87,9,3
0,6,275,255,3
0,6,37,89,3
1,7,46,287,3
1,6,164,37,3
1,6,140,237,3
0,7,329,315,3
1,6,133,0,3
1,6,2,0,3
0,7,382,80,3
0,6,445,437,3
0,6,67,170,3
0,6,166,174,3
1,6,314,366,3
0,6,35,29,3
1,6,40,16,3
0,6,108,30,3
0,6,429,262,3
1,6,437,652,3
0,6,6,9,3
1,6,167,83,3
1,6,402,60,3
0,6,136,258,3
0,6,219,180,3
1,6,641,257,3
1,6,226,527,3
0,6,354,246,3
0,6,54,382,3
0,6,130,92,3
0,7,512,329,3
0,6,143,0,3
1,6,382,311,3
0,6,330,458,3
0,6,157,93,3
1,7,753,578,3
0,6,214,402,3
1,7,734,618,3
1,6,645,358,3
1,6,164,28,3
0,7,313,606,3
1,6,476,67,3
1,7,459,538,3
0,6,394,283,3
0,6,190,219,3
0,6,153,316,3
0,6,256,281,3
1,6,258,160,3
1,6,303,165,3
1,6,643,223,3
0,6,123,0,3
1,6,67,110,3
1,6,187,288,3
1,6,730,348,3
0,6,180,1,3
0,6,374,405,3
504,505,1023,549,3
154,159,216,4,3
24,30,579,390,3
0,5,248,458,3
0,6,589,32,3
0,6,195,431,3
1,7,726,413,3
1,6,440,6,3
0,6,80,261,3
1,6,450,636,3
0,6,246,85,3
93,99,873,783,3
38,44,964,800,3
111,117,402,53,3
27,33,123,161,3
0,6,341,399,3
3,9,453,72,3
8,13,490,811,3
257,262,672,1,3
76,81,626,110,3
7,13,393,544,3
0,5,320,90,3
0,6,394,469,3
37,43,942,269,3
17,23,334,617,3
0,5,192,239,3
0,6,238,165,3
0,6,46,549,3
0,6,613,568,3
18,23,592,999,3
0,6,554,133,3
0,5,668,266,3
0,6,118,58,3
0,7,825,579,3
11,17,948,943,3
50,55,462,842,3
49,54,653,608,3
5,11,401,851,3
0,4,117,120,3
0,6,6,470,3
0,6,356,347,3
1,6,268,159,3
1,6,250,93,3
1,6,250,263,3
1,7,716,658,3
0,6,71,200,3
1,6,492,516,3
0,6,384,240,3
357,375,792,1023,3
126,111,1023,915,3
153,158,445,337,3
798,796,1023,1023,3
523,526,91,552,3
79,101,1023,1023,3
126,132,1023,986,3
283,289,885,595,3
394,406,994,1023,3
293,298,25,727,3
62,67,737,542,3
4,10,140,89,3
0,6,771,422,3
1,6,36,500,3
1,7,391,581,3
0,7,100,340,3
1,6,250,15,3
1,7,110,153,3
1,7,345,726,3
362,380,1023,507,3
211,217,80,890,3
44,50,455,870,3
2,8,58,2,3
0,5,148,321,3
0,6,219,542,3
1,6,672,135,3
1023,1023,1023,1023,3
866,878,291,395,3
792,789,1023,1023,3
767,769,75,127,3
786,784,1023,1023,3
833,835,107,520,3
551,552,1023,1023,3
584,588,160,630,3
380,382,1023,1023,3
203,209,945,189,3
132,138,1023,488,3
28,33,784,417,3
0,6,370,99,3
0,7,843,879,3
1,7,730,373,3
1,7,493,788,3
0,7,597,682,3
0,6,259,247,3
1,7,662,567,3
503,487,541,1023,3
997,1004,1023,1023,3
448,452,277,539,3
129,135,912,358,3
22,27,28,150,3
0,5,84,70,3
1,6,12,0,3
1,6,123,200,3
1,7,254,141,3
1,6,159,106,3
0,7,31,287,3
1,7,471,24,3
1,7,1023,595,3
256,260,181,66,3
16,24,1023,807,3
10,16,964,811,3
201,206,45,34,3
39,44,894,126,3
1,7,467,746,3
0,5,337,0,3
1,6,227,634,3
1,6,208,10,3
1,6,100,283,3
1,7,788,294,3
0,6,43,305,3
1,7,880,416,3
0,6,62,319,3
1,6,334,440,3
1,6,515,812,3
0,6,25,37,3
1,7,686,719,3
0,6,78,456,3
0,6,353,84,3
1,6,210,90,3
1,6,312,338,3
1,7,512,397,3
0,6,83,0,3
1,6,511,421,3
1,6,90,9,3
0,6,235,301,3
1,6,393,24,3
1,6,53,31,3
1,6,494,332,3
0,6,166,108,3
0,7,596,581,3
0,6,121,306,3
1,6,80,9,3
1,6,124,0,3
1,7,600,495,3
1,6,331,249,3
0,6,538,608,3
1,6,526,893,3
0,6,196,107,3
1,6,63,26,3
1,6,105,72,3
0,6,81,229,3
0,6,53,66,3
1,6,207,111,3
0,6,140,398,3
0,6,317,143,3
1,6,74,19,3
4,10,962,1023,3
0,5,119,189,3
0,6,386,272,3
1,6,156,3,3
1,6,10,32,3
1,6,22,0,3
1,6,83,86,3
1,6,225,136,3
1,6,162,190,3
1,6,374,38,3
0,6,178,149,3
1,6,414,190,3
1,6,498,98,3
1,6,66,208,3
0,6,9,435,3
1,6,398,624,3
0,6,206,266,3
1,6,511,587,3
0,6,26,260,3
0,6,265,331,3
1,6,202,426,3
0,6,156,11,3
0,6,42,41,3
0,6,241,225,3
0,6,92,133,3
1,6,345,332,3
1,6,291,212,3
0,6,39,0,3
1,6,49,51,3
1,6,53,4,3
1,6,2,60,3
1,6,37,45,3
1,6,8,29,3
0,6,13,75,3
0,6,52,140,3
0,6,139,348,3
0,6,359,39,3
0,6,76,205,3
1,6,415,320,3
0,6,103,87,3
0,6,328,378,3
0,6,123,113,3
1,6,349,127,3
0,6,49,162,3
0,6,119,160,3
1,6,101,2,3
0,6,191,158,3
1,6,326,116,3
1,6,319,507,3
0,6,214,353,3
1,6,13,183,3
0,6,185,571,3
1,6,441,778,3
0,6,336,529,3
1,7,745,973,3
0,5,113,242,3
0,6,340,266,3
1,6,16,42,3
0,6,337,373,3
1,6,93,185,3
1,7,744,584,3
0,6,129,201,3
1,6,543,615,3
0,6,15,145,3
1,6,11,57,3
1,6,205,584,3
0,6,415,291,3
0,6,467,474,3
0,6,186,376,3
0,6,213,171,3
1,6,323,354,3
0,6,23,102,3
0,6,215,177,3
1,6,398,300,3
0,6,214,24,3
1,6,628,483,3
0,6,485,466,3
0,6,527,398,3
0,6,289,221,3
0,6,206,241,3
0,6,32,356,3
0,6,214,165,3
1,6,177,546,3
1,6,88,161,3
0,6,264,163,3
1,6,106,84,3
0,6,180,120,3
1,6,193,57,3
0,6,152,89,3
0,6,8,303,3
1,6,233,224,3
1,6,80,1,3
1,6,266,74,3
1,6,87,8,3
1,6,200,3,3
1,6,109,108,3
0,6,207,3,3
1,6,6,24,3
0,6,11,71,3
1,6,54,77,3
1,6,259,483,3
0,6,388,58,3
0,6,42,313,3
