Ch1,Ch2,Ch3,Ch4,label
23,26,12,0,1
37,77,33,0,1
37,39,3,0,1
5,74,53,11,1
10,16,7,0,1
49,155,30,17,1
26,44,15,8,1
139,175,1,12,1
89,118,7,14,1
32,64,43,26,1
73,128,85,1,1
64,172,20,0,1
29,65,29,0,1
96,153,7,0,1
34,146,18,0,1
21,105,26,0,1
13,44,12,0,1
25,31,12,2,1
6,18,86,73,1
142,201,63,72,1
11,27,104,33,1
191,293,80,105,1
42,64,31,0,1
40,21,37,0,1
5,7,2,0,1
15,13,75,44,1
105,50,57,16,1
161,115,2,27,1
29,67,23,13,1
4,87,81,18,1
43,5,25,41,1
115,43,330,198,1
145,134,14,124,1
45,97,254,168,1
113,94,341,301,1
77,41,72,10,1
76,115,146,143,1
3,73,51,0,1
41,117,86,15,1
60,89,101,50,1
25,58,13,95,1
49,171,37,15,1
15,179,164,132,1
7,39,96,0,1
14,22,8,56,1
49,169,29,1,1
8,54,297,170,1
15,46,140,0,1
69,72,216,121,1
20,93,203,0,1
101,26,211,218,1
121,7,41,190,1
48,88,234,55,1
24,21,213,258,1
5,235,356,285,1
186,13,95,92,1
45,155,38,163,1
28,227,69,0,1
30,11,85,161,1
25,130,268,275,1
56,46,65,1,1
415,55,764,486,1
46,103,142,505,1
478,289,157,29,1
83,15,232,5,1
55,91,186,490,1
195,331,304,209,1
10,83,192,200,1
46,129,152,179,1
359,438,86,220,1
58,133,226,387,1
385,17,169,580,1
297,85,506,668,1
6,11,944,1023,1
146,15,240,458,1
362,17,1023,1023,1
472,194,35,207,1
343,188,1023,1023,1
155,71,114,533,1
82,258,376,765,1
109,75,626,1017,1
10,168,182,372,1
517,141,35,186,1
205,459,226,187,1
27,290,888,510,1
494,174,25,493,1
180,142,781,331,1
478,320,25,711,1
529,87,261,1017,1
391,184,708,308,1
408,52,115,849,1
65,266,774,785,1
131,358,184,1023,1
247,261,948,854,1
106,38,1023,820,1
186,208,201,50,1
472,204,996,462,1
36,153,252,1023,1
59,300,976,841,1
25,147,596,65,1
11,588,702,804,1
386,254,1023,898,1
433,223,167,615,1
694,567,239,789,1
219,85,464,26,1
6,294,35,98,1
491,262,20,699,1
93,502,461,1023,1
223,684,548,273,1
74,1023,648,594,1
176,83,273,234,1
218,311,1023,1023,1
213,147,809,427,1
536,295,205,476,1
69,179,920,947,1
195,176,455,324,1
43,69,382,42,1
330,23,688,573,1
46,49,415,1023,1
287,283,773,1023,1
157,46,1023,116,1
497,10,158,285,1
392,347,216,575,1
250,259,790,1005,1
108,245,838,167,1
300,98,32,672,1
220,219,108,295,1
58,45,134,734,1
329,757,139,115,1
382,328,267,581,1
578,1023,377,736,1
123,114,1023,136,1
462,71,459,156,1
232,225,190,1023,1
245,553,561,1023,1
140,518,632,1023,1
187,135,532,1023,1
468,1023,442,848,1
805,577,908,778,1
21,574,1023,1023,1
382,607,1023,1023,1
245,74,193,224,1
193,9,668,872,1
7,215,360,336,1
370,52,970,632,1
430,281,92,312,1
203,260,1023,1023,1
149,414,477,310,1
304,804,1023,1023,1
219,27,13,329,1
162,327,207,991,1
59,47,522,1023,1
167,333,173,18,1
299,19,187,351,1
513,302,459,474,1
157,375,65,254,1
264,91,339,52,1
37,248,114,1,1
244,181,718,1023,1
269,149,798,737,1
40,112,1023,1023,1
373,285,99,153,1
333,293,1023,787,1
189,33,1006,163,1
661,485,99,379,1
242,115,221,488,1
454,13,621,1023,1
110,353,747,421,1
162,91,324,1023,1
34,484,212,136,1
160,431,1023,598,1
567,282,1023,592,1
779,175,1023,1023,1
94,136,722,572,1
493,156,1023,1023,1
34,296,1023,1023,1
116,138,1023,1023,1
56,7,1023,640,1
441,382,649,1017,1
185,181,121,592,1
374,66,16,353,1
538,644,339,506,1
80,650,177,33,1
309,690,106,193,1
305,46,1023,258,1
129,203,15,41,1
263,22,347,269,1
35,206,789,297,1
74,8,996,560,1
280,130,110,283,1
217,87,33,522,1
340,160,210,31,1
137,112,146,65,1
282,286,47,161,1
486,594,280,544,1
335,374,241,109,1
129,70,85,496,1
231,436,462,873,1
130,109,167,104,1
10,190,870,229,1
93,75,126,221,1
17,114,17,163,1
15,117,204,99,1
130,99,264,287,1
15,135,69,319,1
148,133,253,400,1
171,94,537,184,1
80,58,227,390,1
183,161,49,26,1
295,312,374,275,1
89,50,130,73,1
233,257,159,47,1
332,347,155,0,1
98,65,250,100,1
272,258,186,181,1
100,97,85,79,1
20,7,345,279,1
13,79,659,465,1
113,114,49,45,1
243,269,415,89,1
18,88,29,83,1
229,388,212,145,1
197,41,390,267,1
12,78,614,644,1
87,172,151,95,1
16,12,245,291,1
17,70,133,13,1
50,69,752,249,1
130,37,412,29,1
138,122,83,151,1
24,82,40,74,1
198,234,30,34,1
65,53,80,180,1
0,173,189,246,1
47,85,51,0,1
25,217,231,228,1
97,59,64,0,1
130,247,240,99,1
5,97,291,559,1
109,270,301,348,1
1,234,714,464,1
53,63,281,230,1
113,106,346,143,1
17,45,9,49,1
126,5,7,0,1
83,55,16,2,1
18,53,171,89,1
140,24,177,85,1
170,376,145,220,1
87,97,68,5,1
9,102,95,29,1
186,16,406,144,1
164,38,667,245,1
208,182,32,0,1
122,62,197,88,1
254,189,556,373,1
30,140,386,139,1
75,57,339,0,1
69,18,13,61,1
244,112,614,261,1
98,15,148,47,1
4,19,484,167,1
173,64,348,208,1
66,15,347,222,1
77,136,177,201,1
71,310,156,223,1
63,43,509,373,1
249,126,86,35,1
385,104,286,670,1
74,82,201,773,1
53,84,366,46,1
31,135,50,76,1
132,134,15,533,1
51,11,6,454,1
58,65,110,105,1
7,41,111,9,1
354,591,246,489,1
238,206,23,420,1
393,310,302,53,1
166,137,585,193,1
115,10,139,136,1
0,6,15,61,1
84,127,344,500,1
160,11,590,85,1
152,24,903,1023,1
122,55,202,321,1
9,59,290,188,1
4,103,527,351,1
107,137,1023,780,1
161,363,489,516,1
98,119,136,309,1
166,115,6,319,1
82,161,270,503,1
582,742,42,147,1
279,625,205,55,1
159,152,290,58,1
50,58,478,67,1
266,8,63,335,1
92,25,39,76,1
200,150,112,75,1
8,54,436,133,1
103,135,129,136,1
95,21,166,121,1
3,126,279,368,1
16,29,151,2,1
45,109,474,692,1
187,109,87,246,1
655,181,319,496,1
328,8,348,277,1
93,159,103,97,1
231,78,20,163,1
205,392,27,447,1
43,243,108,268,1
365,114,409,224,1
313,36,229,35,1
65,92,549,61,1
18,71,379,255,1
52,15,585,516,1
262,199,160,95,1
142,127,162,207,1
81,30,348,567,1
250,269,604,292,1
74,72,6,222,1
205,508,429,346,1
156,402,176,183,1
47,236,602,211,1
109,99,247,466,1
5,37,164,21,1
61,27,498,414,1
44,35,631,522,1
240,65,261,100,1
17,95,614,564,1
146,259,181,142,1
149,75,301,137,1
215,27,226,259,1
41,14,220,51,1
115,38,19,371,1
154,285,253,41,1
88,11,398,401,1
265,243,297,362,1
89,159,371,467,1
112,85,74,415,1
118,21,307,191,1
392,436,448,429,1
0,41,661,430,1
91,90,76,276,1
66,167,388,319,1
237,325,7,0,1
41,43,203,121,1
107,84,341,173,1
44,124,301,454,1
1,83,195,44,1
9,102,573,485,1
239,185,231,370,1
40,101,307,26,1
439,179,315,685,1
111,247,355,656,1
187,246,333,406,1
9,35,124,68,1
134,71,403,285,1
31,50,290,242,1
78,66,127,98,1
132,52,345,238,1
34,15,213,253,1
67,168,163,206,1
57,20,231,118,1
154,221,370,470,1
14,119,434,223,1
126,111,316,472,1
206,254,210,48,1
27,7,418,513,1
234,365,48,114,1
250,315,438,367,1
43,55,87,154,1
50,27,125,30,1
48,12,21,87,1
176,235,233,87,1
33,61,21,0,1
14,91,33,15,1
72,94,7,134,1
57,126,451,117,1
77,60,123,233,1
86,6,126,60,1
32,25,465,123,1
111,6,167,27,1
59,101,167,109,1
172,431,210,213,1
68,137,115,48,1
29,235,228,265,1
39,133,18,19,1
307,62,216,295,1
14,18,13,34,1
115,5,313,422,1
102,164,27,328,1
1,94,135,286,1
81,116,80,174,1
223,220,54,54,1
91,11,55,108,1
5,156,141,203,1
9,81,57,124,1
61,49,506,424,1
0,140,191,435,1
11,108,892,813,1
153,7,509,214,1
124,29,682,647,1
18,55,325,13,1
72,118,730,1023,1
148,306,521,693,1
256,301,222,116,1
136,15,181,241,1
222,106,25,305,1
159,36,636,585,1
60,118,277,352,1
49,65,643,692,1
471,188,433,149,1
232,199,149,413,1
34,163,190,295,1
161,22,133,140,1
82,151,699,27,1
50,109,71,286,1
20,124,1023,914,1
63,85,381,555,1
108,27,508,169,1
203,128,534,183,1
261,237,1023,1023,1
239,34,235,149,1
199,10,1023,1023,1
201,244,742,503,1
244,166,356,0,1
77,50,351,119,1
4,236,142,329,1
90,99,164,72,1
31,16,261,669,1
626,179,193,534,1
28,40,82,132,1
73,301,137,532,1
30,19,844,1023,1
88,119,537,447,1
122,13,57,275,1
592,10,86,180,1
15,219,300,102,1
405,139,533,321,1
397,20,580,577,1
6,74,1023,1023,1
379,41,229,1023,1
124,375,180,867,1
322,312,40,540,1
51,196,575,341,1
500,100,392,182,1
278,368,407,395,1
155,18,138,60,1
56,249,399,507,1
227,159,53,214,1
192,363,159,306,1
99,52,516,277,1
415,425,338,1023,1
856,56,24,638,1
281,185,1023,139,1
211,11,26,212,1
130,90,383,109,1
299,340,594,1023,1
424,179,426,1023,1
136,27,523,239,1
210,436,505,1023,1
76,152,644,1023,1
691,208,278,711,1
263,94,332,255,1
518,47,220,9,1
1023,40,558,130,1
403,262,646,1023,1
292,372,1023,1023,1
223,454,311,870,1
1,27,907,961,1
184,77,245,1023,1
264,477,594,189,1
53,332,565,1023,1
275,212,242,616,1
492,44,1023,493,1
32,62,1023,1023,1
207,151,196,248,1
135,57,1023,1023,1
272,236,352,373,1
262,201,502,115,1
168,166,74,805,1
578,18,1023,183,1
313,104,547,1023,1
194,553,141,450,1
39,50,1023,747,1
130,27,1023,1023,1
427,210,1023,654,1
40,341,269,1023,1
303,135,226,902,1
86,48,983,695,1
38,80,234,49,1
16,183,1023,1023,1
185,102,1023,1023,1
94,61,217,421,1
311,148,1023,1023,1
322,99,210,89,1
221,129,930,1023,1
39,46,260,338,1
45,15,754,806,1
101,179,590,461,1
75,114,130,199,1
218,10,158,137,1
210,204,723,954,1
203,346,297,766,1
312,99,199,1023,1
80,36,965,700,1
178,72,147,612,1
288,58,763,470,1
65,43,49,94,1
16,77,941,1023,1
205,39,39,443,1
25,55,1023,602,1
6,47,1018,895,1
83,111,1023,812,1
180,93,1023,1023,1
40,61,458,989,1
237,163,488,494,1
444,94,738,1023,1
108,34,1023,780,1
69,38,224,933,1
139,137,1023,1023,1
2,493,1023,1023,1
198,422,116,482,1
26,104,445,284,1
101,24,134,457,1
11,161,1023,951,1
196,27,762,580,1
46,115,51,725,1
61,71,360,526,1
366,62,1023,547,1
138,270,546,857,1
50,59,226,36,1
46,103,175,157,1
10,233,113,324,1
62,220,542,368,1
283,197,150,477,1
1,139,936,759,1
291,282,1023,704,1
37,96,26,85,1
207,66,1023,1023,1
23,77,170,373,1
4,98,619,486,1
159,119,631,138,1
4,108,861,1,1
20,40,42,406,1
213,257,105,404,1
155,149,17,25,1
120,11,198,155,1
91,174,206,379,1
98,70,32,108,1
2,130,402,410,1
12,104,764,570,1
56,115,64,275,1
88,122,725,757,1
281,184,1016,1023,1
135,143,1001,695,1
314,70,100,728,1
61,44,1023,1023,1
10,102,250,283,1
161,75,325,174,1
9,11,381,512,1
30,273,290,108,1
9,5,161,123,1
83,67,153,151,1
45,194,14,381,1
41,99,561,773,1
7,328,714,507,1
180,226,70,66,1
211,264,386,366,1
79,163,271,74,1
64,133,407,424,1
57,145,84,23,1
11,32,187,0,1
197,69,516,116,1
192,79,12,115,1
72,279,340,552,1
195,79,340,83,1
439,6,397,606,1
23,134,346,300,1
102,200,72,262,1
130,167,345,999,1
140,135,440,608,1
249,244,12,181,1
86,121,83,348,1
8,10,17,304,1
52,111,477,280,1
30,20,105,130,1
5,60,653,563,1
12,93,379,439,1
163,78,269,684,1
195,328,451,476,1
202,228,16,685,1
16,40,357,340,1
145,87,193,114,1
90,90,529,320,1
98,413,1023,856,1
37,36,486,563,1
25,176,758,595,1
104,53,784,586,1
82,107,769,488,1
202,258,237,485,1
22,29,45,267,1
153,95,468,769,1
498,107,606,464,1
616,43,642,781,1
50,48,336,17,1
216,63,697,600,1
74,174,327,587,1
31,72,434,941,1
56,259,17,152,1
128,112,9,463,1
49,158,331,969,1
318,157,405,726,1
115,369,410,519,1
86,225,191,775,1
83,98,261,92,1
167,204,6,70,1
61,37,302,441,1
104,39,3,92,1
134,386,29,61,1
105,11,22,80,1
12,200,294,253,1
176,24,216,143,1
101,267,224,303,1
107,92,93,191,1
5,120,446,146,1
1,112,21,13,1
54,145,120,170,1
5,56,182,145,1
245,210,178,143,1
11,74,435,394,1
121,27,531,327,1
124,171,251,177,1
19,257,303,17,1
138,172,213,231,1
36,176,136,186,1
80,19,701,628,1
164,305,666,271,1
176,99,38,313,1
18,79,618,909,1
170,117,74,77,1
90,267,737,813,1
39,119,4,321,1
37,214,584,372,1
0,130,401,749,1
171,210,153,334,1
216,202,711,1023,1
20,13,263,313,1
28,334,149,209,1
13,105,52,19,1
71,16,421,413,1
127,261,35,138,1
202,113,275,99,1
115,203,167,263,1
26,91,394,233,1
26,89,315,407,1
60,170,83,130,1
1,174,561,769,1
181,171,499,219,1
53,24,111,586,1
3,73,271,556,1
122,408,67,37,1
66,145,245,44,1
38,206,38,23,1
119,15,291,157,1
40,178,595,384,1
186,140,158,145,1
137,219,455,545,1
122,247,33,49,1
37,69,28,127,1
258,153,351,9,1
16,97,138,2,1
27,53,109,311,1
168,203,54,169,1
2,45,58,245,1
4,17,16,89,1
11,89,97,343,1
119,7,71,19,1
41,13,90,356,1
54,753,388,498,1
265,311,68,278,1
32,69,413,118,1
53,53,138,207,1
127,171,504,350,1
22,157,42,140,1
143,107,52,53,1
15,13,277,148,1
138,111,348,213,1
1,99,67,140,1
95,87,292,241,1
10,28,86,231,1
121,105,247,257,1
71,74,192,117,1
96,108,12,23,1
42,88,47,14,1
109,249,20,173,1
99,115,100,55,1
24,106,182,286,1
41,92,144,0,1
38,39,370,647,1
35,27,82,53,1
52,48,463,287,1
48,52,337,412,1
45,166,28,231,1
0,49,284,85,1
35,12,164,49,1
137,153,218,9,1
63,114,178,153,1
142,159,355,10,1
165,31,114,68,1
54,124,251,3,1
73,269,103,10,1
7,14,419,269,1
120,293,93,30,1
230,73,154,463,1
55,19,325,288,1
74,99,192,527,1
28,7,199,143,1
43,37,772,735,1
31,140,130,70,1
99,356,458,353,1
131,201,509,547,1
3,17,400,31,1
48,89,86,113,1
1,9,149,123,1
77,173,180,70,1
4,68,110,229,1
225,156,68,68,1
170,149,87,109,1
72,37,748,704,1
247,299,455,234,1
114,130,748,560,1
201,106,652,561,1
150,90,338,263,1
4,49,405,152,1
27,21,325,73,1
78,7,216,47,1
18,285,588,654,1
35,10,387,324,1
45,218,14,144,1
31,7,295,303,1
37,137,159,284,1
86,61,269,220,1
17,70,576,497,1
162,187,293,260,1
197,291,50,439,1
138,38,545,235,1
5,65,995,1023,1
30,141,336,422,1
13,353,486,307,1
186,116,135,41,1
44,279,938,786,1
46,212,35,395,1
29,53,626,339,1
203,90,372,11,1
118,156,454,450,1
91,43,284,13,1
311,101,120,397,1
144,28,1023,618,1
102,111,879,1023,1
401,96,46,323,1
1,159,705,471,1
484,359,67,117,1
90,277,56,151,1
274,240,900,283,1
37,57,1023,697,1
221,24,82,579,1
193,164,532,413,1
302,20,1023,1023,1
5,246,68,81,1
48,108,1023,1023,1
42,112,261,117,1
155,169,1023,822,1
10,231,489,214,1
226,221,175,296,1
466,82,241,528,1
59,269,441,834,1
510,351,349,615,1
90,575,1023,1023,1
29,152,507,746,1
295,422,1023,1023,1
518,20,63,529,1
76,337,1023,1023,1
86,156,1023,1023,1
145,156,1023,1023,1
182,234,1023,1023,1
107,125,1023,1023,1
143,146,857,1023,1
146,349,1023,1023,1
3,179,1023,166,1
133,321,549,94,1
38,137,227,157,1
239,373,1023,1023,1
577,523,511,132,1
401,27,629,33,1
287,174,335,795,1
534,50,318,209,1
37,83,355,456,1
183,91,26,313,1
259,201,75,4,1
253,10,604,117,1
57,364,978,710,1
568,124,879,496,1
95,127,354,339,1
221,142,642,634,1
85,175,1023,1023,1
13,20,344,267,1
322,262,701,1023,1
206,71,395,1023,1
140,25,159,843,1
6,85,555,0,1
40,352,83,442,1
58,11,34,69,1
162,42,1023,628,1
438,318,197,944,1
333,94,1023,800,1
266,85,1023,764,1
479,298,374,1023,1
232,55,951,1023,1
261,138,577,0,1
215,530,710,1023,1
70,456,371,1023,1
251,249,255,120,1
110,13,906,471,1
29,192,711,696,1
101,182,803,971,1
569,336,495,208,1
275,72,699,1023,1
123,316,349,366,1
45,452,136,513,1
310,506,177,342,1
236,484,171,214,1
156,428,457,1023,1
190,228,180,76,1
12,398,969,1023,1
219,119,765,78,1
429,50,376,482,1
130,114,112,496,1
348,129,248,595,1
29,56,302,84,1
154,63,173,1023,1
56,171,897,293,1
31,379,335,163,1
276,568,309,994,1
6,214,463,450,1
225,126,387,853,1
423,1023,1023,1023,1
14,468,353,894,1
15,166,1023,1023,1
76,186,593,1023,1
99,13,898,514,1
394,216,1023,859,1
268,26,794,0,1
217,104,549,1023,1
35,24,479,458,1
211,88,1023,1023,1
525,184,1023,299,1
107,795,1023,1023,1
173,321,1023,1023,1
114,106,100,930,1
4,169,1023,1023,1
90,25,571,634,1
37,204,608,588,1
39,210,150,400,1
77,59,618,108,1
41,83,1023,531,1
153,67,585,708,1
19,185,467,1023,1
121,94,90,364,1
128,24,562,39,1
15,171,116,24,1
95,187,1023,910,1
15,127,1023,871,1
6,85,500,645,1
75,152,854,662,1
32,13,116,90,1
91,283,473,993,1
122,9,702,310,1
23,47,1023,141,1
19,29,704,232,1
165,183,464,778,1
17,101,682,19,1
231,398,1023,1023,1
239,143,83,314,1
125,75,635,729,1
9,14,414,251,1
52,76,253,774,1
93,158,275,55,1
64,5,681,732,1
110,120,755,286,1
48,440,492,270,1
75,294,440,392,1
9,35,90,17,1
164,60,567,508,1
93,37,224,450,1
28,12,304,27,1
87,94,267,555,1
137,127,526,409,1
47,78,458,403,1
58,42,345,153,1
31,102,286,346,1
49,11,446,267,1
19,27,731,762,1
21,157,387,201,1
213,95,413,278,1
47,291,231,89,1
130,134,299,405,1
129,326,29,454,1
51,44,111,203,1
90,322,588,1023,1
40,78,113,161,1
26,36,39,114,1
150,229,383,330,1
50,87,42,22,1
49,19,343,388,1
70,102,695,545,1
4,28,171,97,1
167,50,6,574,1
144,92,355,583,1
132,380,384,438,1
226,549,153,460,1
166,381,368,38,1
142,505,641,91,1
215,13,19,3,1
132,58,267,59,1
54,35,449,254,1
103,22,61,351,1
156,27,48,52,1
74,37,30,97,1
208,93,850,603,1
54,320,404,388,1
10,10,5,50,1
123,105,460,70,1
166,262,60,92,1
121,167,13,118,1
49,90,262,75,1
102,213,772,512,1
7,161,309,14,1
154,125,788,754,1
57,166,52,108,1
5,12,911,852,1
77,156,143,508,1
197,614,425,23,1
397,233,400,106,1
114,90,224,0,1
39,10,495,545,1
40,115,309,386,1
161,126,107,6,1
26,135,361,313,1
193,327,416,21,1
118,188,221,404,1
129,523,406,602,1
159,525,124,335,1
257,204,299,335,1
54,71,139,57,1
99,158,358,698,1
99,25,249,219,1
80,11,355,85,1
4,23,118,93,1
5,190,571,229,1
64,18,318,375,1
199,408,362,482,1
69,62,39,78,1
166,32,337,116,1
36,80,17,485,1
98,182,92,65,1
239,366,973,643,1
295,216,424,519,1
180,272,383,534,1
239,147,973,744,1
2,43,269,346,1
42,38,786,680,1
154,250,130,49,1
308,126,270,330,1
139,181,109,390,1
94,112,20,77,1
99,92,500,408,1
56,188,312,42,1
212,147,193,58,1
102,122,194,77,1
197,166,301,314,1
149,250,77,94,1
29,60,126,11,1
196,71,47,110,1
94,284,215,297,1
61,18,61,358,1
8,16,116,142,1
281,327,383,485,1
178,105,88,375,1
190,242,818,378,1
203,321,86,137,1
90,71,104,482,1
322,284,143,168,1
39,116,14,62,1
96,114,237,312,1
154,95,10,25,1
18,163,63,133,1
55,75,546,314,1
193,20,540,443,1
39,102,344,140,1
92,107,872,487,1
15,31,370,88,1
89,145,667,863,1
144,278,317,13,1
232,281,92,373,1
193,239,165,214,1
0,68,190,237,1
23,15,21,155,1
67,66,646,304,1
150,141,133,431,1
31,36,465,414,1
119,46,195,163,1
218,179,242,305,1
122,46,55,29,1
28,10,101,547,1
69,122,51,395,1
26,33,38,205,1
14,114,440,260,1
22,148,64,140,1
208,75,126,142,1
5,61,433,192,1
26,50,581,367,1
63,122,435,217,1
75,73,354,243,1
122,188,7,37,1
12,128,3,97,1
83,6,279,221,1
200,281,198,15,1
44,149,87,176,1
87,90,310,210,1
112,115,333,165,1
62,92,5,151,1
90,14,5,82,1
35,27,85,11,1
66,31,118,130,1
8,16,49,107,1
1,25,20,0,1
1,44,338,163,1
0,126,8,25,1
74,151,472,174,1
16,15,200,251,1
181,396,137,55,1
5,155,332,51,1
107,281,397,545,1
87,307,89,210,1
97,451,62,131,1
134,308,201,107,1
13,37,27,10,1
42,200,433,56,1
84,145,73,173,1
65,48,402,99,1
18,46,159,380,1
73,20,51,0,1
44,33,131,151,1
12,85,73,45,1
7,9,177,149,1
32,15,134,109,1
160,321,55,46,1
258,344,97,98,1
306,29,230,106,1
170,127,87,589,1
3,76,134,148,1
2,106,214,3,1
74,217,271,166,1
1,70,81,58,1
61,22,422,237,1
11,63,171,206,1
17,31,142,69,1
1,28,105,74,1
139,71,6,213,1
9,114,121,121,1
333,209,451,43,1
46,215,86,399,1
81,162,744,380,1
268,289,117,438,1
30,83,541,245,1
66,14,29,509,1
161,163,34,317,1
74,164,365,17,1
66,15,361,373,1
115,99,152,536,1
56,69,693,782,1
27,48,223,248,1
71,155,304,14,1
68,62,327,247,1
126,117,249,154,1
46,36,628,314,1
101,241,201,417,1
26,594,365,481,1
52,169,527,479,1
198,269,49,48,1
164,28,392,61,1
250,97,494,183,1
12,59,512,426,1
50,16,673,372,1
127,100,1005,520,1
30,59,56,418,1
102,64,34,331,1
34,249,531,758,1
369,185,343,212,1
70,128,11,692,1
295,33,420,455,1
72,11,369,987,1
229,158,528,422,1
188,321,706,1023,1
53,90,487,13,1
163,262,603,457,1
31,48,408,256,1
202,152,335,372,1
321,16,136,212,1
230,82,333,395,1
273,73,914,1001,1
181,9,1023,955,1
58,40,586,720,1
249,46,1023,1023,1
95,10,643,1010,1
603,119,1023,1023,1
514,165,350,7,1
153,135,228,1023,1
423,401,182,403,1
613,14,370,11,1
119,647,273,534,1
117,108,696,934,1
178,24,1023,345,1
76,12,789,656,1
242,218,198,105,1
174,76,48,706,1
95,31,483,55,1
118,306,68,532,1
292,134,717,755,1
36,336,956,323,1
339,106,112,1023,1
138,43,522,1023,1
96,103,789,825,1
9,284,477,1023,1
102,129,1023,1023,1
1,175,547,100,1
273,317,987,684,1
36,273,341,660,1
708,265,446,106,1
412,240,434,358,1
100,137,338,389,1
52,339,117,1023,1
241,531,745,1023,1
146,82,350,1023,1
101,8,294,398,1
83,515,320,914,1
21,30,892,1023,1
459,480,246,227,1
357,216,870,1023,1
203,460,976,134,1
468,373,234,267,1
456,621,804,207,1
318,503,21,809,1
337,102,803,683,1
485,285,768,227,1
15,52,20,707,1
348,473,59,59,1
475,8,293,30,1
265,41,334,160,1
226,263,402,70,1
168,117,83,208,1
391,145,206,280,1
163,36,936,1023,1
400,539,462,1023,1
9,130,634,556,1
478,60,1023,1023,1
272,291,996,363,1
66,229,1023,1023,1
444,311,632,714,1
241,121,32,971,1
969,192,408,510,1
226,18,1023,731,1
824,319,569,437,1
91,64,1023,1023,1
637,163,141,55,1
110,289,1023,1023,1
796,398,978,104,1
180,64,1023,418,1
190,181,185,784,1
391,43,551,984,1
4,33,472,55,1
72,265,638,810,1
576,272,68,265,1
412,189,1023,915,1
108,53,1023,833,1
63,271,1023,64,1
338,341,1023,1023,1
406,69,1023,1023,1
56,99,95,1023,1
97,100,1004,1023,1
441,134,565,204,1
234,7,1023,1023,1
48,7,1015,522,1
276,111,894,1023,1
98,37,1023,868,1
773,632,326,67,1
182,387,1023,1023,1
258,41,1023,1023,1
144,66,771,53,1
109,376,1023,1023,1
400,184,1023,1023,1
284,33,142,494,1
364,7,433,306,1
247,135,1023,1023,1
228,256,1023,1023,1
44,35,1023,1017,1
63,32,19,3,1
11,85,1023,557,1
212,176,341,314,1
99,171,856,800,1
2,78,1023,1023,1
161,394,1023,1023,1
20,135,1023,1023,1
5,33,197,218,1
91,267,1007,1023,1
2,52,855,188,1
351,214,370,1023,1
414,704,1023,1023,1
71,210,390,40,1
164,120,194,363,1
78,33,367,377,1
25,195,637,410,1
53,25,247,573,1
120,150,61,584,1
11,9,225,300,1
114,26,41,17,1
270,102,456,33,1
29,53,229,62,1
68,14,106,129,1
83,169,182,44,1
141,257,484,567,1
127,126,1023,1023,1
130,161,9,121,1
36,11,796,1023,1
175,139,312,424,1
34,182,966,1023,1
27,293,125,196,1
175,235,73,52,1
17,81,764,801,1
18,29,175,239,1
134,207,819,503,1
18,21,172,159,1
65,61,1023,895,1
165,232,606,21,1
132,30,1023,1023,1
254,117,904,733,1
110,143,462,263,1
130,220,52,277,1
319,122,582,600,1
44,15,139,64,1
73,26,568,380,1
15,101,605,463,1
81,179,333,342,1
53,114,896,509,1
301,367,922,75,1
410,166,845,976,1
217,340,296,316,1
6,71,439,127,1
24,39,483,229,1
137,326,398,608,1
71,8,665,728,1
40,103,81,339,1
82,152,35,0,1
254,345,33,394,1
413,660,67,239,1
67,109,31,500,1
417,538,141,60,1
39,351,45,438,1
236,515,728,139,1
33,16,1023,832,1
61,32,165,240,1
160,111,485,312,1
85,107,117,39,1
43,140,62,107,1
10,93,47,276,1
61,19,171,497,1
39,78,279,136,1
35,170,192,138,1
54,97,203,1009,1
119,74,912,564,1
3,15,784,806,1
198,129,663,198,1
344,117,1023,806,1
209,127,493,374,1
50,8,291,130,1
67,41,401,22,1
5,44,75,26,1
3,140,39,12,1
49,171,284,289,1
59,76,35,695,1
4,10,12,296,1
161,40,877,164,1
61,127,692,270,1
2,229,426,439,1
307,174,341,653,1
5,51,382,489,1
246,343,243,435,1
21,108,119,396,1
410,171,90,38,1
184,192,472,61,1
155,268,203,194,1
54,28,203,85,1
112,265,250,107,1
155,156,200,287,1
125,34,238,135,1
82,35,255,343,1
92,144,136,199,1
37,173,342,923,1
2,394,412,182,1
98,331,310,722,1
87,11,181,123,1
144,91,553,324,1
451,349,352,256,1
50,127,794,535,1
182,54,37,300,1
10,9,185,67,1
125,43,859,1008,1
155,288,184,166,1
419,520,969,848,1
185,22,203,363,1
488,217,281,357,1
21,409,511,36,1
7,186,12,490,1
89,16,373,439,1
71,306,850,56,1
182,103,389,614,1
16,181,1023,1023,1
94,57,262,127,1
486,273,151,83,1
266,127,13,299,1
73,108,240,253,1
108,160,364,412,1
156,280,267,101,1
132,13,157,40,1
9,160,513,501,1
45,153,50,284,1
54,93,57,342,1
86,112,108,104,1
82,9,135,200,1
159,349,269,503,1
85,170,459,343,1
2,19,55,205,1
39,47,355,610,1
48,255,277,75,1
156,594,112,603,1
3,63,141,140,1
67,94,82,337,1
49,80,229,247,1
340,332,418,327,1
81,203,366,337,1
171,8,87,149,1
97,49,145,308,1
105,149,234,13,1
73,48,23,16,1
168,105,221,282,1
123,44,157,278,1
305,163,251,256,1
39,61,135,151,1
122,128,524,563,1
67,62,139,26,1
97,188,624,977,1
66,39,133,28,1
51,26,166,158,1
44,83,655,490,1
247,196,95,287,1
34,49,704,492,1
201,33,291,650,1
18,148,582,494,1
146,41,143,88,1
9,46,67,244,1
224,184,24,122,1
143,77,486,395,1
151,91,65,13,1
51,76,471,379,1
124,119,114,129,1
53,335,128,250,1
16,191,109,320,1
38,200,319,380,1
58,152,105,0,1
25,42,435,284,1
11,69,29,227,1
140,141,487,232,1
169,179,233,40,1
375,419,608,360,1
60,13,277,308,1
297,246,314,111,1
6,58,582,751,1
384,311,47,18,1
169,212,574,363,1
81,89,46,128,1
51,127,292,199,1
60,228,439,86,1
91,375,483,406,1
61,8,194,18,1
118,58,215,276,1
22,115,445,308,1
95,114,207,142,1
70,29,263,428,1
280,259,18,172,1
42,218,8,197,1
363,287,111,573,1
21,75,380,489,1
71,169,68,162,1
177,200,543,684,1
33,136,287,471,1
10,45,566,372,1
29,134,556,376,1
208,471,93,284,1
143,161,203,399,1
3,87,889,1023,1
259,48,201,125,1
0,170,1005,1023,1
49,253,498,601,1
242,295,769,453,1
130,393,624,1023,1
356,410,673,285,1
122,322,119,243,1
117,102,96,489,1
63,23,473,531,1
234,9,495,419,1
80,131,78,756,1
1,178,511,419,1
225,76,461,551,1
450,376,519,61,1
296,392,79,26,1
29,62,1023,767,1
13,9,29,856,1
68,167,732,614,1
111,27,207,523,1
8,203,202,61,1
20,226,213,757,1
454,86,191,780,1
494,686,613,480,1
61,129,427,196,1
306,437,70,536,1
499,114,234,823,1
211,165,332,398,1
93,233,521,38,1
7,62,134,586,1
478,109,251,480,1
105,33,174,815,1
9,145,1023,720,1
117,51,858,677,1
300,35,794,598,1
244,60,1023,771,1
125,130,1023,241,1
228,153,569,811,1
238,416,732,828,1
28,276,198,299,1
165,41,111,916,1
358,34,985,654,1
136,124,469,843,1
318,228,355,503,1
123,31,212,1023,1
209,55,348,143,1
144,112,509,742,1
88,51,666,848,1
185,9,244,534,1
16,21,64,676,1
5,214,28,128,1
119,55,508,905,1
70,201,765,790,1
553,538,775,465,1
12,155,330,284,1
385,514,355,320,1
60,217,190,0,1
71,108,72,232,1
41,513,693,775,1
34,50,86,121,1
15,235,1023,1023,1
69,487,1023,286,1
20,75,2,368,1
115,179,503,179,1
311,648,999,358,1
314,58,1023,1006,1
231,79,218,25,1
36,122,824,822,1
813,212,942,420,1
38,237,287,414,1
43,14,593,275,1
21,225,508,389,1
568,71,392,581,1
356,339,26,307,1
351,90,217,389,1
48,105,68,1023,1
131,69,165,177,1
75,33,1023,693,1
145,42,668,1023,1
395,875,1023,1023,1
183,498,1023,1023,1
385,105,1023,731,1
484,10,521,1023,1
51,93,470,455,1
575,76,992,954,1
137,24,1023,1023,1
261,68,152,524,1
499,263,1023,738,1
435,222,136,198,1
237,56,483,139,1
464,180,715,1023,1
154,10,868,594,1
111,82,736,128,1
331,362,164,553,1
207,103,1023,1023,1
328,135,1023,1023,1
584,739,58,420,1
441,166,1023,1023,1
160,419,153,479,1
733,81,548,1023,1
483,413,740,494,1
69,124,602,454,1
169,193,438,683,1
339,41,974,736,1
359,59,49,436,1
195,75,351,72,1
354,153,540,600,1
128,227,723,812,1
33,115,149,223,1
209,253,860,661,1
19,69,1023,1023,1
257,634,218,548,1
711,286,1023,1023,1
554,28,203,32,1
40,302,1023,1023,1
103,13,957,778,1
30,17,1023,1023,1
380,32,635,930,1
423,433,1023,364,1
392,171,380,794,1
447,482,922,633,1
424,427,331,92,1
14,15,1023,1023,1
128,174,1023,1023,1
401,157,538,990,1
64,102,1023,1023,1
26,284,247,59,1
461,584,1023,1023,1
477,149,796,774,1
254,197,892,1023,1
78,318,303,116,1
77,72,258,351,1
306,76,124,348,1
24,343,51,379,1
176,519,82,518,1
113,844,1023,812,1
1023,329,257,234,1
513,40,1023,1023,1
202,209,1023,794,1
262,37,1023,1023,1
303,38,1023,1023,1
110,116,549,1023,1
1,110,887,795,1
115,206,1023,1023,1
45,86,1023,341,1
18,150,244,186,1
307,370,1023,1023,1
410,279,1023,1023,1
44,415,1023,1023,1
120,101,135,423,1
568,103,1023,1023,1
34,22,1023,1023,1
316,90,166,330,1
52,117,910,417,1
100,38,868,508,1
130,57,658,184,1
179,226,329,479,1
449,130,1023,529,1
70,43,816,394,1
342,216,483,302,1
116,169,9,164,1
51,131,82,186,1
50,131,225,290,1
103,19,37,118,1
43,23,740,456,1
41,78,80,315,1
189,170,578,272,1
127,41,133,8,1
67,76,92,4,1
50,70,321,13,1
177,60,133,385,1
12,6,1023,1023,1
161,46,847,386,1
271,109,28,423,1
295,221,661,481,1
121,83,605,256,1
211,264,238,396,1
275,336,273,503,1
60,72,463,230,1
447,188,240,270,1
351,437,839,658,1
97,33,211,183,1
170,288,1023,1023,1
304,5,42,98,1
198,40,1023,984,1
0,76,1020,580,1
86,14,27,374,1
105,29,587,743,1
103,103,378,348,1
151,205,809,559,1
199,223,308,130,1
31,51,382,500,1
229,11,293,365,1
195,318,213,126,1
234,616,453,132,1
74,220,206,222,1
233,204,411,1023,1
15,67,209,190,1
200,7,28,249,1
96,105,32,210,1
108,157,119,38,1
7,35,292,338,1
192,109,45,0,1
29,63,363,535,1
14,116,261,461,1
181,88,403,314,1
52,86,597,632,1
18,140,129,117,1
415,193,438,751,1
500,194,932,1023,1
62,190,239,866,1
232,439,205,0,1
8,29,461,15,1
22,34,109,178,1
51,196,657,269,1
279,148,344,104,1
71,15,102,200,1
26,95,314,294,1
22,135,352,198,1
1,470,302,631,1
44,31,48,199,1
396,794,211,17,1
409,384,484,1023,1
132,146,893,1023,1
96,21,501,145,1
169,93,77,15,1
119,269,361,680,1
316,81,469,383,1
400,304,579,291,1
185,240,293,200,1
173,197,608,535,1
82,348,75,445,1
176,132,974,642,1
64,152,243,60,1
65,306,189,319,1
343,157,277,231,1
84,135,18,1023,1
107,16,30,477,1
57,72,268,227,1
88,89,23,44,1
142,161,492,669,1
42,51,183,67,1
75,61,290,169,1
228,119,519,271,1
133,161,43,301,1
161,7,478,476,1
65,25,318,386,1
348,70,629,402,1
279,120,317,250,1
77,215,122,251,1
20,139,595,30,1
397,499,51,353,1
2,7,417,73,1
210,456,168,310,1
142,63,28,642,1
72,40,440,633,1
128,79,48,23,1
22,143,399,557,1
21,22,162,140,1
207,117,465,423,1
118,64,19,30,1
25,15,883,787,1
364,11,286,408,1
105,55,125,161,1
343,76,41,63,1
54,399,433,751,1
2,286,47,264,1
59,416,866,932,1
213,633,189,265,1
210,40,1023,1019,1
62,184,48,14,1
261,184,1023,499,1
102,160,107,231,1
213,48,253,112,1
68,131,299,367,1
204,13,88,338,1
159,138,39,389,1
128,171,310,279,1
232,258,341,341,1
214,548,96,85,1
242,158,256,65,1
130,175,471,242,1
163,29,61,232,1
144,39,39,194,1
16,106,105,2,1
54,203,41,232,1
187,186,26,99,1
133,159,106,52,1
1,59,50,168,1
51,34,275,12,1
162,218,686,557,1
243,225,292,498,1
220,136,600,472,1
2,134,402,292,1
51,122,365,545,1
61,160,14,143,1
90,162,461,460,1
65,139,312,625,1
106,35,355,380,1
10,96,41,61,1
112,199,222,278,1
62,72,530,352,1
45,18,361,453,1
213,83,598,550,1
236,255,435,592,1
47,637,451,488,1
36,290,122,452,1
4,93,679,882,1
102,228,162,113,1
15,123,516,515,1
157,158,304,336,1
124,137,62,159,1
1,102,55,52,1
97,290,216,357,1
157,89,296,430,1
176,33,406,242,1
123,159,443,444,1
72,220,417,260,1
50,17,294,286,1
260,237,345,424,1
3,45,282,238,1
176,462,531,591,1
93,192,199,108,1
5,46,275,230,1
59,84,83,0,1
62,38,319,47,1
54,5,331,147,1
88,39,719,530,1
79,28,20,248,1
101,104,581,597,1
41,34,22,288,1
96,210,117,125,1
333,77,344,338,1
198,203,306,143,1
58,17,372,1,1
25,75,327,231,1
26,277,186,281,1
18,185,702,313,1
211,259,100,35,1
49,6,519,216,1
44,231,119,168,1
97,248,465,180,1
66,143,422,441,1
124,137,527,276,1
23,51,816,698,1
30,8,708,826,1
33,75,65,114,1
136,148,267,46,1
53,229,16,368,1
79,274,695,888,1
130,123,63,185,1
366,222,127,139,1
24,101,140,398,1
198,124,142,235,1
240,189,34,407,1
200,208,558,145,1
44,355,18,90,1
155,150,506,0,1
26,11,3,50,1
42,163,837,97,1
15,76,386,93,1
366,27,652,685,1
230,129,362,194,1
43,244,38,0,1
104,307,512,55,1
295,23,5,238,1
291,74,821,640,1
214,19,585,214,1
0,202,316,304,1
201,81,365,389,1
98,12,147,491,1
268,268,313,231,1
162,89,67,220,1
25,69,136,217,1
6,197,194,531,1
120,238,312,1023,1
454,143,66,1023,1
242,47,212,280,1
67,261,415,98,1
26,204,923,1023,1
129,8,483,999,1
325,82,718,545,1
139,157,105,212,1
307,174,46,76,1
195,135,398,854,1
144,305,237,22,1
181,477,447,140,1
77,51,223,964,1
88,58,716,1023,1
34,371,213,65,1
126,168,357,162,1
173,90,552,1023,1
57,186,331,624,1
188,334,544,130,1
420,149,224,309,1
135,166,7,1023,1
415,358,175,898,1
7,185,896,515,1
441,77,6,134,1
15,373,1023,380,1
191,33,65,416,1
399,424,1023,245,1
540,111,107,552,1
155,360,173,282,1
117,226,358,1023,1
205,292,184,545,1
112,30,526,1023,1
100,38,571,976,1
4,34,152,523,1
277,133,758,39,1
245,163,824,526,1
260,161,640,411,1
80,253,584,107,1
314,278,720,578,1
140,99,1023,1023,1
347,100,161,426,1
33,52,537,1023,1
69,177,791,543,1
16,12,864,330,1
479,6,582,242,1
37,111,972,408,1
61,145,517,0,1
141,268,528,1008,1
544,260,1023,1023,1
349,453,738,893,1
123,103,3,383,1
109,73,1023,313,1
94,466,1023,1023,1
148,63,51,1003,1
531,296,1023,1023,1
11,255,750,492,1
270,306,1023,1023,1
231,293,1023,1023,1
41,281,213,109,1
86,93,323,249,1
90,218,66,206,1
62,104,574,392,1
127,103,172,633,1
170,79,23,28,1
323,152,352,108,1
79,489,1023,1023,1
82,305,1023,918,1
579,823,87,307,1
810,61,620,368,1
67,417,930,1023,1
272,231,55,1023,1
411,356,943,672,1
340,648,495,569,1
684,488,762,470,1
969,249,955,722,1
1023,695,738,857,1
140,436,1023,1023,1
586,244,62,250,1
415,109,384,611,1
148,430,135,33,1
179,179,372,472,1
324,186,292,164,1
154,262,476,225,1
21,17,925,516,1
3,115,476,256,1
371,670,858,1023,1
744,344,236,185,1
436,126,137,718,1
412,47,895,224,1
18,214,173,454,1
336,84,1023,255,1
214,394,54,556,1
524,263,293,283,1
99,291,1022,884,1
53,418,299,880,1
169,7,904,1023,1
387,65,476,1023,1
370,245,632,736,1
208,252,6,61,1
416,315,39,1023,1
782,567,437,1023,1
115,311,165,721,1
391,370,516,855,1
113,386,481,270,1
208,241,15,69,1
239,82,299,405,1
134,75,604,559,1
199,30,975,509,1
157,254,848,436,1
307,93,801,626,1
12,186,641,755,1
18,66,777,0,1
166,121,464,517,1
147,322,94,205,1
16,239,126,594,1
173,412,117,521,1
92,272,695,650,1
98,104,1023,1023,1
131,33,1023,838,1
658,443,1023,1018,1
350,544,1023,1023,1
126,168,123,137,1
121,9,326,190,1
85,194,770,237,1
44,45,689,694,1
98,240,773,1023,1
110,223,198,7,1
334,850,482,51,1
305,495,325,242,1
14,70,26,170,1
170,269,322,1023,1
100,142,665,816,1
49,164,69,107,1
42,164,627,611,1
249,286,558,231,1
131,62,1023,597,1
165,208,41,229,1
198,203,1023,1023,1
31,168,1023,451,1
35,24,876,890,1
0,36,1023,1023,1
348,329,1023,879,1
352,185,48,521,1
121,59,76,199,1
246,90,71,202,1
141,15,370,371,1
16,95,42,25,1
37,29,289,157,1
26,103,124,123,1
132,44,218,200,1
282,170,106,45,1
54,113,389,696,1
176,12,1023,667,1
278,130,437,1023,1
277,104,901,628,1
59,201,85,193,1
71,270,466,216,1
47,139,400,363,1
38,30,368,154,1
208,416,1023,992,1
35,290,395,434,1
10,10,248,30,1
146,121,168,351,1
61,262,653,54,1
27,377,195,297,1
159,169,904,588,1
20,168,29,70,1
170,49,707,534,1
149,202,565,432,1
165,160,1006,720,1
14,119,143,96,1
42,130,240,14,1
126,187,14,44,1
111,109,913,1023,1
39,114,722,809,1
284,63,233,107,1
101,22,508,445,1
21,26,237,241,1
47,16,575,246,1
33,174,1023,985,1
170,108,214,152,1
34,46,63,333,1
223,17,806,654,1
67,175,335,341,1
163,259,790,402,1
119,163,146,2,1
21,125,383,589,1
188,35,902,743,1
189,131,259,841,1
389,339,28,68,1
266,648,771,877,1
262,87,180,393,1
176,201,912,798,1
255,150,223,252,1
169,6,480,33,1
183,267,502,541,1
17,87,39,36,1
121,29,231,405,1
102,18,359,530,1
11,135,82,162,1
306,151,187,60,1
38,230,284,9,1
44,40,594,27,1
107,131,665,962,1
17,211,1023,947,1
204,267,412,493,1
190,114,375,335,1
219,299,619,861,1
39,219,360,370,1
117,47,121,62,1
5,67,200,206,1
75,10,113,564,1
160,361,26,380,1
84,17,654,373,1
173,373,949,666,1
60,49,31,276,1
14,260,131,84,1
150,28,559,523,1
236,283,392,255,1
13,276,374,550,1
102,61,369,14,1
130,65,345,171,1
228,84,71,501,1
30,35,573,1023,1
184,141,318,467,1
25,42,194,70,1
221,397,49,52,1
80,190,366,430,1
9,341,506,570,1
81,100,43,153,1
227,263,70,79,1
11,28,478,446,1
336,176,51,37,1
283,59,489,73,1
186,149,98,742,1
187,301,67,447,1
33,193,559,715,1
255,271,449,151,1
3,139,151,108,1
360,677,15,193,1
105,214,428,237,1
322,182,527,350,1
54,142,29,124,1
401,575,319,198,1
37,65,267,282,1
82,167,134,109,1
4,53,130,34,1
8,79,584,720,1
20,13,8,57,1
52,33,400,227,1
304,401,91,0,1
96,525,394,793,1
135,181,281,399,1
220,178,855,1023,1
198,232,135,72,1
87,27,341,552,1
126,114,50,164,1
34,40,80,8,1
6,143,166,4,1
77,20,305,326,1
83,80,5,453,1
94,143,405,1023,1
79,23,189,246,1
12,42,782,725,1
360,308,481,304,1
376,456,226,66,1
48,83,235,42,1
45,180,537,303,1
11,389,280,367,1
29,13,793,180,1
343,215,172,159,1
83,115,91,135,1
48,325,541,409,1
18,358,579,616,1
82,328,193,515,1
31,17,442,486,1
102,31,9,25,1
32,121,545,610,1
8,40,10,402,1
23,179,542,625,1
130,57,182,375,1
18,183,68,164,1
276,112,242,23,1
28,30,294,358,1
149,171,162,18,1
231,239,148,105,1
13,216,60,605,1
1,34,224,38,1
159,23,333,263,1
17,31,101,150,1
16,174,184,0,1
161,361,337,634,1
244,207,24,299,1
55,91,104,5,1
159,39,61,476,1
72,30,258,609,1
23,91,8,251,1
113,160,185,43,1
24,15,70,0,1
40,70,102,384,1
3,126,352,533,1
127,201,7,67,1
11,31,245,214,1
29,55,68,448,1
205,233,164,303,1
218,278,61,167,1
76,91,755,1011,1
114,70,179,65,1
2,41,719,734,1
180,61,754,834,1
4,80,254,111,1
14,188,850,573,1
65,356,349,530,1
0,5,178,21,1
75,100,266,299,1
35,144,149,34,1
303,70,52,88,1
201,35,457,201,1
25,103,110,17,1
32,150,869,365,1
76,89,560,682,1
50,51,312,207,1
50,26,151,138,1
154,197,255,452,1
119,95,267,251,1
6,53,187,118,1
100,45,115,384,1
3,240,147,273,1
90,49,76,202,1
120,231,138,106,1
95,123,496,263,1
157,181,115,426,1
14,64,551,259,1
9,149,232,40,1
2,195,53,196,1
108,27,160,73,1
96,120,216,66,1
42,14,123,156,1
70,104,615,419,1
156,180,497,240,1
238,144,511,261,1
254,341,769,670,1
177,247,602,810,1
300,219,41,187,1
325,341,173,135,1
216,472,467,14,1
206,186,248,589,1
54,100,883,842,1
271,206,74,45,1
171,192,934,776,1
91,43,489,24,1
105,42,1023,1023,1
79,107,493,538,1
124,186,451,141,1
113,89,182,556,1
158,97,910,94,1
72,105,678,511,1
148,68,1023,961,1
56,207,263,6,1
90,186,1023,1023,1
97,109,36,266,1
82,15,198,284,1
118,226,315,871,1
249,88,389,6,1
619,264,570,359,1
607,43,497,59,1
160,35,616,204,1
314,91,212,86,1
124,86,246,369,1
166,41,802,195,1
122,112,452,91,1
385,12,1023,207,1
210,214,347,402,1
0,582,1023,1023,1
113,103,45,1023,1
291,525,1023,63,1
361,535,304,11,1
434,186,1023,1023,1
468,13,170,72,1
281,177,833,726,1
149,124,1023,1023,1
32,233,1023,325,1
12,191,1023,1023,1
150,109,311,439,1
246,488,1023,935,1
569,107,1023,775,1
142,505,457,839,1
236,95,437,502,1
166,252,88,154,1
329,63,700,622,1
824,368,1023,362,1
306,334,206,1023,1
181,378,1023,1023,1
530,238,180,1023,1
357,190,1023,1023,1
251,384,779,455,1
232,420,1023,1023,1
178,151,1023,489,1
109,481,313,46,1
134,315,267,47,1
525,371,611,426,1
583,472,363,337,1
481,515,1023,1023,1
706,106,115,0,1
266,76,1023,1023,1
63,306,593,826,1
825,110,1023,221,1
163,243,743,1023,1
229,209,431,407,1
226,115,884,1023,1
348,73,286,538,1
29,215,920,1023,1
533,306,555,53,1
186,85,1005,1023,1
4,40,442,373,1
326,219,200,136,1
581,18,1013,1023,1
488,367,127,1023,1
50,284,556,265,1
384,84,434,709,1
72,14,40,342,1
360,404,248,1023,1
212,87,444,1023,1
615,621,354,403,1
59,253,829,133,1
131,304,351,445,1
179,109,1023,395,1
125,216,1023,937,1
11,105,1023,792,1
328,17,1023,1023,1
116,46,1023,1023,1
20,54,883,1002,1
625,762,867,535,1
535,79,339,361,1
436,299,852,228,1
760,753,1023,441,1
61,85,440,376,1
72,66,99,181,1
85,202,1023,649,1
251,241,350,71,1
494,67,727,129,1
234,357,368,263,1
343,198,365,62,1
395,80,292,265,1
341,65,1023,1023,1
310,58,1023,801,1
333,114,330,197,1
323,379,1023,503,1
180,165,209,400,1
621,378,1023,1023,1
124,371,622,584,1
124,184,1023,1023,1
91,234,76,64,1
453,295,572,1023,1
36,369,170,576,1
101,230,292,584,1
422,165,570,1023,1
152,602,259,816,1
335,664,723,502,2
594,680,423,58,2
541,342,6,1023,2
261,157,1008,914,2
230,568,750,788,2
92,5,1023,448,2
814,564,129,221,2
217,25,147,615,2
130,250,293,278,2
234,51,871,1023,2
169,124,61,437,2
399,76,880,1023,2
312,270,839,650,2
312,172,358,31,2
233,12,1023,1018,2
341,106,54,182,2
196,105,1023,986,2
206,99,58,51,2
124,93,286,21,2
255,120,616,1023,2
206,305,742,987,2
12,223,1023,282,2
151,100,1023,1023,2
14,113,1023,566,2
127,171,1023,915,2
397,177,1023,1023,2
145,171,1023,1023,2
102,18,163,303,2
93,138,1023,940,2
99,125,105,20,2
85,109,1023,802,2
52,154,349,502,2
60,99,840,910,2
228,130,157,99,2
90,19,1023,1023,2
46,311,575,616,2
288,267,1023,1023,2
225,138,1023,1023,2
380,566,766,1023,2
93,128,1023,680,2
205,438,1023,1023,2
81,149,1023,543,2
389,455,1023,702,2
43,114,1023,930,2
97,37,31,186,2
42,131,400,790,2
26,87,493,978,2
62,129,45,134,2
283,175,181,13,2
70,176,135,89,2
238,509,857,913,2
29,9,439,213,2
151,295,670,558,2
110,189,139,57,2
40,76,82,167,2
21,198,149,158,2
155,132,265,35,2
73,156,110,308,2
39,83,565,0,2
25,17,416,126,2
430,198,741,619,2
340,221,803,511,2
26,277,552,357,2
66,405,358,98,2
16,219,517,302,2
39,38,13,401,2
380,457,270,365,2
67,121,878,848,2
542,559,271,412,2
238,11,1023,823,2
245,409,1023,533,2
448,458,953,500,2
256,260,1023,778,2
107,11,975,189,2
134,110,269,572,2
239,307,1023,1023,2
243,55,1023,1023,2
541,281,964,1023,2
46,96,1023,1009,2
126,37,309,168,2
14,21,462,11,2
468,254,183,159,2
87,103,627,93,2
176,250,1023,1023,2
25,28,1023,1023,2
35,376,79,235,2
65,11,1023,894,2
28,34,431,189,2
120,100,1023,1023,2
29,14,1023,22,2
225,162,346,975,2
237,292,300,2,2
199,286,329,532,2
354,644,19,212,2
58,333,1023,1023,2
410,310,58,54,2
62,61,820,604,2
132,197,819,509,2
49,81,685,135,2
1,41,177,200,2
145,112,400,199,2
142,91,236,217,2
16,62,1023,615,2
10,155,34,402,2
405,187,206,291,2
425,185,120,102,2
46,29,371,300,2
194,14,526,391,2
276,18,650,170,2
276,461,544,671,2
79,31,79,113,2
64,85,379,71,2
124,65,449,365,2
60,10,401,194,2
114,31,432,609,2
19,30,271,15,2
31,54,923,633,2
238,75,1023,813,2
12,97,404,493,2
109,365,167,1023,2
149,464,558,240,2
378,94,1023,1023,2
32,14,723,183,2
266,15,368,970,2
21,31,91,85,2
90,197,673,598,2
218,38,519,324,2
163,262,175,203,2
185,68,409,405,2
314,88,388,451,2
46,56,317,105,2
49,265,90,135,2
1,210,1023,1023,2
21,215,1023,776,2
223,185,1023,563,2
42,65,878,538,2
42,130,323,249,2
207,434,434,309,2
156,131,75,70,2
84,54,590,550,2
120,173,697,419,2
100,20,158,333,2
277,189,336,383,2
102,129,400,258,2
37,147,349,73,2
174,23,622,620,2
93,248,676,622,2
118,65,312,249,2
393,197,257,213,2
148,133,460,244,2
557,407,48,86,2
18,201,670,363,2
3,59,47,45,2
162,466,531,186,2
29,356,6,137,2
111,217,48,161,2
207,27,239,809,2
59,36,376,39,2
14,12,337,130,2
178,279,407,696,2
118,15,17,175,2
174,8,45,311,2
143,52,291,869,2
375,177,410,488,2
51,183,412,202,2
118,179,88,12,2
88,120,53,79,2
94,91,808,948,2
335,145,233,509,2
219,17,967,1023,2
261,107,178,53,2
377,77,213,37,2
199,223,27,47,2
478,489,208,177,2
158,263,634,638,2
292,432,662,648,2
329,362,587,434,2
111,26,825,459,2
36,63,203,348,2
55,51,836,668,2
64,44,385,465,2
64,6,350,196,2
173,298,629,410,2
176,153,644,428,2
72,372,661,327,2
122,327,541,37,2
30,15,278,128,2
36,37,43,205,2
39,7,32,51,2
14,9,281,576,2
218,89,228,411,2
20,163,439,668,2
38,67,412,217,2
37,126,344,254,2
302,234,385,635,2
184,80,159,243,2
175,275,456,590,2
158,355,252,218,2
7,6,215,60,2
2,86,215,324,2
215,205,388,735,2
33,181,229,212,2
321,13,566,163,2
54,78,116,198,2
190,244,360,389,2
51,106,27,28,2
164,127,14,337,2
41,30,264,12,2
185,126,1023,878,2
403,108,545,286,2
78,8,1023,1023,2
389,315,27,775,2
232,657,714,326,2
161,137,984,741,2
25,131,810,466,2
9,329,1023,1023,2
42,20,567,262,2
36,212,830,929,2
253,19,66,75,2
120,110,390,542,2
1,17,102,221,2
412,729,76,403,2
119,8,23,133,2
81,191,12,66,2
45,54,175,12,2
30,276,769,266,2
144,139,145,162,2
107,21,565,208,2
29,154,53,133,2
276,241,441,419,2
77,167,56,24,2
140,72,229,204,2
79,267,15,285,2
335,148,960,1023,2
167,414,408,460,2
67,303,557,1023,2
215,503,292,130,2
181,336,12,183,2
8,137,309,234,2
17,47,251,23,2
3,101,63,75,2
47,207,74,344,2
62,42,213,329,2
127,205,230,191,2
40,161,358,392,2
139,197,204,7,2
164,28,223,161,2
186,343,716,614,2
60,33,332,27,2
101,228,729,1005,2
22,31,105,64,2
13,83,704,848,2
40,14,216,365,2
45,89,419,160,2
0,35,553,772,2
88,36,100,280,2
4,42,310,347,2
174,201,93,200,2
45,339,129,119,2
115,236,53,119,2
54,350,386,324,2
135,29,364,79,2
104,29,301,171,2
26,28,74,262,2
158,82,137,15,2
24,154,98,43,2
204,353,101,316,2
191,194,88,58,2
55,119,157,47,2
38,57,34,101,2
45,200,15,71,2
58,88,56,185,2
118,17,47,97,2
237,106,248,25,2
297,235,165,87,2
49,21,238,51,2
241,53,968,656,2
73,168,30,151,2
68,72,971,617,2
108,46,296,552,2
212,93,432,341,2
228,44,771,516,2
30,68,184,101,2
19,111,501,59,2
67,88,478,617,2
24,98,721,899,2
191,290,116,141,2
32,17,339,454,2
185,150,330,120,2
82,45,350,817,2
144,287,265,266,2
48,13,214,221,2
216,95,13,405,2
205,224,436,449,2
20,104,536,495,2
176,176,311,193,2
111,36,1014,996,2
60,155,349,35,2
430,313,503,687,2
250,85,187,18,2
64,184,433,364,2
79,508,223,182,2
95,89,1011,638,2
98,231,141,426,2
4,319,209,454,2
252,10,876,1023,2
6,54,822,168,2
244,197,323,472,2
38,19,212,182,2
38,166,45,5,2
289,71,535,84,2
35,615,200,427,2
288,97,148,107,2
120,425,204,246,2
44,50,288,594,2
209,347,845,287,2
231,41,206,217,2
25,233,879,874,2
90,287,1023,1023,2
162,301,392,88,2
130,149,1023,1023,2
136,7,532,859,2
577,53,520,792,2
259,637,688,1023,2
238,97,1023,1023,2
240,238,577,95,2
119,269,1023,1023,2
137,22,275,52,2
493,493,598,370,2
500,388,124,620,2
229,171,457,224,2
47,175,353,366,2
4,209,847,181,2
79,8,1023,370,2
397,36,419,1023,2
40,31,1023,459,2
377,38,88,86,2
183,215,1023,590,2
218,19,863,170,2
503,357,491,158,2
362,458,617,582,2
98,622,288,1023,2
113,292,171,115,2
98,73,280,333,2
434,139,999,1023,2
95,151,133,39,2
565,137,744,58,2
447,697,771,880,2
375,349,598,600,2
802,202,1023,1023,2
31,401,221,295,2
318,574,1023,1023,2
149,151,589,1023,2
169,626,704,863,2
46,404,1023,962,2
235,472,252,0,2
196,411,355,41,2
135,67,273,889,2
8,126,823,272,2
236,62,707,105,2
275,151,864,1023,2
246,174,1023,1023,2
310,192,1023,1023,2
449,436,1023,1023,2
33,143,1023,1023,2
102,211,1023,583,2
463,142,753,1023,2
5,332,1023,724,2
297,136,1023,74,2
13,374,1023,829,2
371,62,471,419,2
620,165,1023,726,2
309,336,193,42,2
538,165,197,810,2
244,45,1023,1023,2
166,22,317,1023,2
229,833,665,171,2
319,260,294,72,2
967,679,554,535,2
180,628,933,943,2
101,1023,599,746,2
727,405,1023,1023,2
120,114,165,138,2
681,539,1023,1023,2
219,92,848,175,2
261,13,1023,1023,2
456,37,575,162,2
27,75,1023,1023,2
295,118,1023,1023,2
842,403,108,317,2
70,337,1023,689,2
624,442,774,404,2
95,145,269,403,2
540,609,1023,702,2
16,163,294,552,2
81,402,559,643,2
472,254,261,1023,2
268,64,253,81,2
125,134,65,132,2
65,205,597,67,2
807,16,855,394,2
916,134,571,662,2
573,142,1023,1023,2
746,303,583,359,2
311,26,1023,1023,2
124,162,403,819,2
260,95,961,1023,2
50,231,556,115,2
6,75,61,832,2
23,177,690,690,2
385,211,353,155,2
17,217,324,76,2
149,184,82,94,2
374,139,764,662,2
542,518,1023,1023,2
295,406,1023,1023,2
93,82,1023,1023,2
39,389,1023,1023,2
70,6,880,1023,2
51,119,748,538,2
335,384,758,1023,2
376,273,583,467,2
546,356,1023,1023,2
393,219,1023,792,2
572,173,56,267,2
237,221,721,1023,2
288,351,674,651,2
24,6,667,826,2
154,11,1016,616,2
175,185,762,639,2
50,137,1023,1023,2
66,195,120,200,2
6,111,1023,945,2
77,237,84,699,2
154,316,466,1023,2
134,94,462,202,2
130,192,158,8,2
0,77,537,541,2
15,25,246,286,2
7,124,977,857,2
59,146,362,207,2
322,180,115,84,2
115,36,1023,387,2
229,35,1023,693,2
259,282,166,202,2
414,340,412,69,2
214,82,794,347,2
102,220,145,34,2
40,213,42,73,2
221,174,483,667,2
137,6,63,214,2
7,47,702,294,2
49,205,537,241,2
205,32,656,645,2
117,217,1023,907,2
417,198,65,207,2
54,24,514,807,2
80,119,193,282,2
254,20,481,266,2
129,60,713,506,2
52,31,182,14,2
0,165,188,128,2
158,180,63,101,2
66,102,581,508,2
95,39,23,207,2
39,41,295,500,2
103,133,263,197,2
24,183,731,787,2
279,133,148,0,2
30,189,876,558,2
4,70,402,233,2
9,19,7,75,2
33,31,90,115,2
74,15,1023,438,2
102,165,899,22,2
263,136,252,568,2
60,18,429,651,2
6,250,1023,915,2
200,367,388,281,2
127,204,695,829,2
68,649,378,1023,2
53,31,88,11,2
343,332,46,366,2
19,285,346,1023,2
85,61,213,545,2
56,28,799,235,2
305,220,142,328,2
157,170,1023,670,2
113,42,450,64,2
71,54,1023,601,2
105,287,79,469,2
205,128,1007,875,2
14,265,201,482,2
21,23,179,365,2
25,49,288,448,2
4,51,637,996,2
240,218,281,170,2
199,87,227,395,2
65,20,59,184,2
13,28,503,226,2
213,466,103,65,2
29,182,748,271,2
470,520,383,595,2
86,90,459,34,2
10,124,719,947,2
67,104,588,1023,2
35,214,239,0,2
218,47,350,251,2
44,234,496,68,2
122,204,368,543,2
284,393,339,222,2
144,371,561,353,2
244,255,746,640,2
243,451,1023,982,2
269,242,184,159,2
103,39,983,868,2
262,321,737,612,2
41,241,185,81,2
200,14,539,768,2
218,87,36,45,2
236,256,582,715,2
242,491,808,19,2
310,472,37,561,2
107,95,846,1023,2
90,411,1023,1023,2
145,194,648,560,2
286,160,19,569,2
143,31,65,440,2
339,196,621,507,2
93,38,1023,822,2
318,283,69,83,2
23,25,813,643,2
28,244,76,234,2
288,76,805,762,2
27,72,272,37,2
72,267,11,283,2
85,224,465,569,2
311,198,104,324,2
40,205,539,173,2
147,29,411,427,2
197,63,194,768,2
242,13,636,758,2
222,106,699,643,2
121,150,635,118,2
111,162,55,522,2
233,147,703,396,2
156,265,54,127,2
55,177,733,405,2
284,106,104,447,2
356,31,829,1015,2
89,121,68,353,2
246,460,768,1023,2
292,11,455,514,2
75,137,405,339,2
205,174,214,64,2
34,50,343,338,2
363,150,127,62,2
210,175,614,526,2
86,16,236,188,2
346,25,50,236,2
300,367,380,317,2
320,333,201,363,2
186,316,76,161,2
30,103,426,356,2
39,22,153,537,2
16,96,57,141,2
3,125,261,603,2
25,16,326,463,2
117,201,628,867,2
381,531,85,205,2
138,381,149,539,2
8,140,106,332,2
189,148,15,247,2
60,82,343,329,2
91,114,360,309,2
102,14,74,102,2
92,180,269,30,2
56,277,34,9,2
183,203,72,88,2
45,137,305,136,2
154,56,234,349,2
27,207,324,79,2
10,288,41,5,2
83,241,216,0,2
349,66,295,387,2
156,61,636,162,2
0,208,785,405,2
9,58,118,6,2
105,202,288,90,2
91,79,771,335,2
1,39,163,333,2
16,7,478,6,2
199,197,584,616,2
172,240,65,169,2
30,220,281,118,2
408,282,219,377,2
166,39,8,79,2
160,15,414,516,2
53,131,19,181,2
21,99,552,433,2
131,213,467,918,2
65,98,474,355,2
115,168,380,269,2
69,155,318,385,2
137,124,92,227,2
99,53,170,73,2
42,74,21,52,2
87,12,296,52,2
17,123,166,18,2
105,187,634,476,2
14,125,67,201,2
230,405,156,74,2
66,158,86,268,2
46,160,113,562,2
4,40,160,83,2
218,277,340,248,2
165,142,96,143,2
227,269,168,29,2
0,238,7,219,2
257,226,250,98,2
59,25,250,50,2
160,203,71,51,2
259,320,388,128,2
75,11,303,280,2
49,80,100,96,2
151,95,864,589,2
72,66,132,487,2
137,114,391,11,2
71,9,160,448,2
239,242,151,253,2
95,105,520,584,2
378,422,301,255,2
1,108,535,477,2
5,50,260,341,2
86,400,433,323,2
7,141,186,618,2
72,215,445,517,2
14,26,52,39,2
127,223,511,1023,2
143,130,195,346,2
43,15,267,371,2
74,74,209,250,2
7,92,153,326,2
74,92,1023,1023,2
249,12,291,122,2
23,12,783,262,2
2,96,364,960,2
275,387,429,229,2
189,24,1023,1023,2
105,195,639,1023,2
35,70,806,991,2
356,8,127,0,2
138,34,337,504,2
67,25,97,180,2
200,178,228,630,2
66,288,587,32,2
22,301,628,364,2
12,209,1023,732,2
295,169,75,458,2
310,32,491,434,2
690,215,528,479,2
146,24,419,235,2
367,356,1023,1023,2
523,639,188,154,2
121,48,1023,1023,2
103,263,699,734,2
55,250,1023,1023,2
183,338,1023,1023,2
135,370,1023,1023,2
819,508,1023,61,2
398,319,566,1023,2
412,228,671,108,2
237,252,131,63,2
399,459,214,827,2
156,12,236,317,2
42,50,415,1023,2
75,232,216,251,2
226,116,564,854,2
109,11,197,335,2
100,277,1023,898,2
81,16,226,698,2
8,89,1023,1023,2
312,37,644,105,2
222,132,191,706,2
520,208,1023,304,2
346,36,947,364,2
506,214,539,212,2
333,304,899,526,2
276,387,323,247,2
465,55,269,1023,2
99,121,820,52,2
346,299,109,455,2
425,175,785,1023,2
262,218,217,25,2
61,21,523,175,2
558,581,204,98,2
197,266,170,163,2
467,251,346,465,2
479,376,509,1023,2
246,385,278,682,2
410,356,395,37,2
438,206,304,192,2
245,27,74,40,2
589,36,223,766,2
4,211,1023,1023,2
889,230,394,58,2
3,169,1023,1023,2
114,14,330,653,2
149,830,1023,863,2
97,495,529,206,2
533,280,1023,1023,2
135,163,969,1023,2
52,127,1023,547,2
11,238,187,961,2
560,120,103,689,2
66,27,662,837,2
634,64,403,190,2
188,16,370,276,2
262,99,165,82,2
257,479,363,381,2
328,414,444,1023,2
189,38,732,834,2
133,335,587,727,2
242,131,754,86,2
506,231,53,271,2
282,540,556,355,2
96,497,44,838,2
18,268,687,198,2
628,588,104,159,2
191,16,1023,1023,2
205,143,819,1023,2
322,292,1023,886,2
421,286,857,775,2
10,49,555,73,2
267,357,1023,630,2
73,187,433,150,2
180,144,363,276,2
80,253,1023,1023,2
303,340,1023,1023,2
782,516,921,1023,2
185,773,165,978,2
19,139,1023,564,2
170,496,753,883,2
25,115,1023,1023,2
234,101,677,113,2
354,404,841,762,2
275,33,1023,952,2
344,84,496,269,2
546,220,1023,539,2
708,556,581,73,2
299,180,1023,1023,2
763,346,1023,1023,2
275,664,596,523,2
243,78,318,494,2
250,225,807,180,2
112,177,498,962,2
346,800,1023,1023,2
326,53,1023,1023,2
240,384,1023,1023,2
253,143,781,1011,2
174,276,1023,1023,2
400,179,1002,545,2
263,54,1023,1023,2
398,11,1023,690,2
11,105,1023,1023,2
235,63,869,452,2
449,121,1023,1023,2
319,179,919,96,2
398,409,990,1023,2
884,280,490,499,2
440,805,1023,1023,2
145,189,764,432,2
50,158,1023,1023,2
667,439,870,207,2
59,255,1023,829,2
548,27,435,626,2
6,118,1023,1023,2
559,279,701,886,2
165,75,425,379,2
617,729,171,650,2
132,198,60,606,2
91,35,438,417,2
19,125,377,91,2
166,81,488,324,2
305,155,423,747,2
206,161,534,28,2
79,81,261,461,2
30,39,181,524,2
167,57,345,221,2
167,36,62,73,2
66,70,350,102,2
221,63,825,585,2
107,164,582,269,2
105,142,144,0,2
201,181,375,423,2
30,42,382,33,2
247,85,306,501,2
44,87,316,458,2
416,786,446,249,2
411,644,338,206,2
207,275,844,427,2
107,75,290,69,2
4,106,156,300,2
130,43,21,209,2
9,35,196,159,2
56,51,568,698,2
290,148,337,288,2
49,47,316,69,2
156,160,340,611,2
317,161,197,141,2
153,97,559,757,2
18,207,304,201,2
47,152,180,175,2
180,114,529,474,2
116,326,268,467,2
15,99,812,477,2
69,163,825,137,2
138,157,754,1023,2
104,26,1023,1023,2
6,25,340,49,2
145,123,749,1023,2
79,167,45,13,2
129,176,221,325,2
37,5,447,106,2
34,170,888,552,2
243,252,706,576,2
361,601,420,855,2
66,268,685,1023,2
83,199,463,920,2
267,224,895,1023,2
4,263,623,481,2
177,217,7,63,2
325,8,611,492,2
69,21,1023,932,2
65,111,473,48,2
21,48,451,473,2
58,26,629,266,2
250,245,534,965,2
343,87,9,73,2
173,69,578,456,2
236,308,96,374,2
417,10,141,34,2
156,75,382,412,2
28,332,136,19,2
351,451,68,216,2
198,226,692,356,2
285,239,813,705,2
184,33,595,323,2
36,197,905,872,2
476,266,454,586,2
225,19,214,687,2
146,153,253,243,2
117,175,50,118,2
142,77,879,643,2
164,278,301,246,2
215,420,1023,1023,2
30,153,204,102,2
208,675,572,1023,2
291,277,137,48,2
271,600,227,314,2
133,296,83,321,2
245,165,61,166,2
336,34,366,147,2
115,167,123,142,2
177,202,576,471,2
126,175,103,321,2
94,32,62,29,2
19,69,687,306,2
359,86,267,223,2
206,227,919,424,2
275,20,147,371,2
52,191,422,899,2
170,408,623,918,2
335,399,42,92,2
72,450,220,333,2
224,188,331,292,2
188,34,399,220,2
124,146,14,114,2
390,174,530,953,2
133,15,265,79,2
44,24,746,374,2
126,84,236,519,2
155,136,380,510,2
645,260,155,216,2
195,186,388,191,2
145,207,686,387,2
156,234,34,1023,2
310,323,406,1023,2
49,134,33,126,2
342,214,293,226,2
240,58,479,685,2
95,66,248,332,2
187,63,172,320,2
260,19,78,615,2
89,241,495,687,2
15,142,175,251,2
204,133,184,124,2
39,216,565,422,2
164,100,69,217,2
197,226,617,472,2
33,127,66,81,2
93,10,1023,915,2
128,57,159,476,2
82,225,229,224,2
71,140,605,307,2
177,294,238,160,2
51,188,135,34,2
150,137,43,45,2
75,239,18,76,2
11,17,359,0,2
383,115,518,247,2
327,17,204,60,2
65,17,248,213,2
45,123,163,219,2
4,104,227,26,2
63,456,263,65,2
179,105,164,261,2
141,146,202,94,2
28,116,266,461,2
42,104,744,580,2
41,431,323,662,2
54,100,633,712,2
296,292,241,505,2
61,44,654,322,2
114,222,210,204,2
88,26,170,9,2
245,192,54,147,2
111,126,409,170,2
77,213,11,361,2
17,203,289,257,2
27,90,111,89,2
1,110,264,320,2
82,75,310,45,2
81,15,165,159,2
105,76,206,298,2
108,177,66,104,2
46,35,169,122,2
27,9,245,444,2
47,33,294,267,2
52,9,343,376,2
34,112,443,336,2
350,284,524,711,2
103,161,48,14,2
123,67,443,76,2
146,137,177,88,2
2,265,683,266,2
31,227,43,139,2
4,196,315,367,2
102,40,81,71,2
166,255,149,223,2
38,18,106,126,2
11,122,44,20,2
166,391,195,259,2
26,164,76,45,2
7,20,394,326,2
58,79,184,40,2
20,53,558,281,2
55,107,4,277,2
22,144,619,366,2
185,85,282,170,2
150,327,298,315,2
371,221,407,304,2
9,195,766,570,2
211,124,154,78,2
39,349,771,720,2
84,147,444,379,2
5,15,149,65,2
13,12,785,725,2
24,6,12,209,2
113,169,568,193,2
87,247,177,369,2
71,271,277,232,2
69,178,316,152,2
108,169,258,232,2
0,79,119,42,2
5,131,348,194,2
114,117,12,45,2
66,136,343,227,2
2,7,145,152,2
114,218,129,170,2
24,92,208,200,2
6,12,79,78,2
51,100,248,154,2
31,200,3,62,2
265,60,591,278,2
103,88,538,493,2
306,156,448,56,2
162,402,161,226,2
304,443,21,13,2
132,263,493,400,2
291,171,654,529,2
130,259,150,108,2
148,58,633,532,2
79,167,314,62,2
67,45,875,538,2
165,252,238,160,2
142,599,504,817,2
210,71,374,418,2
26,295,797,621,2
63,129,1023,1023,2
282,226,749,261,2
221,12,350,215,2
51,7,157,481,2
85,135,172,353,2
217,110,124,194,2
107,285,915,1023,2
170,96,62,220,2
166,123,212,136,2
46,115,380,206,2
241,235,848,895,2
212,119,564,1023,2
23,198,145,344,2
24,195,996,823,2
285,67,221,51,2
334,469,140,722,2
229,95,145,182,2
56,268,296,865,2
30,85,1,87,2
376,635,219,849,2
223,203,1023,1023,2
380,67,341,1023,2
414,154,998,552,2
44,5,343,1023,2
19,6,328,424,2
624,251,538,162,2
584,211,65,43,2
288,421,580,903,2
359,114,257,135,2
109,384,37,287,2
88,318,115,518,2
182,153,25,35,2
845,28,535,896,2
140,474,3,666,2
437,497,303,94,2
619,63,101,489,2
123,281,719,1023,2
54,178,122,786,2
453,480,137,943,2
477,243,800,635,2
680,489,975,797,2
306,144,528,535,2
542,133,1023,1023,2
220,508,517,440,2
83,268,1023,376,2
122,94,1023,1023,2
223,22,1023,989,2
39,236,744,25,2
122,13,537,684,2
123,515,1023,1023,2
57,343,824,426,2
10,271,1023,888,2
142,735,943,422,2
356,221,612,659,2
382,89,438,321,2
153,369,370,26,2
342,7,756,418,2
84,33,187,259,2
62,314,1023,221,2
433,113,77,49,2
332,53,485,168,2
309,480,648,1023,2
88,351,176,590,2
176,139,684,142,2
155,1023,319,263,2
669,97,967,878,2
822,755,106,130,2
389,94,331,162,2
28,129,369,478,2
127,635,234,1023,2
607,617,116,32,2
200,150,295,795,2
574,131,238,456,2
195,210,472,303,2
143,150,940,427,2
145,234,1023,1023,2
4,76,59,584,2
33,905,1023,1023,2
404,295,537,955,2
390,127,525,25,2
891,366,525,0,2
489,23,696,362,2
446,191,550,148,2
100,395,243,770,2
821,475,842,258,2
31,511,573,846,2
25,334,499,343,2
58,23,1023,769,2
323,90,604,946,2
127,206,1023,1023,2
27,466,647,25,2
25,362,838,475,2
378,443,552,372,2
1,374,423,147,2
571,185,963,1023,2
428,365,94,133,2
60,375,533,519,2
474,115,194,534,2
492,508,42,1023,2
35,232,284,497,2
50,13,981,1023,2
683,152,276,484,2
751,114,576,1023,2
50,18,1023,1023,2
9,75,190,27,2
27,118,989,947,2
161,197,475,559,2
81,479,958,940,2
428,323,925,603,2
466,183,30,381,2
209,146,1023,1023,2
69,98,437,694,2
168,89,1008,569,2
213,139,627,318,2
169,309,1023,1023,2
415,91,1023,1023,2
544,798,1023,379,2
613,150,1023,1023,2
620,50,1023,1023,2
491,854,1023,958,2
72,123,547,861,2
111,68,1023,803,2
188,6,191,53,2
132,450,247,59,2
187,206,908,1023,2
267,325,1019,488,2
352,93,142,662,2
359,142,489,308,2
275,130,601,155,2
702,941,168,1023,2
8,213,1023,389,2
13,269,1023,1023,2
473,641,476,406,2
311,123,279,534,2
319,546,1023,1023,2
393,594,753,105,2
398,414,1023,1023,2
165,77,1023,1023,2
175,31,171,185,2
817,697,1023,1023,2
190,10,601,831,2
362,535,1023,1023,2
143,41,972,1023,2
188,111,1023,895,2
132,64,40,271,2
159,35,523,228,2
84,101,48,6,2
123,230,725,624,2
183,150,1023,563,2
74,278,831,230,2
75,109,1023,646,2
82,17,258,234,2
254,239,692,256,2
126,66,86,87,2
67,41,562,444,2
280,227,82,106,2
270,240,848,897,2
132,41,331,378,2
23,121,1010,894,2
51,110,181,173,2
164,137,501,369,2
58,164,180,1,2
491,478,53,135,2
32,305,12,47,2
134,212,504,225,2
102,7,1023,1023,2
308,181,600,122,2
76,161,1023,1023,2
305,175,662,807,2
48,169,384,129,2
103,11,384,152,2
63,90,620,606,2
230,224,161,86,2
336,265,276,194,2
360,205,226,121,2
236,397,339,317,2
131,21,754,961,2
432,496,130,608,2
90,233,1023,766,2
365,45,513,1023,2
444,127,1023,1023,2
115,180,86,9,2
93,9,563,714,2
297,158,40,90,2
100,5,78,147,2
107,85,23,206,2
206,32,284,602,2
325,478,200,115,2
230,15,638,531,2
15,32,786,97,2
253,151,314,544,2
742,258,909,574,2
347,188,1023,791,2
38,285,510,371,2
167,55,246,80,2
313,164,806,873,2
177,68,754,1023,2
32,35,1023,385,2
369,60,161,388,2
102,33,879,671,2
66,24,693,610,2
277,174,725,615,2
388,185,155,108,2
258,180,83,150,2
313,78,461,821,2
142,18,528,643,2
179,427,405,469,2
138,317,136,59,2
642,218,399,515,2
243,225,376,228,2
126,132,212,247,2
111,207,566,650,2
12,285,443,611,2
460,146,498,286,2
134,289,297,460,2
28,156,249,344,2
48,117,519,300,2
160,218,42,25,2
8,142,983,606,2
91,189,162,107,2
274,117,464,91,2
60,234,363,1023,2
68,41,131,364,2
29,108,381,716,2
9,286,234,594,2
2,55,199,434,2
157,36,313,484,2
457,164,8,95,2
86,61,262,470,2
99,101,374,471,2
44,137,620,607,2
162,273,1,0,2
6,59,151,9,2
27,46,64,755,2
337,19,171,515,2
9,81,115,258,2
26,90,586,8,2
177,123,323,102,2
296,271,147,163,2
71,67,535,747,2
3,24,492,637,2
5,186,409,607,2
144,303,789,381,2
140,263,28,211,2
341,394,469,387,2
137,63,170,612,2
136,287,79,91,2
32,281,57,247,2
133,82,99,294,2
455,161,499,880,2
48,257,457,511,2
224,638,648,853,2
4,437,25,599,2
29,107,507,575,2
44,377,590,310,2
279,227,690,462,2
150,236,922,513,2
512,126,16,237,2
226,358,491,19,2
241,255,361,525,2
46,19,439,27,2
93,20,440,411,2
90,112,120,93,2
232,247,111,0,2
264,192,529,766,2
95,145,349,237,2
17,160,688,782,2
497,124,65,82,2
150,160,454,224,2
122,119,104,30,2
365,695,538,692,2
111,133,171,54,2
293,417,205,124,2
3,16,38,73,2
22,9,597,736,2
116,163,39,34,2
88,47,390,113,2
126,67,91,246,2
19,31,13,32,2
0,21,11,44,2
162,137,130,165,2
114,66,26,122,2
13,66,281,366,2
81,289,77,36,2
14,251,26,0,2
81,174,98,89,2
101,200,572,1013,2
263,144,296,144,2
47,34,588,161,2
169,81,233,313,2
250,95,18,306,2
150,151,56,198,2
182,287,273,265,2
130,142,77,254,2
398,479,150,180,2
0,99,362,749,2
16,151,69,172,2
68,248,61,179,2
15,101,40,334,2
84,31,193,159,2
32,17,21,73,2
66,88,8,309,2
9,15,53,63,2
9,102,37,284,2
81,35,27,221,2
214,221,379,173,2
105,48,12,289,2
99,15,122,251,2
196,322,134,61,2
117,70,335,316,2
92,376,173,21,2
12,20,605,766,2
287,338,526,588,2
60,21,451,341,2
200,157,723,713,2
16,72,137,103,2
32,22,322,77,2
3,107,717,424,2
8,20,215,77,2
309,482,539,557,2
372,238,175,358,2
76,145,561,330,2
27,248,250,140,2
180,277,229,84,2
35,53,464,387,2
86,87,265,82,2
123,147,169,269,2
163,128,109,71,2
10,85,181,296,2
3,147,265,0,2
97,118,15,232,2
19,241,190,62,2
14,119,377,500,2
178,66,97,119,2
54,71,225,254,2
5,51,159,266,2
122,192,69,0,2
7,130,145,206,2
63,122,130,0,2
25,100,259,214,2
80,60,277,417,2
5,32,29,79,2
19,244,157,45,2
202,128,2,49,3
12,146,227,326,3
127,250,59,37,3
19,394,84,12,3
215,197,173,449,3
119,164,340,336,3
247,333,277,35,3
9,139,446,420,3
81,29,547,629,3
92,8,91,240,3
0,369,530,580,3
60,61,247,464,3
22,95,14,334,3
113,71,429,145,3
0,68,277,164,3
17,69,86,310,3
45,249,348,210,3
194,65,63,47,3
143,163,898,568,3
216,13,333,399,3
314,471,396,446,3
348,384,757,510,3
226,5,25,229,3
341,157,388,61,3
251,13,358,379,3
152,35,82,564,3
280,77,14,137,3
74,233,573,360,3
58,189,115,311,3
355,139,172,164,3
134,95,12,0,3
534,165,380,463,3
10,13,355,1023,3
214,206,346,630,3
159,82,105,254,3
304,563,618,764,3
208,84,155,170,3
131,73,211,211,3
285,199,515,823,3
161,190,126,154,3
173,230,856,1023,3
589,387,54,408,3
292,160,328,3,3
158,402,339,192,3
850,367,552,178,3
67,261,64,53,3
544,282,850,926,3
16,169,289,452,3
92,193,518,1023,3
405,519,1023,1023,3
395,52,32,293,3
319,181,1023,1023,3
851,452,880,440,3
607,505,273,211,3
5,231,280,994,3
632,83,148,523,3
537,300,492,410,3
59,279,445,94,3
436,202,259,921,3
20,476,705,984,3
46,241,393,1023,3
50,374,951,902,3
138,19,1023,1023,3
10,45,383,1023,3
96,197,1023,367,3
37,97,399,674,3
0,230,741,282,3
238,143,877,428,3
34,492,27,299,3
5,176,41,337,3
132,256,62,428,3
444,464,423,1023,3
295,258,66,265,3
754,447,614,644,3
236,228,76,158,3
450,314,1023,301,3
353,174,306,449,3
183,270,1023,36,3
68,330,365,1023,3
369,542,1023,1023,3
63,76,321,22,3
128,16,541,1007,3
53,363,125,1023,3
424,300,828,698,3
200,121,39,310,3
268,235,633,136,3
563,61,162,503,3
55,36,517,55,3
1,670,501,353,3
136,146,472,1023,3
86,709,1023,674,3
197,175,12,360,3
205,122,229,191,3
303,662,32,263,3
646,777,540,26,3
74,517,1012,1023,3
594,511,290,423,3
565,387,50,963,3
699,191,582,727,3
300,204,7,351,3
1023,291,533,421,3
642,176,922,721,3
191,234,25,1023,3
586,214,739,30,3
374,11,199,230,3
403,433,998,134,3
768,917,584,773,3
38,433,267,149,3
1023,441,299,124,3
633,495,294,66,3
299,92,299,752,3
306,309,728,718,3
832,991,627,1023,3
262,44,1023,1023,3
180,131,912,1023,3
39,314,731,985,3
246,348,806,1023,3
181,212,1023,1023,3
686,557,1023,1023,3
47,191,552,1023,3
318,62,493,144,3
334,236,959,1023,3
365,360,808,680,3
409,6,1023,990,3
84,229,740,100,3
482,754,515,481,3
113,287,1023,1023,3
356,45,1023,478,3
1023,463,455,82,3
178,362,1023,225,3
573,308,457,162,3
6,149,1023,737,3
437,65,526,1023,3
522,459,844,784,3
232,309,1023,902,3
6,345,310,390,3
495,369,1023,651,3
197,46,742,983,3
835,890,742,644,3
43,34,727,1023,3
990,466,324,96,3
34,235,529,467,3
111,203,783,456,3
341,189,1023,1023,3
801,365,953,819,3
278,103,192,380,3
351,186,1023,1023,3
98,365,1023,144,3
563,816,1023,1023,3
29,217,1023,413,3
72,210,621,506,3
155,46,581,422,3
109,37,920,1023,3
151,124,944,768,3
367,432,643,611,3
364,78,128,69,3
558,158,184,600,3
220,57,15,775,3
835,361,307,131,3
950,779,125,0,3
176,165,272,0,3
36,178,480,386,3
92,204,460,509,3
515,455,732,563,3
221,186,320,171,3
76,72,932,1023,3
189,384,586,545,3
579,467,237,420,3
92,270,246,424,3
20,193,33,157,3
64,119,240,203,3
59,480,1023,1023,3
183,200,768,664,3
175,222,31,610,3
88,141,507,237,3
212,243,835,401,3
530,662,259,68,3
168,202,170,127,3
12,86,325,155,3
46,38,91,1,3
75,75,543,396,3
322,412,405,208,3
318,191,952,740,3
91,173,7,13,3
70,289,111,26,3
45,75,802,1023,3
86,422,124,87,3
64,263,1023,1023,3
73,90,39,110,3
12,234,413,904,3
120,139,612,186,3
202,169,69,135,3
31,122,834,487,3
93,80,516,360,3
607,491,532,763,3
139,70,1010,685,3
90,122,45,109,3
165,103,348,392,3
142,44,336,231,3
16,91,580,261,3
279,374,305,25,3
113,299,592,780,3
92,116,1023,1023,3
82,101,502,283,3
86,72,721,1023,3
141,61,751,1023,3
127,172,383,487,3
147,133,409,187,3
390,509,474,432,3
159,102,391,328,3
84,126,712,579,3
88,151,212,273,3
3,171,413,426,3
380,470,27,721,3
263,126,246,448,3
363,277,894,779,3
31,59,627,1023,3
216,17,312,700,3
115,31,99,44,3
22,27,107,23,3
38,19,535,502,3
399,192,220,4,3
226,161,627,810,3
323,59,256,158,3
286,6,220,169,3
59,154,137,267,3
257,104,78,207,3
24,87,441,829,3
3,67,247,313,3
272,71,609,751,3
66,289,669,105,3
164,31,540,929,3
244,283,820,964,3
259,360,413,356,3
120,258,129,92,3
58,6,302,220,3
394,291,652,515,3
449,212,107,19,3
233,116,1003,172,3
9,73,111,373,3
54,176,507,39,3
407,132,11,42,3
355,250,270,435,3
17,282,503,116,3
173,89,336,982,3
13,78,425,701,3
2,21,153,124,3
30,30,319,382,3
435,206,328,0,3
169,6,67,418,3
250,34,144,218,3
80,228,6,363,3
126,22,43,392,3
87,9,15,491,3
235,121,133,80,3
13,183,471,1023,3
48,39,213,318,3
284,589,385,540,3
141,200,211,353,3
332,429,124,13,3
608,1021,981,185,3
221,189,267,208,3
59,45,621,151,3
134,16,55,566,3
324,194,217,252,3
147,59,346,88,3
179,137,49,21,3
43,81,483,224,3
101,42,146,632,3
301,214,478,1023,3
180,89,479,278,3
1,260,417,1023,3
929,828,20,49,3
158,317,379,1023,3
796,998,1023,886,3
158,149,41,113,3
162,23,576,585,3
345,311,515,50,3
103,186,326,278,3
302,180,416,256,3
172,117,576,445,3
24,57,240,81,3
38,123,93,154,3
252,241,51,193,3
10,8,141,383,3
315,226,3,301,3
2,142,479,380,3
295,38,460,784,3
146,479,499,163,3
30,47,622,459,3
14,43,103,106,3
105,233,683,607,3
499,198,351,348,3
244,237,370,297,3
308,167,683,581,3
291,165,58,28,3
64,151,597,907,3
87,164,354,712,3
3,75,319,224,3
160,66,321,830,3
220,234,12,139,3
31,440,305,447,3
39,353,1,63,3
235,122,49,32,3
201,105,235,336,3
3,37,225,24,3
336,211,114,0,3
31,62,475,367,3
135,47,556,451,3
140,106,224,196,3
252,75,634,601,3
145,394,55,33,3
25,133,642,575,3
48,122,114,301,3
67,156,455,486,3
202,281,56,14,3
8,289,661,289,3
197,359,223,396,3
91,63,39,159,3
29,73,364,453,3
115,74,204,0,3
32,12,6,0,3
24,48,386,305,3
56,12,23,42,3
321,342,138,281,3
93,40,138,216,3
140,185,79,110,3
18,45,149,86,3
178,81,332,352,3
11,374,540,510,3
75,317,134,50,3
283,222,610,20,3
84,33,287,533,3
29,110,148,69,3
106,171,105,258,3
35,194,48,166,3
170,176,136,8,3
113,546,103,156,3
77,114,49,89,3
116,186,171,540,3
57,106,736,131,3
173,71,683,545,3
3,133,520,226,3
195,318,793,789,3
52,35,406,589,3
72,146,765,676,3
23,19,211,33,3
38,288,907,1023,3
29,47,492,214,3
279,441,446,380,3
247,315,443,328,3
52,52,28,244,3
71,238,295,81,3
69,174,99,343,3
128,333,135,196,3
217,293,132,300,3
235,23,358,708,3
239,133,409,178,3
121,165,218,384,3
108,37,140,148,3
225,349,247,204,3
179,61,232,0,3
259,243,17,279,3
75,77,186,57,3
172,56,231,408,3
14,146,146,418,3
259,37,96,177,3
313,285,338,87,3
434,117,258,372,3
154,140,681,20,3
366,331,339,335,3
0,93,216,83,3
186,405,332,247,3
70,91,23,641,3
189,210,521,735,3
50,49,528,1023,3
348,119,212,660,3
323,184,189,863,3
132,329,901,1023,3
38,194,322,518,3
190,578,219,906,3
262,73,232,881,3
140,510,99,428,3
177,56,460,290,3
122,689,174,53,3
476,6,336,1023,3
170,354,183,615,3
786,279,688,1023,3
450,156,374,48,3
15,214,251,488,3
285,101,221,452,3
96,263,304,104,3
294,463,422,660,3
66,353,184,271,3
51,23,395,866,3
325,394,628,636,3
275,294,65,80,3
74,347,626,483,3
346,375,505,248,3
99,855,369,1023,3
104,100,80,77,3
792,635,474,265,3
51,23,660,411,3
160,120,537,279,3
100,133,372,453,3
144,169,407,1023,3
126,114,41,581,3
266,40,436,1023,3
122,391,208,154,3
222,173,18,853,3
76,220,428,0,3
298,308,466,35,3
206,341,613,710,3
123,55,20,126,3
789,1023,771,359,3
218,604,480,59,3
687,221,1023,1023,3
445,401,540,707,3
198,47,107,811,3
44,348,171,554,3
365,229,294,221,3
64,7,74,64,3
89,82,903,1023,3
83,111,152,203,3
97,713,358,827,3
608,177,231,49,3
341,717,751,165,3
148,262,69,64,3
584,615,1023,704,3
289,88,258,78,3
780,723,1023,654,3
132,37,396,399,3
33,478,192,227,3
32,186,568,295,3
98,47,8,721,3
447,372,875,1023,3
166,25,151,154,3
169,219,520,131,3
95,156,331,28,3
295,32,180,491,3
78,73,33,966,3
131,99,535,1023,3
830,407,408,960,3
114,6,491,699,3
409,563,706,1023,3
333,94,162,396,3
281,336,989,1023,3
617,480,172,368,3
363,151,770,1023,3
191,278,639,449,3
520,317,234,190,3
278,323,9,14,3
1023,814,571,14,3
422,363,383,1023,3
174,409,946,284,3
454,561,504,165,3
139,180,871,437,3
789,528,882,379,3
293,173,162,144,3
363,249,174,143,3
376,796,369,708,3
382,53,91,776,3
459,399,293,1023,3
1023,467,379,353,3
473,241,82,67,3
625,17,817,1023,3
288,13,834,555,3
478,105,314,700,3
394,22,186,610,3
239,378,514,465,3
382,98,422,750,3
608,688,29,1023,3
183,30,351,341,3
544,122,120,1023,3
594,318,952,1023,3
792,1023,630,935,3
1023,1023,458,629,3
31,437,529,623,3
45,411,17,363,3
691,1023,590,239,3
156,233,108,307,3
38,184,693,642,3
59,13,790,820,3
498,109,876,485,3
167,293,207,41,3
464,207,89,17,3
18,1023,432,1023,3
505,761,130,56,3
336,1014,101,670,3
690,637,399,23,3
260,695,9,281,3
99,63,1023,1023,3
399,147,1023,1023,3
453,478,415,999,3
423,652,1023,1023,3
244,509,1023,1023,3
407,412,80,309,3
44,26,1023,1023,3
54,363,950,172,3
134,254,1023,966,3
496,554,558,368,3
33,40,127,61,3
19,177,17,568,3
180,301,555,286,3
133,285,1023,1014,3
65,279,189,222,3
183,267,1023,1023,3
436,221,1023,1023,3
941,836,793,914,3
24,238,1023,1023,3
753,285,763,784,3
233,372,461,571,3
59,57,776,619,3
558,503,469,1023,3
104,78,524,397,3
253,195,515,553,3
285,275,496,80,3
585,703,455,226,3
103,66,350,32,3
12,10,35,305,3
220,132,190,347,3
354,394,183,787,3
134,19,255,889,3
178,209,153,368,3
2,66,99,327,3
101,158,281,392,3
30,135,271,324,3
12,21,399,481,3
44,15,767,763,3
0,35,285,113,3
260,261,749,529,3
147,23,418,355,3
40,104,393,174,3
252,288,82,189,3
18,54,629,420,3
102,309,389,135,3
125,273,138,265,3
193,31,561,412,3
40,104,92,311,3
222,398,499,731,3
69,271,65,270,3
197,132,26,45,3
118,155,714,482,3
295,190,551,499,3
101,19,844,644,3
82,68,561,180,3
42,27,840,804,3
266,45,624,255,3
35,258,964,1023,3
5,197,802,787,3
80,21,751,231,3
19,35,324,442,3
4,228,287,505,3
40,65,163,58,3
138,27,1023,947,3
150,364,44,77,3
88,5,1023,1023,3
57,197,222,311,3
321,114,783,677,3
523,776,154,659,3
485,586,679,1023,3
55,337,42,147,3
138,131,81,464,3
18,229,498,40,3
429,549,117,662,3
425,741,631,142,3
50,574,506,16,3
565,253,59,116,3
26,309,114,170,3
20,222,28,75,3
100,176,919,844,3
32,67,525,401,3
33,291,866,489,3
273,165,315,437,3
384,99,90,227,3
595,651,251,299,3
15,420,1023,1023,3
115,229,172,98,3
675,518,1023,914,3
76,217,23,1023,3
19,8,190,455,3
280,447,461,803,3
285,126,267,666,3
56,214,297,519,3
79,47,63,274,3
0,234,679,827,3
235,19,278,650,3
328,29,152,423,3
341,253,506,868,3
27,33,18,38,3
106,37,252,77,3
203,78,389,1023,3
234,513,309,845,3
184,454,415,668,3
282,11,165,1023,3
265,136,636,1023,3
335,537,102,504,3
148,245,231,97,3
32,131,310,70,3
218,173,500,899,3
139,215,1023,1023,3
72,98,123,611,3
114,59,846,609,3
24,15,76,864,3
471,115,115,312,3
36,52,173,455,3
36,41,520,113,3
168,127,359,56,3
131,290,845,557,3
77,137,634,1023,3
99,111,567,901,3
36,385,1023,1023,3
53,88,1013,1023,3
108,75,449,278,3
220,75,229,240,3
14,67,713,711,3
185,210,54,486,3
103,115,382,106,3
9,180,469,738,3
137,76,223,815,3
244,162,59,98,3
50,307,1023,1023,3
144,86,47,71,3
359,816,872,758,3
438,684,235,127,3
348,79,888,460,3
128,221,331,342,3
183,271,151,63,3
246,182,395,656,3
96,21,254,17,3
256,99,114,53,3
273,248,664,1023,3
220,218,482,964,3
189,86,147,695,3
85,17,637,821,3
29,121,4,480,3
80,262,6,0,3
8,87,53,318,3
51,251,43,23,3
210,469,105,151,3
44,17,236,479,3
111,145,32,129,3
74,404,374,213,3
211,28,17,257,3
57,111,536,84,3
97,114,42,16,3
112,32,97,265,3
131,112,435,701,3
175,127,151,101,3
79,61,460,628,3
58,142,201,654,3
198,262,101,210,3
252,54,339,476,3
175,74,246,284,3
123,83,37,24,3
29,70,398,327,3
235,536,54,360,3
133,224,139,100,3
141,308,177,168,3
192,263,153,224,3
16,45,254,22,3
82,147,379,327,3
97,35,554,426,3
230,41,160,251,3
129,373,482,380,3
305,329,211,277,3
105,17,409,225,3
105,58,212,654,3
160,225,291,677,3
374,215,803,968,3
215,220,104,14,3
3,372,212,259,3
265,206,241,133,3
116,225,12,11,3
248,90,9,63,3
40,22,385,238,3
127,25,201,36,3
192,166,452,159,3
229,211,245,143,3
94,43,156,104,3
389,641,197,189,3
67,97,179,377,3
401,407,232,137,3
37,282,128,74,3
218,366,285,251,3
90,56,238,119,3
23,18,12,65,3
106,7,259,104,3
38,6,226,68,3
55,151,206,498,3
19,102,64,29,3
48,93,24,36,3
60,22,311,298,3
43,328,297,297,3
71,141,223,0,3
204,469,374,797,3
147,259,258,429,3
56,76,63,14,3
27,94,119,0,3
88,17,39,132,3
93,279,49,76,3
167,90,105,8,3
315,459,18,0,3
105,23,508,413,3
269,7,145,197,3
6,188,240,318,3
124,166,415,656,3
209,101,194,60,3
199,158,466,439,3
113,295,151,686,3
141,537,116,177,3
11,13,333,629,3
146,16,217,151,3
164,177,426,405,3
81,46,210,105,3
208,210,480,567,3
39,30,90,131,3
65,160,134,170,3
387,134,143,368,3
400,186,369,230,3
57,118,192,271,3
190,297,102,135,3
83,41,371,130,3
405,359,264,603,3
0,263,1023,1023,3
130,19,862,839,3
194,414,618,532,3
169,103,1015,768,3
38,35,294,488,3
23,145,893,802,3
200,233,304,746,3
297,84,942,523,3
163,25,584,928,3
51,221,48,327,3
48,136,110,136,3
91,91,207,349,3
86,339,423,473,3
279,13,27,190,3
84,7,741,932,3
50,136,267,934,3
125,159,728,899,3
246,148,728,1023,3
130,451,570,466,3
242,12,514,620,3
384,713,497,303,3
278,95,1023,1023,3
343,588,403,383,3
143,423,703,867,3
311,247,332,734,3
116,185,114,105,3
444,29,376,594,3
298,227,152,171,3
152,68,165,350,3
89,73,367,1023,3
74,133,55,259,3
409,360,831,78,3
15,200,555,1023,3
260,122,731,312,3
232,176,265,1023,3
135,270,666,1023,3
151,402,902,1023,3
340,87,114,59,3
684,70,155,438,3
562,75,836,1023,3
209,44,1023,1023,3
916,597,368,94,3
1023,817,1023,1023,3
399,271,244,766,3
427,111,848,1023,3
164,69,508,1023,3
1023,1023,127,335,3
702,809,162,355,3
1023,523,134,103,3
386,424,29,206,3
120,205,767,245,3
146,22,402,479,3
53,444,377,453,3
76,124,1023,1023,3
47,31,433,685,3
105,17,792,22,3
37,353,327,419,3
265,325,214,889,3
410,40,64,894,3
584,69,44,252,3
496,921,280,547,3
218,199,453,1023,3
79,209,77,189,3
123,177,784,858,3
233,71,472,1023,3
428,756,566,92,3
7,246,91,289,3
908,424,677,431,3
787,277,5,302,3
154,104,560,1014,3
1023,546,676,427,3
343,9,1023,1023,3
155,22,398,743,3
94,21,202,263,3
172,9,66,863,3
182,85,697,598,3
494,196,1023,596,3
158,311,273,285,3
42,252,256,322,3
189,1023,236,246,3
558,855,510,82,3
159,511,341,150,3
1023,1023,393,236,3
488,768,109,1023,3
289,227,329,252,3
12,176,261,521,3
147,466,677,983,3
105,203,93,1023,3
423,31,243,541,3
367,334,79,349,3
269,396,441,78,3
76,450,179,656,3
715,407,1001,231,3
669,540,287,954,3
47,515,1023,1023,3
519,456,439,137,3
261,460,649,86,3
185,774,241,343,3
39,392,685,1023,3
219,706,591,1023,3
705,674,31,251,3
62,115,92,371,3
103,636,248,18,3
608,309,406,1023,3
477,184,897,658,3
364,381,211,943,3
742,441,427,481,3
41,674,681,820,3
343,526,754,276,3
825,612,1023,701,3
603,280,486,105,3
344,928,776,563,3
478,507,682,660,3
524,286,212,655,3
812,35,666,333,3
757,632,271,113,3
230,345,905,295,3
326,31,23,169,3
180,93,34,896,3
505,44,1023,1023,3
106,162,263,413,3
331,255,1023,276,3
373,695,74,531,3
120,479,475,378,3
594,170,316,897,3
83,74,474,307,3
160,570,947,1023,3
1023,1023,1023,1023,3
327,418,172,381,3
183,509,1023,1023,3
131,32,148,302,3
48,58,1023,1023,3
516,228,309,124,3
377,605,1023,774,3
65,12,1023,1023,3
12,247,1023,1023,3
5,407,911,1023,3
28,379,137,257,3
115,451,625,651,3
556,1023,772,1001,3
55,164,872,1023,3
246,421,130,352,3
48,61,1023,737,3
556,164,283,27,3
131,52,470,461,3
145,175,371,25,3
325,141,1023,1023,3
215,134,264,24,3
105,136,454,500,3
110,308,290,209,3
171,535,94,152,3
14,202,549,601,3
52,537,164,46,3
159,451,1023,1023,3
308,127,79,906,3
883,555,1023,1023,3
66,318,901,790,3
92,11,737,907,3
678,500,1023,1023,3
6,51,1023,696,3
397,240,1023,1023,3
134,319,844,292,3
141,149,1023,878,3
26,181,72,384,3
100,46,540,1023,3
545,307,666,946,3
509,436,761,1023,3
171,178,309,861,3
86,206,466,387,3
323,307,1023,779,3
510,284,525,259,3
136,153,100,31,3
223,344,590,57,3
268,141,372,735,3
886,465,271,476,3
546,533,91,308,3
85,93,752,31,3
413,107,531,50,3
130,89,42,32,3
26,93,606,488,3
90,189,160,127,3
125,232,146,3,3
16,459,910,512,3
64,263,224,1023,3
4,56,1023,1023,3
307,304,83,401,3
191,23,1023,1023,3
498,228,130,460,3
105,130,408,960,3
3,57,352,1023,3
183,264,310,418,3
36,73,800,811,3
643,526,549,246,3
401,633,328,72,3
224,143,22,83,3
384,87,815,495,3
652,707,197,0,3
281,464,1023,1023,3
520,294,688,828,3
373,431,592,399,3
119,201,99,215,3
338,601,477,343,3
184,250,670,1023,3
62,46,1023,690,3
754,517,163,535,3
35,105,660,139,3
209,89,230,273,3
236,270,203,0,3
13,8,266,220,3
432,434,225,266,3
20,21,695,510,3
373,195,64,167,3
25,55,17,87,3
70,22,439,587,3
6,217,1023,1023,3
97,114,826,724,3
149,241,1023,1023,3
24,81,851,483,3
188,113,1023,195,3
34,202,639,789,3
94,211,1023,944,3
419,306,219,53,3
265,215,769,325,3
7,57,98,232,3
387,255,75,131,3
311,112,219,67,3
186,417,187,100,3
245,57,243,266,3
78,489,607,186,3
450,592,820,677,3
313,100,308,503,3
216,939,896,553,3
475,648,516,396,3
91,8,889,953,3
212,159,402,403,3
185,51,534,713,3
15,47,369,143,3
56,230,196,264,3
261,73,428,276,3
412,393,564,462,3
105,65,319,237,3
124,234,780,888,3
387,606,452,409,3
436,73,184,325,3
245,105,350,697,3
92,403,203,419,3
332,368,475,8,3
109,295,47,218,3
604,597,322,241,3
328,347,730,688,3
347,399,635,865,3
158,364,1023,761,3
56,7,33,217,3
115,33,582,114,3
208,402,699,243,3
125,104,507,316,3
267,101,551,627,3
814,174,489,722,3
218,62,195,382,3
498,296,281,960,3
19,26,903,930,3
303,207,563,897,3
14,243,986,821,3
101,125,210,188,3
86,41,77,44,3
35,90,551,542,3
510,120,479,340,3
50,51,941,1023,3
57,419,203,206,3
310,548,290,666,3
23,492,35,310,3
112,659,477,348,3
195,367,323,40,3
117,150,157,49,3
108,15,275,583,3
338,273,89,345,3
258,271,175,372,3
246,92,725,700,3
16,358,69,152,3
314,440,652,824,3
32,15,210,213,3
214,151,783,172,3
158,303,106,200,3
28,130,649,344,3
119,398,155,386,3
64,358,291,435,3
24,242,75,183,3
531,511,754,623,3
171,39,421,397,3
16,253,1015,268,3
10,51,723,736,3
23,243,896,754,3
84,220,520,312,3
129,302,95,694,3
1,71,461,503,3
59,295,466,1023,3
158,197,280,418,3
138,413,316,41,3
191,400,104,223,3
73,852,302,326,3
258,367,186,228,3
11,139,475,589,3
14,140,27,85,3
109,44,330,609,3
55,102,713,277,3
196,164,369,564,3
455,560,675,106,3
63,29,968,11,3
303,636,26,337,3
59,68,576,221,3
201,223,664,420,3
178,75,452,779,4
265,221,348,357,4
415,403,320,335,4
179,308,621,779,4
54,10,67,171,4
149,152,398,324,4
193,88,142,283,4
47,87,139,183,4
106,41,18,36,4
15,14,28,281,4
260,152,55,193,4
168,436,22,421,4
8,130,51,222,4
307,432,200,39,4
25,131,160,219,4
25,31,346,463,4
124,31,215,26,4
289,230,219,694,4
286,508,369,1008,4
90,545,374,197,4
57,117,199,332,4
7,19,465,192,4
103,128,278,285,4
72,44,44,94,4
153,263,231,256,4
151,74,175,188,4
136,82,106,0,4
186,162,569,409,4
73,218,67,237,4
375,311,506,446,4
108,35,89,93,4
55,26,262,173,4
192,420,48,311,4
105,102,331,401,4
109,119,105,330,4
78,151,322,143,4
198,161,9,7,4
45,345,303,182,4
3,131,200,7,4
165,424,54,353,4
40,69,195,326,4
361,441,70,30,4
57,142,256,352,4
42,96,127,271,4
39,43,215,304,4
252,257,485,732,4
31,136,253,100,4
6,138,367,400,4
104,56,71,404,4
206,56,381,541,4
51,94,21,241,4
19,199,117,70,4
166,353,75,92,4
20,135,36,132,4
17,42,359,370,4
242,338,352,451,4
18,18,48,1,4
451,349,500,317,4
138,233,227,120,4
127,68,209,147,4
3,55,131,151,4
119,152,145,197,4
35,99,221,315,4
12,43,157,114,4
30,34,36,173,4
102,269,56,42,4
85,24,207,217,4
21,7,101,96,4
136,131,160,263,4
61,49,232,146,4
228,523,17,104,4
306,236,111,21,4
27,199,215,486,4
11,80,254,32,4
104,184,18,185,4
199,87,8,312,4
30,101,148,312,4
95,133,370,366,4
91,274,367,500,4
101,26,23,28,4
2,102,389,295,4
96,323,381,402,4
39,138,204,236,4
217,369,251,0,4
82,257,245,122,4
133,124,539,319,4
123,374,311,399,4
61,274,625,842,4
178,136,860,772,4
30,23,90,217,4
101,64,407,512,4
121,152,230,176,4
110,171,262,324,4
207,91,88,218,4
112,65,225,321,4
105,109,45,161,4
189,79,60,2,4
14,37,66,91,4
4,69,152,69,4
152,191,385,473,4
179,333,152,85,4
58,115,399,414,4
132,413,295,144,4
217,264,127,106,4
301,527,147,186,4
109,15,421,420,4
259,33,101,0,4
29,56,304,109,4
181,56,458,586,4
12,56,96,1,4
111,48,1023,1023,4
88,42,99,283,4
20,13,1023,1023,4
221,234,1023,1023,4
78,59,605,309,4
70,171,754,683,4
100,107,78,180,4
15,200,123,16,4
84,6,374,335,4
70,13,253,221,4
32,52,135,179,4
76,33,142,144,4
129,162,438,398,4
129,103,714,603,4
52,366,190,174,4
90,54,382,876,4
292,158,36,711,4
229,487,541,437,4
273,283,343,318,4
257,21,1023,1023,4
326,229,644,116,4
43,8,250,291,4
135,15,42,361,4
179,11,482,538,4
74,262,221,100,4
58,12,772,700,4
33,168,1023,1023,4
543,674,217,632,4
152,671,1023,1023,4
290,454,106,353,4
388,551,633,35,4
121,43,178,940,4
99,311,214,589,4
66,20,135,416,4
49,156,564,734,4
251,165,56,138,4
220,469,293,611,4
402,373,481,209,4
229,137,755,809,4
924,571,185,495,4
20,263,632,135,4
80,31,371,485,4
64,43,1023,1023,4
288,409,1023,1023,4
241,306,1023,1023,4
444,190,683,600,4
696,451,1023,806,4
158,56,1004,530,4
158,146,364,44,4
98,161,559,270,4
78,87,954,148,4
15,238,1023,202,4
285,117,1023,360,4
61,121,1023,840,4
606,778,108,94,4
34,91,1023,1023,4
213,903,811,649,4
606,182,695,748,4
226,252,999,673,4
128,253,55,163,4
209,179,165,83,4
406,65,565,604,4
432,68,24,1023,4
203,151,706,252,4
1014,1023,656,1023,4
366,169,709,1023,4
409,275,638,715,4
561,1000,472,669,4
353,80,393,1023,4
239,174,638,324,4
157,367,1023,1023,4
64,47,801,239,4
182,153,1023,1023,4
91,30,660,48,4
541,155,1023,443,4
408,223,215,331,4
138,444,1023,738,4
166,337,873,25,4
1023,866,377,1023,4
62,265,481,153,4
592,584,141,795,4
184,239,1023,385,4
863,585,401,424,4
613,137,995,1023,4
454,925,137,208,4
249,682,1023,1023,4
168,66,962,821,4
1023,507,365,443,4
77,121,506,344,4
308,81,798,1023,4
84,95,1023,1023,4
303,391,587,1023,4
212,1023,1023,1023,4
146,52,342,1023,4
320,118,805,1023,4
344,616,906,1023,4
653,392,1023,1023,4
222,324,30,417,4
88,130,913,1023,4
378,159,544,667,4
227,267,1023,1023,4
138,22,467,388,4
626,406,773,651,4
16,41,398,599,4
622,274,1023,1023,4
320,42,1023,599,4
310,503,262,1023,4
80,268,887,747,4
277,688,628,233,4
233,532,1023,1023,4
336,577,848,428,4
452,365,33,266,4
103,597,500,334,4
424,257,1023,414,4
63,221,282,101,4
264,540,1023,866,4
135,200,152,742,4
60,325,1023,1023,4
559,443,539,938,4
257,43,709,763,4
71,285,333,250,4
112,463,333,730,4
74,31,1023,652,4
502,119,355,121,4
430,204,1023,334,4
500,102,1023,862,4
30,453,1000,284,4
153,359,993,1023,4
167,556,746,816,4
187,421,323,487,4
529,654,163,418,4
318,90,496,661,4
121,488,406,672,4
154,206,7,223,4
381,388,327,280,4
435,249,319,29,4
285,296,696,217,4
820,481,145,412,4
254,23,1023,1023,4
589,606,967,904,4
302,37,898,58,4
584,453,341,988,4
168,74,411,517,4
362,668,907,1023,4
461,541,914,472,4
208,128,1023,1023,4
377,292,1023,1023,4
957,831,932,982,4
604,9,588,792,4
239,109,38,199,4
93,617,738,884,4
470,202,509,487,4
496,129,168,26,4
87,345,77,91,4
41,99,460,601,4
891,155,89,593,4
541,596,340,285,4
690,129,212,1023,4
229,232,14,117,4
204,207,518,522,4
224,494,14,81,4
103,383,852,1023,4
156,113,668,1023,4
191,362,550,704,4
188,146,876,878,4
552,442,422,849,4
240,127,1023,1023,4
199,93,981,476,4
31,101,623,1023,4
109,137,848,523,4
189,107,668,160,4
58,233,1023,1023,4
237,75,361,547,4
738,277,1023,1023,4
325,266,445,395,4
246,34,1023,1023,4
47,654,26,296,4
14,42,3,514,4
219,389,621,596,4
65,47,300,62,4
138,216,885,640,4
314,271,508,638,4
19,47,984,774,4
23,73,541,332,4
144,41,352,562,4
113,100,278,261,4
94,63,1023,736,4
47,482,111,465,4
48,95,1011,546,4
184,93,390,131,4
28,28,866,1023,4
259,343,203,254,4
153,41,632,779,4
167,157,876,1023,4
209,29,589,0,4
312,185,569,258,4
242,33,130,25,4
239,165,95,200,4
91,57,696,719,4
39,108,130,397,4
581,822,363,405,4
536,417,199,11,4
307,133,317,281,4
646,436,76,259,4
144,57,494,378,4
278,95,250,314,4
236,435,576,379,4
67,46,85,184,4
13,30,412,153,4
174,200,566,420,4
289,496,116,35,4
73,109,526,247,4
24,80,135,69,4
30,217,951,754,4
442,412,890,590,4
526,250,727,416,4
439,313,501,507,4
70,287,129,77,4
165,252,220,957,4
314,325,107,0,4
82,123,601,46,4
489,367,752,85,4
515,28,97,120,4
84,90,683,898,4
40,22,402,413,4
149,168,672,1023,4
398,178,1018,740,4
52,137,835,1023,4
166,115,991,836,4
103,196,759,806,4
301,257,442,554,4
31,181,628,21,4
153,123,291,1023,4
256,165,1023,1023,4
96,116,211,852,4
537,224,582,426,4
552,153,276,134,4
395,50,192,136,4
386,90,100,190,4
475,223,223,194,4
72,250,599,765,4
116,81,149,0,4
115,113,64,487,4
0,64,87,407,4
95,228,39,99,4
85,30,115,190,4
134,128,147,385,4
68,152,17,76,4
348,323,330,346,4
524,416,309,27,4
4,104,146,155,4
294,137,17,5,4
313,153,523,369,4
291,54,103,502,4
109,359,17,467,4
644,67,389,2,4
262,255,901,1023,4
25,179,189,346,4
215,150,293,212,4
182,57,8,167,4
205,130,829,831,4
195,528,153,803,4
451,104,242,445,4
1,311,36,570,4
367,771,678,667,4
591,480,85,181,4
170,147,704,549,4
483,380,727,702,4
452,135,319,150,4
7,182,983,645,4
36,294,431,144,4
191,121,11,221,4
438,610,55,381,4
134,133,43,185,4
388,473,329,445,4
97,447,107,356,4
405,215,392,481,4
199,60,437,191,4
136,556,360,15,4
427,134,571,700,4
82,399,159,13,4
406,14,952,1023,4
57,112,248,384,4
66,152,801,817,4
4,186,453,476,4
85,300,257,2,4
333,622,289,379,4
377,188,123,842,4
799,814,626,401,4
852,375,124,30,4
436,147,183,730,4
590,920,397,49,4
110,495,264,7,4
26,71,784,945,4
199,449,396,519,4
44,102,121,42,4
120,19,283,558,4
68,217,32,80,4
389,90,41,188,4
9,205,30,35,4
265,23,61,279,4
231,360,64,112,4
99,137,414,804,4
103,186,737,374,4
358,229,120,259,4
290,289,945,1023,4
140,162,433,182,4
231,399,800,294,4
468,433,122,624,4
622,768,106,13,4
24,355,274,352,4
175,142,317,258,4
102,482,823,794,4
38,41,68,64,4
109,358,213,208,4
103,25,150,70,4
220,439,67,23,4
176,211,647,418,4
334,449,350,475,4
81,9,10,258,4
275,333,214,546,4
116,104,427,661,4
8,190,339,273,4
195,105,74,95,4
276,236,239,95,4
267,82,67,152,4
278,517,335,215,4
3,116,38,217,4
50,123,622,340,4
27,109,115,44,4
197,27,245,0,4
233,188,382,197,4
126,30,55,338,4
456,387,330,170,4
22,114,43,208,4
19,102,278,249,4
445,666,203,167,4
73,249,518,169,4
789,1003,529,322,4
9,108,217,307,4
265,363,306,44,4
90,216,505,597,4
216,265,227,263,4
202,115,235,443,4
2,123,363,350,4
112,78,47,55,4
337,230,272,142,4
320,604,122,427,4
19,278,619,79,4
33,200,85,165,4
1,88,526,128,4
11,167,295,351,4
43,29,60,22,4
297,558,327,424,4
59,86,98,64,4
44,67,93,125,4
16,36,33,140,4
32,19,1,20,4
191,833,3,273,4
111,50,166,172,4
418,942,86,302,4
504,455,45,160,4
339,148,252,442,4
44,143,289,458,4
36,139,23,21,4
28,177,22,49,4
79,369,266,160,4
3,8,52,65,4
315,362,304,300,4
111,227,218,231,4
48,83,22,49,4
24,80,48,11,4
60,13,169,161,4
115,69,305,16,4
16,11,141,0,4
63,79,102,35,4
389,476,228,77,4
156,99,356,391,4
617,1023,229,159,4
53,204,378,234,4
354,541,226,11,4
20,76,119,74,4
163,414,259,85,4
257,328,689,466,4
195,68,170,90,4
190,34,639,588,4
23,17,586,594,4
63,133,295,171,4
382,269,522,388,4
24,95,39,85,4
98,151,570,424,4
160,10,150,186,4
214,259,775,802,4
114,234,75,338,4
115,403,168,354,4
31,299,346,77,4
151,194,85,175,4
139,21,491,627,4
48,159,405,514,4
65,104,149,346,4
193,279,57,211,4
122,170,242,358,4
253,39,201,617,4
368,283,471,435,4
413,122,16,543,4
554,335,29,192,4
294,87,326,10,4
47,271,99,477,4
348,37,368,293,4
72,44,7,97,4
25,187,254,830,4
512,199,90,580,4
509,321,438,183,4
817,537,64,361,4
166,154,285,63,4
463,11,987,1023,4
406,19,36,61,4
416,120,738,1023,4
196,170,395,386,4
462,374,796,590,4
32,572,51,559,4
363,909,915,790,4
246,269,355,1023,4
14,254,560,375,4
164,175,726,1023,4
362,82,268,376,4
50,364,346,465,4
261,22,33,167,4
338,342,97,176,4
184,542,606,10,4
59,333,106,88,4
79,772,528,50,4
138,319,364,244,4
744,319,177,364,4
359,146,435,429,4
630,334,344,292,4
327,244,243,215,4
91,59,496,536,4
28,31,552,734,4
463,43,34,21,4
321,347,66,590,4
512,23,773,128,4
668,162,233,349,4
123,198,1023,503,4
187,268,785,737,4
444,534,1010,219,4
578,1013,911,422,4
651,631,241,778,4
111,29,356,53,4
206,223,61,1023,4
447,592,533,9,4
95,40,213,899,4
323,79,34,57,4
44,179,264,1023,4
43,305,111,574,4
453,7,1023,1023,4
43,493,136,65,4
610,470,1023,1023,4
565,1023,511,908,4
83,249,910,283,4
244,206,441,105,4
62,465,143,275,4
491,380,291,646,4
342,424,242,317,4
21,102,694,1023,4
42,181,377,164,4
505,250,267,16,4
314,303,327,591,4
554,97,256,8,4
212,245,272,256,4
660,420,203,1023,4
55,219,527,995,4
29,705,572,487,4
69,134,439,788,4
716,28,58,794,4
54,325,91,351,4
199,55,238,145,4
144,296,34,181,4
45,246,315,938,4
595,688,327,43,4
44,229,125,513,4
130,693,449,520,4
392,944,101,82,4
85,172,637,72,4
58,406,611,932,4
90,157,490,26,4
353,123,1023,1023,4
189,143,626,37,4
296,283,902,1023,4
802,581,1014,514,4
231,487,886,811,4
137,95,132,359,4
139,311,342,350,4
214,291,152,465,4
239,406,530,576,4
485,325,193,204,4
243,436,377,1023,4
846,1023,249,41,4
260,798,332,288,4
870,1023,767,764,4
352,402,586,321,4
762,1023,378,289,4
153,166,135,190,4
170,133,822,418,4
387,126,84,115,4
938,650,232,690,4
445,942,319,247,4
251,46,481,691,4
228,858,138,662,4
341,458,661,965,4
29,488,540,480,4
84,353,409,373,4
569,269,9,412,4
258,635,802,618,4
784,1023,161,743,4
169,107,1023,173,4
71,58,146,186,4
397,285,1023,509,4
616,359,43,83,4
85,22,1023,461,4
49,394,19,42,4
1023,646,843,1023,4
437,472,75,408,4
400,194,178,215,4
207,40,387,255,4
406,670,368,59,4
346,298,7,40,4
1023,1023,97,764,4
300,40,774,653,4
728,783,782,603,4
28,365,643,94,4
189,394,386,479,4
320,113,378,607,4
332,268,43,973,4
191,209,363,1023,4
52,49,1022,470,4
158,208,712,746,4
869,573,1023,428,4
709,1023,854,1023,4
496,264,916,331,4
913,1023,342,16,4
49,346,484,288,4
422,97,195,862,4
665,364,141,77,4
472,14,856,331,4
112,32,728,265,4
143,31,878,423,4
593,873,242,861,4
406,862,269,502,4
759,56,788,813,4
154,229,188,469,4
142,257,129,356,4
180,216,390,347,4
197,515,294,26,4
611,257,246,205,4
200,1023,1023,1023,4
590,13,1023,1023,4
576,474,1023,428,4
641,623,856,1023,4
0,79,629,277,4
629,412,798,943,4
572,129,22,626,4
165,31,83,363,4
706,214,597,17,4
650,218,714,814,4
426,517,706,137,4
133,157,425,624,4
451,316,356,137,4
249,199,66,1001,4
644,78,359,498,4
297,567,949,527,4
380,13,864,1023,4
439,144,31,103,4
1023,301,349,433,4
779,690,474,120,4
31,291,1023,254,4
27,118,665,667,4
197,224,1023,1023,4
12,110,716,570,4
105,194,636,507,4
612,643,5,307,4
123,62,751,645,4
108,173,223,53,4
401,508,746,813,4
297,313,133,115,4
39,155,1014,622,4
170,166,146,151,4
179,349,823,370,4
28,311,440,268,4
107,395,170,262,4
370,580,154,246,4
96,46,48,106,4
150,258,539,763,4
411,385,18,80,4
171,26,836,1023,4
51,77,1023,947,4
73,169,1023,1016,4
135,47,1023,1023,4
69,203,287,533,4
102,119,387,0,4
373,344,1023,659,4
161,427,39,181,4
105,250,838,413,4
50,321,319,191,4
448,428,112,45,4
437,267,782,211,4
199,766,628,712,4
157,267,103,90,4
302,386,670,924,4
120,42,44,112,4
66,232,811,967,4
221,243,325,348,4
9,96,866,586,4
54,69,413,19,4
207,336,1023,1023,4
109,36,74,89,4
88,285,91,356,4
130,19,541,1023,4
595,39,461,602,4
282,423,78,146,4
373,384,392,360,4
33,70,294,370,4
226,331,512,35,4
78,92,665,596,4
77,58,507,672,4
318,42,87,492,4
67,139,307,64,4
310,294,713,224,4
328,183,351,547,4
234,23,308,337,4
101,27,859,736,4
9,362,416,357,4
138,262,614,1023,4
164,280,488,887,4
311,224,469,362,4
239,16,109,879,4
31,327,1023,1023,4
87,80,128,30,4
76,199,568,225,4
41,29,16,310,4
386,289,307,117,4
71,170,142,470,4
108,16,315,626,4
336,375,452,546,4
253,173,211,358,4
1,39,703,600,4
170,243,180,421,4
310,285,283,522,4
572,96,346,594,4
86,36,29,227,4
431,502,457,457,4
177,356,379,442,4
804,497,242,103,4
70,127,9,24,4
576,359,233,576,4
220,193,949,372,4
252,234,562,848,4
65,52,869,265,4
110,91,1023,1023,4
14,47,180,113,4
10,170,1023,1023,4
569,480,680,845,4
39,185,440,148,4
48,56,543,350,4
278,35,1020,1023,4
250,89,250,349,4
8,167,1002,1023,4
214,17,129,186,4
215,123,231,214,4
267,24,86,175,4
3,72,536,245,4
97,243,280,473,4
86,135,287,38,4
110,157,527,267,4
36,53,35,143,4
28,87,86,180,4
48,268,974,863,4
126,81,503,534,4
465,343,1023,600,4
19,57,285,711,4
31,132,328,83,4
551,157,605,299,4
22,119,8,181,4
300,111,698,537,4
270,597,185,397,4
392,129,384,195,4
131,419,751,503,4
39,87,125,224,4
112,378,585,367,4
350,110,76,721,4
115,315,158,420,4
409,200,509,988,4
1,183,297,627,4
146,35,145,143,4
232,202,397,477,4
199,262,262,101,4
335,422,318,55,4
71,37,182,294,4
477,469,50,231,4
400,193,73,1023,4
159,570,161,558,4
119,26,342,397,4
524,306,95,289,4
21,122,337,185,4
136,241,851,1023,4
320,251,182,102,4
323,18,70,190,4
282,237,528,477,4
593,342,363,93,4
242,213,8,195,4
22,178,82,92,4
176,296,126,841,4
67,484,68,625,4
72,111,552,516,4
200,266,88,44,4
355,30,73,248,4
28,85,169,257,4
48,120,87,241,4
12,255,107,49,4
31,84,165,159,4
50,134,128,11,4
59,342,86,86,4
60,151,63,164,4
296,379,10,97,4
156,130,15,0,4
159,252,162,222,4
50,119,61,105,4
60,38,97,7,4
43,278,54,268,4
172,681,1,828,4
298,333,203,535,4
324,192,20,559,4
22,218,23,43,4
133,296,116,165,4
127,375,243,732,4
257,287,527,472,4
113,263,126,0,4
190,364,577,561,4
0,195,715,664,4
109,106,133,103,4
204,226,197,197,4
84,114,248,375,4
113,434,215,67,4
77,103,103,237,4
86,276,122,343,4
220,341,67,95,4
2,26,363,78,4
63,12,3,206,4
132,200,187,0,4
282,325,178,137,4
0,240,141,80,4
151,43,28,58,4
270,192,95,96,4
291,281,425,408,4
221,37,321,194,4
142,120,224,229,4
13,55,185,335,4
14,69,81,31,4
132,56,96,60,4
196,257,692,281,4
84,426,333,195,4
44,308,329,31,4
27,161,823,676,4
31,82,26,58,4
49,326,374,531,4
94,34,35,161,4
80,70,8,88,4
192,348,179,61,4
92,128,258,202,4
16,46,87,124,4
305,355,161,481,4
39,46,368,308,4
43,11,175,35,4
166,40,408,287,4
16,338,38,98,4
163,35,534,625,4
537,888,425,157,4
217,431,26,102,4
106,116,504,247,4
133,20,345,389,4
187,158,136,296,4
85,276,424,34,4
14,52,317,221,4
160,325,220,322,4
73,270,79,274,4
122,84,243,389,4
242,250,283,0,4
23,113,273,335,4
8,15,211,515,4
262,218,379,275,4
6,57,229,167,4
85,43,554,848,4
67,284,241,61,4
46,53,194,264,4
74,216,593,567,4
89,45,302,108,4
110,141,380,360,4
255,362,87,270,4
313,60,235,444,4
470,589,24,187,4
266,175,153,109,4
78,175,336,29,4
216,257,373,411,4
456,764,430,435,4
71,263,33,170,4
162,309,611,873,4
26,43,825,872,4
34,130,326,318,4
1,167,76,345,4
369,237,7,101,4
422,441,229,670,4
157,228,417,432,4
547,306,1023,1023,4
416,88,49,29,4
127,70,1023,1023,4
214,344,553,466,4
311,78,531,351,4
161,23,231,908,4
0,447,757,173,4
279,133,531,461,4
143,328,219,303,4
139,70,515,1023,4
194,36,26,450,4
191,110,482,832,4
546,35,473,179,4
277,369,984,791,4
734,112,563,1006,4
261,266,1005,661,4
318,467,944,1023,4
147,198,695,52,4
142,503,14,154,4
227,317,884,239,4
417,28,176,265,4
523,161,1023,604,4
109,285,211,122,4
423,469,368,661,4
199,279,619,718,4
67,661,257,705,4
24,322,1023,1023,4
556,341,119,338,4
649,345,927,1023,4
111,493,37,286,4
611,503,907,1023,4
600,105,62,104,4
321,1023,558,1020,4
450,392,523,1023,4
412,155,581,398,4
312,446,271,394,4
517,540,51,277,4
298,329,17,170,4
82,386,579,587,4
44,70,709,327,4
550,136,632,1023,4
24,170,1023,1023,4
250,710,470,92,4
501,966,73,583,4
195,514,1023,1023,4
161,393,79,495,4
459,287,848,1023,4
270,82,392,1023,4
202,345,1023,130,4
123,386,51,916,4
14,143,1023,423,4
32,139,171,984,4
402,169,1023,456,4
71,18,359,289,4
443,24,417,69,4
473,898,1023,1023,4
83,360,517,314,4
296,1023,1023,1023,4
1023,1023,212,251,4
408,312,481,1023,4
376,548,1008,697,4
468,512,407,568,4
233,756,318,136,4
341,358,319,296,4
774,302,9,109,4
352,432,57,416,4
953,942,453,69,4
847,330,199,430,4
67,83,376,803,4
412,896,443,1023,4
1023,774,59,108,4
72,794,246,69,4
93,152,434,1023,4
320,161,120,203,4
591,402,1023,621,4
674,567,510,1023,4
162,77,473,971,4
114,382,1023,1023,4
211,16,134,227,4
104,175,1023,798,4
113,59,1023,110,4
467,535,373,1023,4
168,461,330,800,4
39,56,239,720,4
1023,258,36,274,4
451,619,1023,903,4
563,148,1023,1023,4
0,244,407,280,4
745,597,154,748,4
215,193,870,45,4
88,24,743,98,4
738,1023,1023,1023,4
675,285,1023,602,4
775,1023,1023,368,4
247,20,565,152,4
375,197,830,10,4
222,231,291,190,4
18,504,146,213,4
417,19,221,52,4
353,475,243,34,4
986,631,728,236,4
757,221,321,768,4
679,164,258,78,4
694,706,638,521,4
288,50,255,115,4
614,293,233,518,4
640,459,1023,880,4
678,296,742,86,4
70,132,1023,1023,4
352,110,724,985,4
210,697,1023,15,4
303,644,356,41,4
873,199,154,674,4
315,295,105,395,4
777,25,774,233,4
79,248,684,252,4
106,340,30,873,4
423,19,498,325,4
469,198,465,109,4
189,806,433,302,4
439,807,310,143,4
627,872,760,723,4
92,169,531,609,4
977,1003,1023,1023,4
429,577,1023,916,4
34,160,1023,1023,4
425,851,883,915,4
104,274,1023,1023,4
441,60,534,302,4
153,101,1023,982,4
47,66,885,965,4
339,623,485,158,4
43,96,1023,1023,4
1023,755,261,567,4
512,181,794,22,4
94,55,993,1023,4
269,199,816,476,4
116,409,202,170,4
300,407,485,788,4
13,339,39,132,4
208,1023,986,726,4
42,151,1023,1023,4
118,203,1023,1023,4
459,202,959,1023,4
346,198,608,760,4
114,119,616,1023,4
132,30,81,700,4
119,187,973,1023,4
218,845,217,501,4
881,613,1023,902,4
165,46,493,212,4
310,1023,22,415,4
104,659,325,220,4
48,599,439,685,4
7,267,326,44,4
107,238,141,19,4
79,446,428,1023,4
110,342,552,408,4
355,914,829,431,4
15,263,1023,956,4
90,94,25,678,4
45,370,727,181,4
595,125,115,322,4
160,356,1023,1023,4
592,331,43,113,4
243,916,547,1023,4
651,791,9,1023,4
39,30,435,522,4
644,221,207,825,4
808,251,266,200,4
736,291,236,70,4
464,29,1023,914,4
278,89,796,262,4
194,190,766,111,4
243,474,254,782,4
450,62,733,980,4
72,397,637,13,4
461,151,14,707,4
307,101,421,155,4
501,650,71,90,4
54,274,1023,1023,4
544,383,347,341,4
151,250,743,990,4
190,58,1023,660,4
120,562,1023,1023,4
195,163,104,174,4
69,271,450,1023,4
210,21,362,206,4
711,329,398,221,4
353,37,29,233,4
75,276,60,323,4
677,371,857,666,4
124,154,576,238,4
187,256,147,300,4
128,166,165,340,4
84,25,115,438,4
185,330,94,103,4
151,235,853,471,4
57,77,429,415,4
33,8,591,770,4
193,134,169,465,4
561,78,186,6,4
411,417,601,372,4
74,11,547,0,4
21,135,1023,1023,4
134,119,95,325,4
95,414,445,278,4
207,10,556,541,4
268,502,187,353,4
5,13,50,68,4
115,257,109,550,4
276,217,624,648,4
242,249,237,202,4
10,106,24,275,4
31,28,14,114,4
37,20,300,67,4
57,157,190,405,4
142,191,509,1023,4
504,423,20,1023,4
11,321,386,1023,4
30,100,9,175,4
91,513,581,913,4
596,65,262,311,4
274,167,311,98,4
39,580,42,252,4
92,427,687,195,4
71,59,647,164,4
22,81,429,214,4
175,158,47,229,4
181,62,523,113,4
123,216,1023,1023,4
697,313,739,284,4
363,422,573,748,4
32,274,863,1023,4
347,375,1018,1023,4
44,225,305,561,4
181,13,889,999,4
14,381,91,723,4
255,758,1021,1023,4
6,195,324,449,4
22,278,418,255,4
55,19,413,774,4
163,100,855,615,4
583,280,214,114,4
57,99,848,960,4
259,33,192,34,4
0,212,180,829,4
151,119,520,588,4
7,397,102,566,4
188,33,949,1023,4
207,41,717,1023,4
11,230,292,170,4
52,207,142,156,4
349,201,40,157,4
25,92,135,75,4
416,667,107,62,4
441,332,17,151,4
865,528,210,91,4
79,14,597,729,4
349,83,80,322,4
11,120,373,52,4
25,21,373,325,4
95,164,410,18,4
114,122,776,574,4
301,218,351,454,4
6,45,505,863,4
327,231,663,275,4
12,302,156,274,4
114,31,443,816,4
185,83,692,816,4
368,340,199,434,4
281,43,714,1023,4
104,150,9,119,4
214,275,312,605,4
210,438,153,233,4
223,155,56,282,4
126,60,499,258,4
95,155,423,165,4
103,100,717,412,4
2,40,751,361,4
295,108,607,247,4
122,388,515,669,4
108,272,870,627,4
73,71,529,408,4
109,178,682,734,4
11,55,3,521,4
60,96,432,49,4
251,290,345,1023,4
198,283,1023,1023,4
13,59,611,920,4
473,21,1023,695,4
54,232,1023,1023,4
73,128,851,81,4
175,155,618,711,4
335,53,686,301,4
107,129,661,590,4
230,273,25,61,4
39,93,1023,1023,4
46,464,40,467,4
187,385,626,683,4
316,428,17,284,4
14,203,389,428,4
19,31,19,0,4
112,204,743,164,4
276,162,10,391,4
67,155,1023,272,4
261,31,590,1023,4
211,266,235,238,4
110,236,298,538,4
208,194,281,444,4
134,45,131,208,4
89,177,92,148,4
63,19,103,83,4
15,33,68,173,4
6,127,10,741,4
5,227,50,293,4
6,121,125,150,4
114,128,255,198,4
62,153,16,80,4
7,33,823,733,4
224,426,53,466,4
91,34,372,208,4
461,354,480,949,4
84,50,70,289,4
181,79,383,184,4
196,335,244,247,4
137,219,164,464,4
23,143,414,99,4
167,394,307,450,4
63,322,165,384,4
73,351,507,606,4
242,450,82,577,4
50,496,972,1023,4
23,606,289,357,4
151,174,539,311,4
47,15,755,731,4
125,287,331,609,4
145,159,219,90,4
27,259,251,418,4
18,140,254,483,4
25,12,457,355,4
11,61,261,275,4
63,15,230,219,4
45,387,540,377,4
98,43,9,149,4
27,122,122,373,4
27,411,240,76,4
10,216,417,505,4
26,412,2,5,4
169,246,56,611,4
145,231,243,298,4
48,242,244,391,4
19,49,50,324,4
85,79,244,369,4
129,42,3,608,4
28,165,183,267,4
223,267,46,515,4
91,295,19,51,4
17,55,81,40,4
29,234,58,124,4
107,331,463,579,4
40,97,310,372,4
95,211,313,649,4
289,347,365,347,4
60,372,88,94,4
4,177,332,254,4
179,106,100,318,4
2,23,175,5,4
43,132,131,38,4
35,267,279,222,4
15,9,113,192,4
12,147,135,85,4
56,130,51,31,4
303,267,68,73,4
61,81,47,0,4
114,94,186,0,4
156,37,264,324,4
3,165,61,47,4
164,408,225,106,4
189,203,4,73,4
301,146,8,359,4
20,92,136,118,4
48,174,9,149,4
42,146,2,0,4
9,184,126,34,4
158,67,33,116,4
98,98,386,286,4
34,73,16,82,4
2,236,347,73,4
40,249,354,311,4
3,83,79,18,4
53,32,87,158,4
57,348,98,136,4
40,192,228,215,4
61,252,52,0,4
110,145,101,39,4
150,368,176,20,4
79,124,230,221,4
45,204,31,126,4
194,29,198,291,4
27,72,174,139,4
90,20,48,57,4
32,13,42,41,4
31,6,10,2,4
99,32,56,75,4
88,186,65,38,4
42,46,9,73,4
29,244,91,114,4
1,47,73,140,4
40,187,23,0,4
49,69,103,21,4
69,92,70,24,4
35,64,4,49,4
44,83,55,116,4
83,111,48,161,4
149,236,72,285,4
62,137,76,343,4
135,522,6,38,4
23,107,58,0,4
91,25,2,27,4
76,77,27,120,4
246,142,36,0,4
57,67,21,152,4
26,119,4,33,4
95,20,49,5,4
3,77,9,21,4
2,109,6,0,4
66,19,21,19,4
28,59,47,84,4
153,126,25,3,4
45,19,14,51,4
40,123,62,0,4
39,50,62,9,4
66,8,56,15,4
102,48,37,0,4
124,10,4,24,4
56,13,12,57,4
74,183,44,116,4
32,50,15,4,4
2,39,37,28,4
285,641,12,0,4
4,33,25,3,4
131,223,25,24,4
13,53,1,64,4
71,49,36,12,4
16,14,21,0,4
44,71,41,0,4
4,221,50,0,4
14,11,24,43,4
117,320,21,0,4
212,223,31,12,4
31,247,24,0,4
66,26,41,5,4
124,153,9,77,4
0,36,44,7,4
82,114,18,11,4
65,152,9,22,4
136,184,34,27,4
63,56,1,30,4
147,161,27,12,4
0,113,26,35,4
1,8,20,18,4
150,339,1,21,4
118,33,46,0,4
267,534,34,30,4
15,158,31,0,4
24,36,42,0,4
82,173,11,0,4
78,91,46,26,4
277,285,79,13,4
42,240,32,39,4
24,86,26,38,4
23,8,42,29,4
54,73,24,41,4
3,5,32,41,4
61,86,17,0,4
77,9,31,43,4
26,33,49,27,4
30,70,5,0,4
50,21,7,5,4
16,103,104,35,4
86,7,52,39,4
10,7,43,3,5
65,112,6,14,5
85,9,39,25,5
57,235,3,7,5
280,585,3,36,5
52,20,48,19,5
280,618,1,57,5
80,104,54,0,5
79,145,20,30,5
44,116,30,5,5
6,33,30,0,5
37,20,5,7,5
2,40,28,0,5
272,280,11,0,5
156,153,5,0,5
2,13,39,23,5
0,21,3,32,5
2,23,23,64,5
3,96,27,47,5
115,155,31,0,5
25,140,18,0,5
374,609,10,61,5
65,90,4,47,5
62,141,12,100,5
21,83,16,0,5
23,81,34,10,5
5,44,20,5,5
26,73,22,22,5
59,102,24,36,5
40,38,13,17,5
0,46,24,0,5
3,145,23,11,5
63,138,54,8,5
82,206,34,13,5
35,7,1,101,5
0,9,23,84,5
27,123,15,0,5
42,91,23,84,5
6,58,16,75,5
126,7,25,43,5
95,71,34,0,5
14,44,11,5,5
1,44,32,8,5
122,321,7,19,5
50,146,94,90,5
90,242,36,23,5
93,94,7,5,5
23,11,1,23,5
174,230,26,7,5
96,97,2,183,5
71,78,27,0,5
28,62,17,5,5
37,17,36,12,5
67,70,7,10,5
15,10,18,33,5
140,275,9,5,5
161,252,45,2,5
251,367,33,29,5
46,46,6,0,5
55,143,42,24,5
16,90,72,24,5
67,202,15,172,5
74,196,82,84,5
101,170,40,47,5
71,20,25,41,5
13,89,44,38,5
64,98,19,0,5
66,210,13,58,5
35,103,5,68,5
15,173,55,42,5
86,26,31,26,5
78,99,4,6,5
244,407,37,12,5
147,133,12,116,5
21,100,2,29,5
38,45,225,264,5
48,213,12,39,5
124,286,7,12,5
0,71,13,4,5
156,277,23,15,5
20,15,11,45,5
81,54,13,17,5
42,95,3,34,5
34,45,13,76,5
22,100,15,45,5
138,112,29,58,5
49,82,22,17,5
21,14,8,59,5
40,27,21,31,5
90,75,19,1,5
11,14,40,4,5
2,38,23,16,5
14,47,23,21,5
71,83,50,15,5
112,157,21,13,5
87,101,1,0,5
19,9,63,75,5
1,29,55,20,5
167,152,2,66,5
115,111,34,30,5
10,121,7,4,5
75,33,18,0,5
0,12,48,50,5
42,71,5,0,5
5,166,23,0,5
18,150,71,61,5
98,21,122,92,5
107,65,12,23,5
245,270,32,0,5
13,71,31,164,5
111,117,56,16,5
171,303,3,17,5
49,101,33,5,5
108,177,22,0,5
5,32,52,9,5
51,106,28,9,5
66,93,37,53,5
66,71,24,18,5
83,23,9,0,5
139,139,14,28,5
72,156,16,78,5
126,52,1,41,5
57,47,54,4,5
22,6,76,23,5
98,33,27,30,5
30,47,105,48,5
131,154,51,4,5
97,88,2,129,5
81,127,2,43,5
74,136,48,17,5
44,187,45,0,5
158,219,11,140,5
5,43,25,94,5
134,24,8,12,5
41,26,3,27,5
9,8,52,27,5
125,205,2,85,5
266,375,11,82,5
48,202,16,18,5
76,42,60,78,5
14,123,243,7,5
66,135,12,61,5
202,303,67,80,5
87,86,72,80,5
97,172,85,8,5
52,95,58,0,5
40,61,4,62,5
48,30,82,47,5
78,63,94,0,5
122,176,42,33,5
119,94,5,37,5
108,266,38,102,5
55,101,110,25,5
98,84,2,17,5
192,255,38,58,5
3,8,14,0,5
47,73,114,29,5
84,131,108,0,5
107,14,4,136,5
26,87,18,332,5
257,256,10,82,5
366,553,3,12,5
108,19,94,0,5
57,119,2,53,5
