Ch1,Ch2,Ch3,Ch4,label
56,6,0,2,1
103,6,90,2,1
42,6,65,2,1
12,6,124,2,1
0,6,85,2,1
30,6,240,2,1
7,6,138,2,1
64,6,108,2,1
123,6,45,2,1
40,6,94,2,1
10,6,8,2,1
75,6,17,2,1
77,6,73,2,1
74,6,87,2,1
22,6,118,2,1
140,6,70,2,1
34,6,45,2,1
66,6,117,2,1
126,6,35,2,1
113,6,1,2,1
61,6,25,2,1
27,6,0,2,1
18,6,14,2,1
4,6,59,2,1
36,6,99,2,1
9,6,222,2,1
44,6,33,2,1
110,6,28,2,1
70,6,42,2,1
105,6,0,2,1
84,6,129,2,1
78,6,72,2,1
150,6,135,2,1
191,6,17,2,1
14,6,36,2,1
148,6,238,1,1
16,6,0,2,1
131,6,42,2,1
4,6,25,2,1
2,6,105,2,1
49,6,85,2,1
43,6,67,2,1
50,6,143,2,1
230,6,28,2,1
176,6,18,2,1
113,6,4,2,1
17,6,6,2,1
26,6,130,2,1
127,6,155,2,1
69,6,93,2,1
129,6,90,2,1
84,6,101,2,1
54,6,22,2,1
123,6,48,2,1
137,6,166,2,1
278,6,161,2,1
122,6,29,2,1
85,6,63,2,1
203,6,43,2,1
16,6,117,2,1
283,6,149,2,1
10,6,156,2,1
129,6,0,2,1
5,6,15,2,1
129,6,153,2,1
74,6,141,2,1
104,6,10,2,1
363,6,146,2,1
281,6,100,2,1
134,6,126,2,1
700,7,184,2,1
60,6,245,2,1
207,6,304,2,1
193,6,24,2,1
40,6,3,2,1
238,6,128,2,1
139,6,78,2,1
87,7,479,2,1
271,6,356,2,1
128,6,566,1,1
656,6,439,2,1
26,6,184,2,1
334,6,0,2,1
424,6,113,2,1
47,6,189,2,1
319,7,429,2,1
63,7,878,2,1
482,5,47,2,1
317,7,796,2,1
576,5,222,2,1
62,6,425,1,1
305,6,463,2,1
416,6,332,2,1
127,6,240,2,1
282,6,605,2,1
201,6,105,2,1
231,6,184,2,1
27,6,74,2,1
21,6,316,2,1
219,6,205,2,1
426,6,234,2,1
136,6,216,2,1
369,6,357,2,1
498,6,331,2,1
457,6,493,2,1
447,6,0,2,1
384,6,33,2,1
131,6,49,2,1
343,6,0,2,1
31,6,46,2,1
235,6,270,2,1
13,7,612,2,1
37,6,142,2,1
309,6,330,2,1
448,7,449,2,1
453,6,521,2,1
265,6,78,2,1
178,6,389,2,1
11,6,556,2,1
431,6,22,2,1
93,6,135,2,1
227,6,143,2,1
248,6,432,2,1
2,6,479,2,1
131,6,106,2,1
27,6,89,2,1
132,7,447,2,1
50,6,218,2,1
37,7,696,2,1
297,7,622,1,1
416,5,124,2,1
236,6,49,2,1
235,7,585,1,1
165,6,5,2,1
324,7,357,2,1
86,6,23,2,1
348,7,541,1,1
617,6,0,2,1
45,6,357,2,1
20,6,136,2,1
138,6,139,2,1
415,6,371,2,1
272,6,211,2,1
119,7,723,2,1
251,6,319,1,1
141,816,1023,0,1
144,816,474,2,1
327,308,692,2,1
50,184,479,2,1
451,30,776,1,1
51,5,160,2,1
96,5,143,2,1
306,6,80,2,1
6,6,343,2,1
182,7,924,1,1
280,7,807,2,1
143,6,376,2,1
463,6,107,2,1
365,6,15,2,1
547,6,30,2,1
218,6,127,2,1
13,6,218,2,1
340,6,142,2,1
197,6,52,2,1
244,6,141,2,1
157,7,435,2,1
222,6,47,2,1
240,6,348,2,1
12,6,60,2,1
273,7,204,2,1
662,7,472,2,1
1017,7,296,2,1
33,6,343,2,1
121,6,46,2,1
275,7,860,1,1
63,6,720,2,1
21,17,234,2,1
59,5,389,2,1
183,5,209,2,1
184,7,729,2,1
129,1023,1023,0,1
10,1023,259,2,1
252,321,166,2,1
253,59,58,2,1
63,7,381,2,1
224,5,25,2,1
222,1023,23,0,1
71,472,22,2,1
760,97,3,2,1
143,14,232,2,1
102,5,636,2,1
211,1023,1023,0,1
1023,1023,804,2,1
474,442,291,2,1
75,95,82,2,1
166,14,392,2,1
450,5,702,2,1
250,5,630,2,1
141,5,12,2,1
232,6,143,2,1
74,6,340,1,1
86,7,888,1,1
683,6,653,1,1
609,5,402,2,1
29,5,126,2,1
357,6,133,2,1
305,6,198,2,1
152,17,1023,0,1
753,818,386,2,1
368,45,1023,0,1
47,130,93,2,1
253,21,549,1,1
171,5,515,2,1
66,6,245,2,1
450,6,0,2,1
150,6,170,2,1
204,6,367,1,1
334,6,223,2,1
206,6,245,2,1
276,7,616,2,1
56,5,0,2,1
140,6,92,2,1
370,7,669,2,1
10,6,184,2,1
446,7,637,2,1
536,6,86,2,1
26,6,29,2,1
28,7,786,2,1
214,5,87,2,1
260,6,57,2,1
177,6,449,2,1
118,6,172,2,1
437,6,80,2,1
237,6,214,2,1
628,7,815,1,1
556,7,1023,1,1
829,647,323,2,1
37,292,620,2,1
11,54,376,2,1
336,7,430,1,1
900,5,207,2,1
321,6,508,2,1
172,27,170,2,1
47,40,98,2,1
586,6,0,2,1
516,5,21,2,1
267,6,106,2,1
172,6,67,2,1
211,6,62,2,1
253,6,61,2,1
296,6,239,2,1
69,6,220,2,1
163,7,668,2,1
217,7,946,2,1
562,7,97,2,1
550,4,280,2,1
221,5,0,2,1
253,6,24,2,1
76,6,0,2,1
8,6,125,2,1
133,6,229,2,1
43,6,131,2,1
45,6,0,2,1
111,6,9,2,1
210,6,138,2,1
21,6,43,2,1
132,6,169,2,1
42,6,229,2,1
98,6,78,2,1
60,6,109,2,1
88,6,333,2,1
120,6,64,2,1
174,6,129,2,1
104,6,77,2,1
10,6,168,2,1
4,6,24,2,1
19,6,0,2,1
194,6,85,2,1
21,6,85,2,1
164,6,58,2,1
70,7,459,2,1
7,6,343,1,1
22,6,289,2,1
31,7,340,2,1
218,6,124,2,1
39,6,0,2,1
19,7,335,2,1
17,6,121,2,1
184,6,96,2,1
216,6,139,2,1
62,6,49,2,1
109,6,183,2,1
97,6,163,2,1
54,6,177,2,1
60,6,79,2,1
6,6,113,2,1
172,6,13,2,1
16,6,170,2,1
14,6,235,2,1
94,6,13,2,1
61,6,0,2,1
89,6,273,2,1
458,7,309,2,1
39,6,96,2,1
260,6,27,2,1
45,6,4,2,1
97,6,27,2,1
10,6,322,2,1
74,6,250,2,1
118,7,362,2,1
316,6,205,2,1
376,6,123,2,1
191,6,172,2,1
32,6,110,2,1
73,6,33,2,1
283,6,83,2,1
92,6,21,2,1
138,7,103,2,1
52,6,219,2,1
0,6,26,2,1
14,7,412,1,1
309,6,2,2,1
84,6,196,2,1
464,6,82,2,1
218,7,321,1,1
14,6,213,2,1
36,7,373,2,1
123,7,424,2,1
7,6,2,2,1
78,6,15,2,1
34,6,96,2,1
148,6,117,2,1
282,6,0,2,1
138,6,165,2,1
67,6,0,2,1
307,7,207,2,1
7,7,467,2,1
1,6,252,2,1
120,6,91,2,1
222,6,124,2,1
10,6,20,2,1
294,6,0,2,1
95,6,73,2,1
8,6,134,2,1
152,6,0,2,1
5,6,7,2,1
79,6,94,2,1
50,6,23,2,1
242,6,211,2,1
21,6,1,2,1
148,6,1,2,1
89,6,183,2,1
101,6,100,2,1
35,7,287,2,1
142,6,28,2,1
23,6,67,2,1
60,6,115,2,1
47,6,44,2,1
1,6,41,2,1
234,6,11,2,1
89,6,42,2,1
81,6,12,2,1
45,6,132,2,1
233,6,94,2,1
4,6,42,2,1
60,6,0,2,1
108,6,205,2,1
78,6,74,2,1
115,6,135,2,1
107,6,4,2,1
83,6,116,2,1
154,6,82,2,1
41,6,9,2,1
1,6,182,2,1
27,6,70,2,1
29,6,196,2,1
24,6,327,2,1
175,6,138,2,1
144,6,46,2,1
169,6,194,2,1
333,6,186,2,1
168,6,62,2,1
54,6,111,2,1
181,6,107,2,1
210,6,89,2,1
179,6,69,2,1
137,6,126,2,1
33,6,11,2,1
2,6,0,2,1
77,6,165,2,1
105,6,180,2,1
21,6,117,2,1
65,6,18,2,1
106,6,225,2,1
144,6,185,2,1
20,6,53,2,1
130,6,37,2,1
49,6,160,2,1
87,6,170,2,1
30,6,133,2,1
124,6,103,2,1
129,6,259,2,1
38,6,44,2,1
120,6,165,2,1
19,6,61,2,1
33,6,119,2,1
219,6,20,2,1
120,6,52,2,1
10,6,85,2,1
168,6,216,2,1
98,6,110,2,1
72,6,0,2,1
52,6,78,2,1
221,6,23,2,1
156,6,0,2,1
71,6,182,2,1
417,6,119,2,1
112,6,9,2,1
37,6,0,2,1
40,6,0,2,1
25,6,26,2,1
4,6,28,2,1
37,6,48,2,1
79,6,29,2,1
36,6,64,2,1
210,6,62,2,1
12,6,248,2,1
90,6,287,2,1
23,6,50,2,1
117,6,56,2,1
152,6,117,2,1
44,6,127,2,1
149,6,79,2,1
210,6,74,2,1
28,6,243,2,1
44,6,235,2,1
208,6,113,2,1
145,6,87,2,1
92,6,20,2,1
141,6,69,2,1
38,6,78,2,1
14,6,43,2,1
44,7,505,1,1
76,6,280,2,1
93,6,241,2,1
242,6,234,2,1
48,6,58,2,1
3,6,65,2,1
114,6,60,2,1
34,6,4,2,1
166,6,403,2,1
23,6,24,2,1
11,6,0,2,1
40,6,33,2,1
7,6,194,2,1
318,6,0,2,1
143,6,326,2,1
93,6,0,2,1
26,6,37,2,1
81,6,33,2,1
90,6,80,2,1
32,6,151,2,1
135,6,95,2,1
66,6,144,2,1
30,6,26,2,1
98,6,10,2,1
28,6,138,2,1
412,6,190,2,1
34,6,0,2,1
151,6,39,2,1
137,6,16,2,1
108,6,127,2,1
35,6,19,2,1
6,6,42,2,1
368,7,260,2,1
330,6,0,2,1
25,6,356,2,1
11,6,0,2,1
114,6,111,2,1
155,6,91,2,1
92,6,109,2,1
114,6,130,2,1
154,6,66,2,1
170,6,61,2,1
74,6,52,2,1
264,6,163,2,1
126,6,137,2,1
60,6,138,2,1
293,6,95,2,1
83,6,54,2,1
5,6,34,2,1
72,6,69,2,1
275,6,126,2,1
22,6,129,2,1
315,6,141,2,1
102,6,352,2,1
182,6,54,2,1
168,6,133,2,1
130,6,146,2,1
16,6,89,2,1
226,6,58,2,1
313,6,112,2,1
164,6,130,2,1
414,6,62,2,1
124,6,147,2,1
248,6,29,2,1
222,6,9,2,1
79,6,212,2,1
225,6,102,2,1
146,6,56,2,1
77,6,74,2,1
11,6,332,2,1
28,6,313,2,1
64,6,112,2,1
115,6,113,2,1
87,6,50,2,1
528,7,396,2,1
367,6,288,2,1
28,6,251,2,1
239,6,100,2,1
487,6,0,2,1
44,6,198,2,1
281,6,134,2,1
335,7,514,1,1
436,6,214,2,1
1,6,68,2,1
290,6,31,2,1
10,7,383,2,1
216,6,138,2,1
2,7,358,1,1
158,6,281,2,1
367,6,181,2,1
80,6,157,2,1
123,6,181,2,1
5,6,253,2,1
272,6,0,2,1
150,7,232,2,1
274,6,89,2,1
143,6,13,2,1
128,6,124,2,1
2,6,49,2,1
37,6,199,2,1
54,6,44,2,1
74,6,163,2,1
347,6,307,2,1
311,6,283,2,1
80,6,307,2,1
136,6,557,2,1
17,6,136,2,1
487,6,36,2,1
162,6,114,2,1
66,6,133,2,1
211,6,8,2,1
32,6,39,2,1
146,6,343,2,1
84,6,0,2,1
140,6,193,2,1
527,6,284,2,1
243,7,551,2,1
322,6,430,2,1
345,6,121,2,1
266,6,447,2,1
79,6,221,2,1
5,6,562,2,1
170,6,317,2,1
284,6,262,2,1
152,33,1023,2,1
13,5,581,1,1
512,6,564,1,1
447,6,0,2,1
166,6,185,2,1
361,6,55,2,1
215,6,0,2,1
579,6,180,2,1
16,6,28,2,1
63,6,322,2,1
83,6,67,2,1
275,7,685,2,1
215,6,226,2,1
69,6,326,2,1
13,6,369,2,1
222,6,100,2,1
379,6,115,2,1
475,6,40,2,1
192,7,830,2,1
174,6,205,2,1
58,6,504,2,1
292,5,184,2,1
69,6,170,2,1
283,6,149,2,1
5,6,272,2,1
416,6,110,2,1
313,6,110,2,1
83,6,376,2,1
296,6,296,2,1
166,6,86,2,1
125,7,505,2,1
253,6,449,2,1
132,6,504,2,1
612,7,694,1,1
157,5,278,2,1
182,6,410,2,1
96,6,28,2,1
352,6,40,2,1
116,6,414,2,1
413,6,310,2,1
15,7,771,2,1
168,7,816,2,1
227,6,9,2,1
123,6,380,2,1
290,6,438,2,1
305,6,638,1,1
93,6,99,2,1
166,6,181,2,1
464,7,391,1,1
117,6,4,2,1
212,7,227,2,1
375,6,177,2,1
41,6,87,2,1
358,6,407,2,1
275,6,431,2,1
543,7,562,2,1
146,7,790,1,1
481,6,752,2,1
93,6,58,2,1
264,6,506,2,1
777,19,1023,1,1
763,4,53,2,1
76,5,196,2,1
248,6,307,2,1
220,6,314,2,1
174,6,86,2,1
28,6,441,1,1
158,6,218,2,1
402,6,268,2,1
268,6,181,2,1
48,6,168,2,1
121,6,132,2,1
139,6,284,2,1
50,6,493,2,1
34,5,431,2,1
21,6,281,2,1
55,6,69,2,1
143,6,237,2,1
345,6,407,2,1
50,6,24,2,1
278,202,1023,1,1
164,14,762,2,1
167,4,574,2,1
524,5,300,2,1
29,6,442,2,1
284,6,425,2,1
7,6,545,2,1
276,6,416,2,1
245,6,383,1,1
290,116,926,2,1
387,49,535,2,1
131,7,171,2,1
297,5,518,2,1
61,7,887,2,1
456,5,202,2,1
462,735,1023,0,1
17,829,414,2,1
73,236,197,2,1
179,41,632,1,1
821,6,270,2,1
370,1023,647,0,1
548,500,225,2,1
137,1023,1023,0,1
71,191,969,1,1
400,695,579,2,1
152,312,245,2,1
101,58,476,2,1
193,8,13,2,1
266,5,66,2,1
465,5,136,2,1
320,6,321,2,1
90,6,149,2,1
110,6,167,1,1
263,7,331,2,1
620,6,204,2,1
282,6,278,2,1
225,7,480,2,1
40,6,434,2,1
540,7,607,2,1
265,5,208,2,1
154,6,213,2,1
336,6,25,2,1
426,202,370,2,1
224,521,853,2,1
137,108,245,2,1
529,14,639,2,1
12,5,426,2,1
452,5,24,2,1
14,6,110,2,1
300,6,530,2,1
527,6,310,1,1
243,6,394,2,1
628,6,243,2,1
93,6,346,1,1
464,6,431,2,1
183,6,125,2,1
17,6,239,2,1
151,6,278,2,1
88,6,276,2,1
49,7,666,2,1
37,8,1023,2,1
523,5,349,2,1
260,5,58,2,1
112,6,212,2,1
170,6,415,2,1
325,7,652,2,1
574,6,93,2,1
236,6,195,2,1
87,6,214,2,1
232,6,71,2,1
483,7,492,1,1
105,6,376,2,1
614,6,191,2,1
139,6,38,2,1
119,6,47,2,1
445,6,33,2,1
381,7,399,2,1
122,6,446,2,1
218,6,251,2,1
292,6,158,2,1
21,6,7,2,1
24,7,290,1,1
183,6,335,2,1
29,7,769,2,1
876,6,50,2,1
125,6,191,2,1
374,6,17,2,1
248,6,310,2,1
87,6,10,2,1
205,6,0,2,1
264,7,294,2,1
99,6,76,2,1
387,6,208,2,1
8,6,144,2,1
194,6,75,2,1
198,6,144,2,1
15,6,95,2,1
138,6,0,2,1
79,6,22,2,1
9,6,25,2,1
105,6,0,2,1
4,6,47,2,1
184,6,286,2,1
91,6,240,2,1
53,6,56,2,1
156,6,0,2,1
46,6,129,2,1
387,6,206,2,1
79,6,0,2,1
119,6,151,2,1
118,6,0,2,1
131,6,141,2,1
37,6,46,2,1
210,6,38,2,1
72,6,159,2,1
276,6,227,1,1
288,6,6,2,1
138,7,372,2,1
111,6,86,2,1
31,6,115,2,1
308,6,137,2,1
26,6,307,2,1
246,6,46,2,1
130,6,209,2,1
111,6,360,2,1
173,6,215,2,1
155,6,57,2,1
15,6,134,2,1
122,6,3,2,1
97,6,74,2,1
119,6,91,2,1
31,6,250,2,1
117,6,158,2,1
35,6,98,2,1
111,6,75,2,1
36,6,32,2,1
128,6,2,2,1
36,6,166,2,1
352,6,244,1,1
19,6,270,2,1
144,6,25,2,1
10,6,244,2,1
19,6,82,2,1
51,6,11,2,1
63,6,158,2,1
59,6,121,2,1
125,7,272,2,1
126,6,213,2,1
54,6,3,2,1
165,6,0,2,1
104,6,52,2,1
56,6,167,2,1
63,6,186,2,1
83,6,29,2,1
250,6,105,2,1
213,6,101,2,1
166,6,46,2,1
145,6,45,2,1
24,6,122,2,1
147,6,249,2,1
23,6,373,2,1
142,6,216,2,1
21,6,255,2,1
125,6,136,2,1
5,6,202,2,1
177,6,150,2,1
137,6,101,2,1
109,6,268,2,1
70,6,225,2,1
17,6,307,2,1
0,6,194,2,1
141,6,224,2,1
365,6,42,2,1
43,7,247,2,1
71,6,0,2,1
174,6,164,2,1
126,6,278,2,1
93,7,332,2,1
20,6,181,2,1
30,6,31,2,1
337,6,119,2,1
87,6,155,2,1
131,6,15,2,1
83,6,60,2,1
39,6,68,2,1
182,7,473,1,1
419,6,380,2,1
310,6,237,2,1
1,6,261,2,1
453,6,0,2,1
122,6,8,2,1
345,6,162,2,1
4,6,219,2,1
26,6,8,2,1
403,6,19,2,1
53,6,56,2,1
207,6,173,2,1
48,6,5,2,1
25,6,0,2,1
139,7,386,2,1
186,6,229,2,1
67,6,21,2,1
83,6,15,2,1
191,6,30,2,1
126,6,155,2,1
69,6,34,2,1
137,6,31,2,1
202,6,172,2,1
167,6,0,2,1
212,6,168,2,1
82,6,172,2,1
261,6,0,2,1
62,6,317,2,1
41,6,178,2,1
68,6,229,2,1
98,6,323,2,1
22,6,3,2,1
81,6,112,2,1
114,6,136,2,1
86,6,156,2,1
134,6,172,2,1
9,6,89,2,1
88,6,210,2,1
139,6,32,2,1
137,6,85,2,1
106,6,200,2,1
62,6,132,2,1
206,6,153,2,1
99,6,16,2,1
258,6,322,2,1
10,6,7,2,1
193,6,27,2,1
100,6,215,2,1
189,6,70,2,1
2,6,19,2,1
0,6,61,2,1
138,6,184,2,1
22,6,3,2,1
262,6,116,2,1
87,6,12,2,1
122,6,206,2,1
96,6,190,2,1
42,6,43,2,1
10,6,3,2,1
37,6,144,2,1
6,6,0,2,1
2,6,306,2,1
124,6,80,2,1
38,6,313,2,1
33,6,45,2,1
37,6,161,2,1
1,6,4,2,1
54,6,131,2,1
147,6,156,2,1
129,6,349,2,1
91,6,246,2,1
10,6,54,2,1
119,6,54,2,1
47,6,30,2,1
70,6,56,2,1
156,6,0,2,1
129,6,130,2,1
50,6,214,2,1
185,6,93,2,1
0,6,87,2,1
61,6,158,2,1
68,6,75,2,1
20,6,37,2,1
0,6,59,2,1
70,6,7,2,1
116,6,32,2,1
103,6,150,2,1
81,6,39,2,1
9,6,25,2,1
69,6,45,2,1
124,7,222,2,1
10,6,15,2,1
8,7,237,2,1
11,6,97,2,1
5,6,0,2,1
173,6,110,2,1
136,6,47,2,1
52,6,14,2,1
55,6,10,2,1
60,6,28,2,1
218,6,22,2,1
6,6,110,2,1
25,6,55,2,1
47,6,239,2,1
110,6,81,2,1
118,6,237,1,1
94,6,83,2,1
218,6,154,2,1
112,6,80,2,1
96,6,146,2,1
17,6,2,2,1
36,6,135,2,1
226,6,8,2,1
170,6,6,2,1
19,6,14,2,1
35,6,36,2,1
116,6,40,2,1
8,6,23,2,1
77,6,0,2,1
85,6,17,2,1
25,6,104,2,1
32,6,53,2,1
23,6,26,2,1
9,7,98,2,1
134,6,73,2,1
62,7,138,2,1
80,6,0,2,1
438,6,130,2,1
170,6,91,2,1
3,6,1,2,1
49,6,66,2,1
72,6,29,2,1
161,6,90,2,1
151,6,49,2,1
5,6,25,2,1
1,6,69,2,1
34,6,82,2,1
69,6,42,2,1
110,6,234,2,1
54,6,146,2,1
315,6,355,1,1
116,6,240,2,1
193,6,195,2,1
49,6,315,2,1
253,6,13,2,1
108,6,323,2,1
215,6,134,2,1
112,6,414,2,1
39,6,15,2,1
43,6,37,2,1
297,6,52,2,1
14,6,51,2,1
210,6,221,2,1
82,6,275,2,1
58,6,283,2,1
245,6,252,2,1
151,6,197,2,1
23,6,111,2,1
95,6,99,2,1
290,6,71,2,1
115,6,32,2,1
58,6,143,2,1
55,6,91,2,1
116,6,0,2,1
82,6,122,2,1
330,6,108,2,1
81,6,240,2,1
143,6,142,2,1
53,6,57,2,1
131,6,51,2,1
54,6,82,2,1
99,6,160,2,1
195,6,27,2,1
18,6,214,2,1
75,6,23,2,1
332,6,217,2,1
176,6,97,2,1
470,6,131,2,1
223,6,141,2,1
167,7,299,2,1
21,6,253,2,1
56,6,357,2,1
213,6,5,2,1
162,6,394,2,1
125,6,495,2,1
28,6,255,2,1
475,6,89,2,1
453,6,20,2,1
162,6,54,2,1
37,6,452,2,1
37,6,495,2,1
414,6,32,2,1
155,7,599,1,1
117,6,43,2,1
120,6,207,2,1
68,6,223,2,1
122,6,90,2,1
12,7,369,2,1
236,6,281,2,1
29,6,326,2,1
82,7,673,2,1
245,6,219,2,1
153,6,42,2,1
547,7,184,2,1
301,6,84,2,1
35,6,222,2,1
112,8,1021,2,1
743,6,270,2,1
22,8,949,2,1
691,5,346,2,1
464,6,472,2,1
11,6,296,2,1
2,6,5,2,1
523,7,206,2,1
446,6,0,2,1
121,7,603,2,1
234,5,145,2,1
412,6,156,2,1
90,6,0,2,1
86,6,372,1,1
562,6,202,2,1
5,6,1,2,1
479,6,173,2,1
260,6,287,2,1
111,6,48,2,1
395,7,354,2,1
175,6,239,2,1
3,6,262,1,1
54,7,714,2,1
323,5,171,2,1
372,6,295,2,1
131,6,35,2,1
147,6,153,2,1
200,6,71,2,1
383,6,295,2,1
381,6,253,2,1
93,6,169,2,1
462,6,114,2,1
302,7,619,2,1
318,6,421,1,1
29,6,498,2,1
650,6,252,2,1
111,6,627,2,1
227,5,244,2,1
69,6,392,2,1
99,6,72,2,1
151,7,525,1,1
13,6,306,2,1
272,6,159,2,1
391,6,285,2,1
4,6,212,2,1
189,7,923,1,1
332,5,200,2,1
261,6,332,2,1
241,6,463,2,1
75,6,223,2,1
179,6,151,2,1
42,6,231,2,1
93,7,595,2,1
139,6,555,2,1
100,5,0,2,1
209,6,269,1,1
103,6,442,2,1
298,6,370,2,1
145,7,741,2,1
115,6,420,2,1
542,6,30,2,1
151,6,301,2,1
259,7,955,2,1
23,5,321,2,1
208,6,530,2,1
313,5,35,2,1
34,6,92,2,1
126,6,180,2,1
232,6,310,2,1
140,6,197,2,1
45,6,225,2,1
186,6,619,1,1
544,6,411,2,1
277,1023,1023,0,1
550,638,231,2,1
8,142,184,2,1
125,21,659,2,1
811,42,220,2,1
522,1023,1023,0,1
543,857,61,2,1
344,200,468,2,1
73,33,689,2,1
747,5,358,2,1
423,5,83,2,1
248,7,622,2,1
540,6,1005,1,1
147,6,867,2,1
38,6,713,1,1
343,7,657,1,1
671,7,546,2,1
648,6,14,2,1
251,1023,1023,0,1
96,768,845,1,1
235,178,52,2,1
129,29,5,2,1
21,5,403,2,1
309,6,330,2,1
103,7,815,1,1
119,6,628,2,1
415,5,207,2,1
154,349,1023,0,1
470,98,815,1,1
107,19,209,2,1
161,5,536,2,1
195,6,383,2,1
572,6,423,2,1
42,6,356,2,1
317,6,889,2,1
10,154,32,2,1
488,40,374,2,1
260,5,267,2,1
100,5,71,2,1
204,6,557,1,1
552,11,149,2,1
36,944,535,1,1
555,561,589,2,1
174,116,551,2,1
186,1023,1023,0,1
66,636,1023,0,1
26,770,228,2,1
125,171,915,2,1
309,696,678,2,1
70,950,1023,0,1
720,597,295,2,1
41,170,510,1,1
193,27,770,2,1
337,5,70,2,1
288,5,193,2,1
524,6,279,2,1
279,6,305,2,1
71,6,293,2,1
0,1023,1023,0,1
194,769,431,2,1
147,179,42,2,1
26,29,577,2,1
927,5,59,2,1
465,5,424,2,1
593,6,246,2,1
271,6,492,2,1
421,7,644,1,1
114,6,305,2,1
245,6,104,2,1
61,7,442,2,1
271,6,273,2,1
259,6,260,2,1
73,6,253,2,1
401,6,88,2,1
17,6,0,2,1
130,6,402,2,1
340,7,417,2,1
11,6,82,2,1
19,6,166,2,1
354,6,39,2,1
0,6,116,2,1
175,6,170,2,1
41,7,297,2,1
325,7,437,1,1
160,6,380,2,1
130,6,74,2,1
468,6,81,2,1
550,7,887,1,1
115,5,324,2,1
337,6,29,2,1
158,6,38,2,1
9,6,5,2,1
95,147,926,1,1
338,1023,1023,0,1
797,1023,15,2,1
411,283,1018,1,1
328,80,689,2,1
552,37,8,2,1
61,5,574,2,1
417,5,655,1,1
390,6,161,2,1
7,6,363,2,1
150,6,115,2,1
284,6,156,2,1
191,6,332,2,1
144,6,38,2,1
131,6,209,2,1
258,8,865,2,1
345,5,30,2,1
192,6,275,2,1
396,6,126,2,1
8,6,205,2,1
43,6,150,2,1
58,6,282,2,1
18,6,219,2,1
44,6,124,2,1
169,6,43,2,1
34,6,0,2,1
244,6,165,2,1
149,6,226,2,1
3,7,175,2,1
230,6,26,2,1
161,6,133,2,1
52,6,43,2,1
41,6,4,2,1
126,6,117,2,1
147,6,76,2,1
14,6,130,2,1
100,6,195,2,1
259,6,0,2,1
83,7,461,2,1
67,6,102,2,1
1,6,12,2,1
139,6,103,2,1
10,6,128,2,1
20,6,114,2,1
77,6,172,2,1
335,6,3,2,1
117,6,190,1,1
22,6,107,2,1
4,6,144,2,1
117,6,59,2,1
35,6,193,2,1
61,6,42,2,1
213,6,415,2,1
7,6,224,1,1
127,6,0,2,1
9,6,51,2,1
362,6,34,2,1
52,6,240,2,1
127,6,54,2,1
44,6,9,2,1
9,6,23,2,1
143,6,204,2,1
510,6,75,2,1
117,6,62,2,1
11,6,263,2,1
196,6,44,2,1
124,6,262,2,1
165,6,78,2,1
278,6,81,2,1
129,6,328,2,1
72,6,201,2,1
85,6,55,2,1
216,7,223,2,1
169,6,31,2,1
82,6,111,2,1
119,7,445,2,1
41,6,197,2,1
114,6,210,2,1
213,6,235,2,1
109,6,129,2,1
59,6,11,2,1
389,6,107,2,1
94,6,159,2,1
238,6,14,2,1
163,6,43,2,1
2,6,13,2,1
107,6,113,2,1
96,6,235,2,1
81,6,303,2,1
88,6,179,2,1
263,6,29,2,1
116,6,215,2,1
85,6,159,2,1
86,6,113,2,1
31,6,166,2,1
198,6,276,2,1
89,6,368,2,1
80,6,0,2,1
139,6,105,2,1
557,6,268,2,1
189,6,97,2,1
282,6,37,2,1
12,6,0,2,1
57,6,74,2,1
321,6,129,2,1
577,6,436,2,1
108,6,19,2,1
81,7,522,1,1
127,6,457,1,1
290,6,97,2,1
191,6,208,2,1
285,6,0,2,1
123,6,55,2,1
24,6,214,2,1
94,6,11,2,1
186,6,19,2,1
31,6,220,2,1
35,6,2,2,1
181,6,46,2,1
70,6,0,2,1
7,6,128,2,1
31,6,0,2,1
93,6,93,2,1
6,6,17,2,1
90,6,264,2,1
85,6,215,2,1
30,6,213,2,1
22,6,335,2,1
82,6,53,2,1
225,6,0,2,1
153,6,151,2,1
53,6,53,2,1
27,6,115,2,1
54,6,61,2,1
1,7,478,2,1
140,6,2,2,1
18,6,302,2,1
63,6,99,2,1
49,6,260,2,1
17,6,252,2,1
154,6,88,2,1
34,6,75,2,1
142,6,95,2,1
161,6,26,2,1
8,6,56,2,1
15,6,50,2,1
152,6,146,2,1
204,6,74,2,1
4,6,137,2,1
14,6,20,2,1
298,6,156,2,1
0,6,46,2,1
11,6,47,2,1
12,6,58,2,1
37,6,82,2,1
10,6,96,2,1
121,6,134,2,1
240,6,84,2,1
6,6,41,2,1
388,6,187,2,1
240,6,217,2,1
99,6,144,2,1
271,6,62,2,1
201,6,35,2,1
41,6,158,2,1
97,6,46,2,1
70,6,160,2,1
69,6,35,2,1
343,6,146,2,1
29,6,145,2,1
14,6,312,2,1
10,6,18,2,1
66,6,212,2,1
297,6,34,2,1
91,6,322,2,1
0,6,72,2,1
48,6,11,2,1
159,6,197,2,1
129,6,54,2,1
30,6,89,2,1
198,6,105,2,1
104,6,171,2,1
33,6,71,2,1
112,6,87,2,1
52,6,16,2,1
73,6,22,2,1
120,6,19,2,1
1,6,201,2,1
138,6,31,2,1
28,6,48,2,1
31,6,129,2,1
2,6,90,2,1
39,6,51,2,1
147,6,44,2,1
132,6,41,2,1
93,6,66,2,1
47,6,75,2,1
98,6,0,2,1
12,6,17,2,1
30,6,231,2,1
225,6,39,2,1
224,6,0,2,1
5,6,157,2,1
23,6,45,2,1
60,6,169,2,1
76,6,206,2,1
142,6,62,2,1
130,6,121,2,1
142,6,0,2,1
121,6,25,2,1
46,6,0,2,1
42,6,7,2,1
214,6,28,2,1
219,6,39,2,1
1,6,151,2,1
51,6,2,2,1
32,6,202,2,1
17,6,11,2,1
4,6,25,2,1
54,6,184,2,1
368,6,11,2,1
179,6,108,2,1
32,6,7,2,1
12,6,21,2,1
33,6,6,2,1
22,6,126,2,1
446,7,126,2,1
173,6,131,2,1
22,6,56,2,1
217,6,114,2,1
99,6,44,2,1
42,6,61,2,1
95,6,115,2,1
38,6,133,2,1
38,6,138,2,1
16,6,31,2,1
123,6,23,2,1
11,6,34,2,1
140,6,12,2,1
56,6,31,2,1
194,6,159,2,1
56,6,35,2,1
74,6,185,2,1
21,6,86,2,1
192,6,0,2,1
80,6,88,2,1
14,6,2,2,1
46,6,173,2,1
6,6,51,2,1
34,6,66,2,1
68,6,100,2,1
12,6,176,2,1
78,6,193,2,1
29,6,16,2,1
43,6,0,2,1
64,6,0,2,1
36,6,81,2,1
21,6,9,2,1
31,6,7,2,1
56,6,86,2,1
115,6,26,2,1
205,6,145,2,1
197,6,160,2,1
132,6,62,2,1
330,6,50,2,1
25,6,117,1,1
361,6,126,2,1
100,6,181,2,1
96,6,196,2,1
38,6,132,2,1
94,6,0,2,1
201,6,85,2,1
70,6,285,2,1
176,6,79,2,1
50,6,373,2,1
91,6,383,2,1
388,6,144,2,1
264,6,351,2,1
262,6,148,2,1
208,6,393,2,1
45,7,502,1,1
22,6,222,2,1
298,6,50,2,1
335,6,41,2,1
350,6,99,2,1
80,6,300,2,1
103,6,78,2,1
566,6,258,2,1
44,6,51,2,1
413,6,59,2,1
74,6,44,2,1
151,6,58,2,1
305,6,215,2,1
599,7,94,2,1
210,6,235,2,1
49,7,497,1,1
85,6,131,2,1
492,6,85,2,1
109,6,186,2,1
125,6,246,2,1
164,7,285,2,1
24,6,442,1,1
48,6,35,2,1
127,6,308,2,1
193,6,176,2,1
45,6,31,2,1
118,6,12,2,1
175,6,139,2,1
18,6,62,2,1
777,7,318,2,1
480,6,209,2,1
72,6,187,2,1
138,6,136,2,1
87,6,256,1,1
79,6,234,2,1
344,6,210,2,1
120,6,0,2,1
297,7,747,2,1
545,6,148,2,1
439,7,507,2,1
15,6,449,2,1
309,6,638,2,1
114,6,250,2,1
265,6,120,2,1
144,6,423,2,1
132,6,461,1,1
138,6,234,2,1
261,6,171,2,1
644,7,141,2,1
96,6,283,1,1
224,7,714,2,1
204,6,478,2,1
262,6,181,2,1
349,6,384,2,1
185,7,641,1,1
61,7,709,2,1
363,6,45,2,1
101,6,90,2,1
66,7,487,1,1
43,7,552,1,1
66,6,137,2,1
315,6,115,2,1
340,6,252,2,1
18,6,76,2,1
256,6,104,2,1
686,6,181,2,1
190,6,376,2,1
121,6,344,1,1
88,6,239,2,1
218,7,435,2,1
254,7,740,2,1
70,6,211,2,1
49,6,489,2,1
98,6,21,2,1
266,6,255,2,1
89,6,146,2,1
242,6,44,2,1
115,6,27,2,1
361,6,117,2,1
30,6,359,1,1
121,6,159,2,1
395,6,135,2,1
89,6,12,2,1
359,6,269,2,1
295,6,0,2,1
15,7,451,2,1
294,6,7,2,1
220,7,479,2,1
106,6,30,2,1
12,6,232,2,1
308,6,0,2,1
71,6,35,2,1
162,6,44,2,1
47,6,99,2,1
170,6,333,2,1
176,6,255,2,1
279,6,165,2,1
168,7,604,1,1
159,6,312,2,1
1023,190,1023,1,1
1023,116,113,2,1
594,19,625,2,1
216,1023,1023,0,1
680,1023,1023,1,1
250,884,36,2,1
234,256,611,1,1
281,44,946,2,1
509,461,1023,0,1
888,159,520,2,1
339,636,507,2,1
27,310,217,2,1
121,54,953,1,1
596,6,1023,1,1
59,946,220,2,1
475,119,1014,1,1
606,452,588,2,1
127,91,646,2,1
22,13,127,2,1
334,4,399,2,1
164,6,378,2,1
282,6,548,1,1
615,6,481,2,1
476,5,0,2,1
98,6,278,2,1
524,6,3,2,1
233,11,1023,1,1
141,5,154,2,1
307,6,137,2,1
560,6,308,2,1
318,6,44,2,1
653,7,457,2,1
420,7,778,2,1
264,7,688,2,1
498,6,560,1,1
50,6,170,2,1
84,6,174,2,1
82,6,364,2,1
0,6,247,2,1
62,6,297,2,1
379,7,988,1,1
181,5,1,2,1
110,6,49,2,1
673,7,283,2,1
343,1023,1023,0,1
519,1023,1023,1,1
360,590,871,2,1
64,535,78,2,1
259,1023,1023,0,1
330,816,321,2,1
398,205,415,1,1
625,35,825,1,1
433,175,568,1,1
307,610,222,2,1
158,128,105,2,1
458,20,144,2,1
228,5,191,2,1
25,5,126,2,1
263,10,942,1,1
930,6,629,1,1
976,654,41,2,1
12,292,148,2,1
147,54,41,2,1
34,7,0,2,1
30,5,111,2,1
137,6,217,2,1
263,5,102,2,1
464,5,742,2,1
711,5,468,2,1
795,6,778,2,1
590,121,739,2,1
495,34,135,2,1
221,155,592,2,1
319,406,285,2,1
224,80,224,2,1
510,11,295,2,1
336,5,305,2,1
438,6,462,1,1
687,6,207,2,1
0,7,909,1,1
786,6,253,2,1
32,7,1023,1,1
752,135,6,2,1
144,28,392,1,1
269,5,134,2,1
17,5,161,2,1
333,6,198,2,1
844,6,172,2,1
324,5,137,2,1
129,6,217,2,1
19,7,777,2,1
81,6,409,2,1
642,7,647,2,1
230,6,377,2,1
405,6,144,2,1
44,6,39,2,1
61,6,305,2,1
269,7,744,1,1
409,6,191,2,1
543,6,66,2,1
132,6,201,2,1
92,6,301,2,1
39,6,254,1,1
169,6,81,2,1
39,6,69,2,1
303,7,384,2,1
641,6,98,2,1
73,6,149,2,1
362,6,157,2,1
136,6,38,2,1
59,6,273,1,1
211,6,4,2,1
232,6,177,2,1
354,6,286,2,1
177,6,55,2,1
141,6,105,2,1
19,6,192,2,1
44,6,74,2,1
136,6,178,2,1
96,6,28,2,1
87,6,52,2,1
116,6,117,2,1
259,6,0,2,1
217,6,182,2,1
207,6,189,2,1
590,6,174,2,1
504,6,12,2,1
222,6,231,2,1
101,6,17,2,1
97,6,7,2,1
182,6,55,2,1
29,6,8,2,1
126,6,85,2,1
3,6,122,2,1
51,6,143,2,1
400,6,70,2,1
496,7,584,2,1
308,6,11,2,1
227,6,8,2,1
117,6,31,2,1
116,7,524,2,1
408,7,552,2,1
13,6,35,2,1
7,6,274,2,1
90,6,296,2,1
140,6,166,2,1
292,6,90,2,1
218,6,229,2,1
58,6,193,2,1
363,6,0,2,1
168,6,104,2,1
118,6,16,2,1
8,6,264,2,1
297,6,469,2,1
506,6,33,2,1
306,6,289,2,1
106,6,209,2,1
281,6,172,2,1
261,6,137,2,1
229,7,280,2,1
383,6,340,2,1
420,6,97,2,1
261,6,227,2,1
4,6,72,2,1
7,6,15,2,1
358,6,234,2,1
430,6,101,2,1
233,6,90,2,1
155,6,221,2,1
30,6,0,2,1
58,6,43,2,1
126,6,0,2,1
18,6,132,2,1
207,7,464,2,1
202,6,434,2,1
351,6,107,2,1
144,6,229,2,1
11,6,223,2,1
164,6,110,2,1
199,6,234,2,1
243,6,0,2,1
11,6,287,2,1
401,6,68,2,1
44,6,235,2,1
229,6,196,2,1
153,6,77,2,1
225,6,240,2,1
11,6,143,2,1
283,7,570,2,1
440,6,381,2,1
377,6,89,2,1
262,6,205,2,1
399,6,137,2,1
74,6,149,2,1
205,6,91,2,1
48,6,295,2,1
293,6,174,2,1
13,6,164,2,1
85,6,209,2,1
284,6,306,2,1
50,6,62,2,1
54,6,470,1,1
318,6,252,2,1
85,6,96,2,1
162,6,0,2,1
6,6,20,2,1
20,6,10,2,1
52,6,120,2,1
154,6,33,2,1
154,6,290,2,1
375,6,381,2,1
352,6,194,2,1
87,6,75,2,1
333,6,367,2,1
98,6,18,2,1
114,6,177,2,1
281,6,60,2,1
533,6,165,2,1
218,6,182,2,1
11,6,107,2,1
82,6,317,2,1
272,6,194,2,1
92,7,308,1,1
119,6,47,2,1
73,6,36,2,1
153,6,1,2,1
10,6,13,2,1
164,6,103,2,1
281,6,101,2,1
247,6,148,2,1
182,6,61,2,1
87,6,130,2,1
70,6,46,2,1
55,6,85,2,1
15,6,265,2,1
61,6,109,2,1
88,6,132,2,1
349,6,35,2,1
284,6,0,2,1
259,6,80,2,1
415,6,0,2,1
235,6,16,2,1
102,6,4,2,1
77,6,11,2,1
23,6,196,2,1
0,6,48,2,1
184,6,0,2,1
17,6,41,2,1
90,6,76,2,1
72,6,218,2,1
26,6,21,2,1
87,6,10,2,1
8,6,51,2,1
10,6,67,2,1
136,6,0,2,1
104,6,153,2,1
180,6,25,2,1
102,6,6,2,1
110,6,0,2,1
61,6,79,2,1
297,6,33,2,1
1,6,39,2,1
40,6,36,2,1
107,6,41,2,1
20,6,57,2,1
19,6,206,2,1
412,6,11,2,1
149,6,141,2,1
102,6,0,2,1
32,6,58,2,1
236,6,28,2,1
123,6,1,2,1
85,6,53,2,1
61,6,71,2,1
95,6,20,2,1
10,6,190,2,1
212,6,65,2,1
210,6,117,2,1
66,6,86,2,1
32,6,40,1,1
27,6,103,2,1
64,6,292,2,1
280,6,65,2,1
48,6,187,2,1
152,6,86,2,1
80,6,182,2,1
161,6,169,2,1
172,6,112,2,1
217,6,10,2,1
202,6,105,2,1
70,6,3,2,1
91,6,206,2,1
217,6,35,2,1
38,6,152,1,1
21,6,100,2,1
99,6,74,2,1
86,6,79,2,1
149,6,14,2,1
7,6,76,2,1
109,6,102,2,1
7,6,163,2,1
77,6,86,2,1
72,6,143,2,1
102,6,11,2,1
10,6,0,2,1
115,6,25,2,1
82,6,83,2,1
52,6,48,2,1
255,6,35,2,1
95,6,0,2,1
66,6,0,2,1
118,6,130,2,1
268,6,141,2,1
151,6,68,2,1
119,6,169,2,1
112,6,27,2,1
50,6,0,2,1
26,6,63,2,1
95,6,127,2,1
253,6,0,2,1
394,6,39,2,1
243,6,220,2,1
369,6,0,2,1
265,6,64,2,1
52,6,168,2,1
90,6,24,2,1
67,6,74,2,1
65,6,84,2,1
85,6,11,2,1
133,6,9,2,1
0,6,124,2,1
29,6,99,2,1
102,6,0,2,1
107,6,2,2,1
144,6,30,2,1
210,6,66,2,1
5,6,51,2,1
71,6,203,2,1
24,6,98,1,1
115,6,150,2,1
32,6,117,2,1
48,6,125,2,1
133,6,26,2,1
93,6,23,2,1
209,6,79,2,1
25,6,51,2,1
374,6,148,2,1
259,6,0,2,1
214,6,123,2,1
59,6,17,2,1
24,6,265,2,1
64,6,155,2,1
123,6,43,2,1
44,6,26,2,1
393,6,192,2,1
90,6,231,2,1
207,6,158,2,1
35,6,426,1,1
239,6,81,2,1
574,6,0,2,1
476,6,155,2,1
327,6,108,2,1
127,6,57,2,1
432,6,28,2,1
220,6,59,2,1
250,6,77,2,1
29,6,338,2,1
461,6,129,2,1
151,6,50,2,1
247,6,297,2,1
287,6,294,2,1
410,6,94,2,1
172,6,39,2,1
402,6,89,2,1
202,6,119,2,1
208,6,233,2,1
231,6,0,2,1
129,6,294,2,1
229,6,126,2,1
411,7,644,1,1
95,6,245,2,1
44,6,323,2,1
386,6,148,2,1
195,6,88,2,1
103,6,126,2,1
33,6,111,2,1
4,6,226,2,1
457,6,142,2,1
171,6,248,2,1
320,6,60,2,1
171,6,305,2,1
140,6,52,2,1
273,6,86,2,1
92,6,49,2,1
25,6,145,2,1
32,6,4,2,1
206,7,338,2,1
16,7,561,2,1
235,6,78,2,1
137,6,287,2,1
294,6,19,2,1
186,7,482,1,1
266,6,530,2,1
86,5,47,2,1
9,6,310,2,1
200,6,269,2,1
39,6,65,2,1
14,6,23,2,1
106,6,129,2,1
107,6,257,2,1
356,7,796,2,1
21,6,500,2,1
544,6,482,2,1
702,6,277,2,1
257,6,0,2,1
11,7,311,2,1
150,8,968,1,1
66,5,158,2,1
81,6,298,2,1
97,6,0,2,1
482,6,259,2,1
131,6,154,2,1
403,6,88,2,1
340,6,65,2,1
190,7,822,1,1
214,5,182,2,1
231,7,464,2,1
432,6,256,2,1
144,6,191,2,1
312,6,166,2,1
497,7,808,1,1
29,6,641,1,1
177,6,158,2,1
15,6,388,2,1
33,6,13,2,1
117,6,42,2,1
468,7,342,2,1
119,6,556,2,1
156,7,697,2,1
313,6,136,2,1
1,6,408,2,1
308,7,742,2,1
605,767,1023,0,1
505,1014,373,2,1
264,300,343,2,1
113,54,501,2,1
47,7,219,2,1
5,5,297,2,1
9,7,698,2,1
802,7,415,2,1
809,7,373,2,1
186,5,58,2,1
579,6,16,2,1
16,7,714,2,1
45,6,15,2,1
16,6,451,2,1
274,6,105,2,1
1013,52,917,1,1
1023,5,257,2,1
142,5,795,2,1
601,5,147,2,1
87,6,595,2,1
67,5,130,2,1
396,6,75,2,1
192,6,104,2,1
268,6,462,2,1
109,7,691,2,1
87,424,350,1,1
456,340,1023,1,1
886,96,256,2,1
449,13,861,2,1
352,5,237,2,1
489,5,128,2,1
7,6,486,2,1
820,6,95,2,1
257,6,248,2,1
685,8,801,1,1
88,6,138,2,1
7,6,712,1,1
245,5,82,2,1
19,6,384,2,1
130,6,112,2,1
188,6,267,2,1
88,6,518,2,1
787,969,1023,0,1
164,1023,769,2,1
217,348,355,2,1
69,66,55,2,1
601,8,169,2,1
185,5,908,1,1
163,5,348,2,1
30,6,838,2,1
146,6,280,2,1
202,7,829,1,1
138,5,71,2,1
204,7,885,2,1
299,6,808,2,1
758,7,1013,2,1
79,1023,1023,0,1
873,1023,145,2,1
303,387,597,2,1
592,74,262,2,1
864,503,1023,0,1
1023,191,562,0,1
521,1023,410,1,1
945,299,199,2,1
698,55,951,1,1
789,403,80,2,1
196,351,761,1,1
21,10,1023,1,1
695,16,476,1,1
143,4,319,2,1
239,5,42,2,1
642,7,58,2,1
563,6,221,2,1
281,1023,1023,0,1
1023,69,827,0,1
862,1023,761,2,1
525,316,707,2,1
385,60,98,2,1
494,8,213,2,1
134,5,99,2,1
617,6,385,2,1
802,6,192,2,1
63,6,429,2,1
631,6,290,2,1
428,6,278,2,1
318,6,143,2,1
286,142,1023,2,1
1023,62,788,1,1
74,1023,1023,0,1
1023,734,426,0,1
523,1023,1012,1,1
114,413,726,2,1
207,82,649,2,1
66,12,617,2,1
40,4,79,2,1
326,5,253,2,1
320,6,354,2,1
634,7,465,2,1
923,6,161,2,1
115,6,17,2,1
507,6,140,2,1
444,7,651,1,1
446,1023,1023,0,1
120,724,588,2,1
456,184,576,2,1
401,40,1023,2,1
899,6,385,2,1
67,5,803,2,1
318,5,125,2,1
274,6,369,2,1
296,6,22,2,1
268,7,450,2,1
927,7,421,2,1
469,6,114,2,1
166,6,283,2,1
188,6,381,2,1
42,6,14,2,1
334,6,172,2,1
18,6,560,2,1
50,7,509,2,1
197,6,110,2,1
352,6,63,2,1
228,6,0,2,1
122,7,349,2,1
211,7,1023,2,1
291,6,386,2,1
162,6,229,2,1
424,6,360,2,1
32,6,127,2,1
355,6,369,2,1
198,6,523,1,1
424,6,187,2,1
59,6,173,2,1
245,7,563,2,1
349,6,150,2,1
200,6,194,2,1
299,6,210,2,1
10,6,0,2,1
93,6,347,2,1
181,6,73,2,1
146,6,16,2,1
20,6,365,2,1
53,6,152,2,1
38,6,67,2,1
117,7,378,2,1
231,6,96,2,1
505,6,159,2,1
104,6,30,2,1
886,7,94,2,1
228,6,217,2,1
188,6,166,2,1
290,6,0,2,1
183,6,32,2,1
55,7,286,2,1
15,6,78,2,1
168,6,37,2,1
166,6,243,2,1
322,6,69,2,1
360,6,256,2,1
24,6,2,2,1
108,6,253,2,1
55,6,28,2,1
139,6,18,2,1
206,6,129,2,1
275,6,71,2,1
97,6,385,2,1
373,6,5,2,1
312,6,554,2,1
427,6,62,2,1
291,6,199,2,1
23,6,279,1,1
93,6,21,2,1
184,6,222,2,1
78,6,145,2,1
68,6,13,2,1
179,6,6,2,1
519,6,260,2,1
140,6,38,2,1
1,6,34,2,1
22,6,350,2,1
41,7,723,2,1
103,6,47,2,1
24,6,87,2,1
332,6,93,2,1
1,6,49,2,1
8,6,143,2,1
74,6,119,2,1
72,6,300,2,1
243,6,133,2,1
72,6,108,2,1
263,6,216,2,1
54,6,25,2,1
202,6,300,2,1
9,6,176,2,1
16,6,295,2,1
194,6,210,2,1
37,6,237,2,1
449,6,265,2,1
186,6,8,2,1
218,6,274,1,1
188,6,173,2,1
82,6,233,2,1
126,6,9,2,1
354,6,1,2,1
132,6,0,2,1
280,6,0,2,1
231,6,149,2,1
142,6,69,2,1
1,6,0,2,1
8,6,36,2,1
55,7,399,1,1
317,6,75,2,1
203,6,53,2,1
112,7,462,1,1
149,6,434,1,1
260,6,56,2,1
350,6,422,2,1
224,6,255,2,1
421,6,16,2,1
282,6,119,2,1
51,6,37,2,1
32,6,226,2,1
280,6,181,2,1
53,6,286,2,1
190,6,99,2,1
345,6,4,2,1
193,6,113,2,1
59,6,0,2,1
214,6,249,2,1
5,6,47,2,1
55,6,124,2,1
145,6,116,2,1
160,6,24,2,1
62,6,132,2,1
167,6,0,2,1
118,6,276,2,1
408,6,328,2,1
342,6,95,2,1
59,6,89,2,1
65,6,142,2,1
142,6,130,2,1
165,6,67,2,1
277,6,286,2,1
177,6,155,2,1
12,6,73,2,1
106,6,113,2,1
99,6,65,2,1
15,6,241,2,1
49,6,90,2,1
6,6,41,2,1
107,6,22,2,1
78,6,58,2,1
68,6,81,2,1
174,6,55,2,1
36,6,16,2,1
66,6,116,2,1
83,6,0,2,1
261,6,34,2,1
6,6,3,2,1
25,6,75,2,1
19,6,40,2,1
133,6,90,2,1
192,6,245,2,1
377,6,0,2,1
3,6,176,2,1
57,6,32,2,1
153,6,15,2,1
6,6,118,2,1
95,6,68,2,1
178,6,135,2,1
31,6,46,2,1
49,6,73,2,1
27,6,80,2,1
59,6,206,2,1
247,6,38,2,1
74,6,144,2,1
61,6,3,2,1
35,6,99,2,1
215,6,61,2,1
57,6,17,2,1
147,6,107,2,1
146,6,25,2,1
72,6,12,2,1
89,6,7,2,1
78,6,34,2,1
20,6,0,2,1
62,6,2,2,1
121,6,92,2,1
11,6,41,2,1
58,6,135,2,1
36,6,118,2,1
3,6,17,2,1
6,6,7,2,1
1,6,49,2,1
13,6,46,2,1
69,7,132,2,1
95,6,40,2,1
148,6,213,2,1
189,6,0,2,1
154,6,119,2,1
180,6,90,2,1
204,6,195,2,1
113,6,14,2,1
148,6,70,2,1
153,6,109,2,1
6,6,78,2,1
123,6,70,2,1
13,6,150,2,1
44,6,21,2,1
165,6,4,2,1
63,6,62,2,1
89,6,217,2,1
158,6,28,2,1
86,6,60,2,1
63,6,188,2,1
48,6,45,2,1
173,6,78,2,1
66,6,49,2,1
34,6,11,2,1
227,6,0,2,1
125,6,136,2,1
137,6,12,2,1
17,6,38,2,1
11,6,0,2,1
13,6,27,2,1
37,6,31,2,1
69,6,52,2,1
18,6,79,2,1
125,6,36,2,1
109,6,122,2,1
118,6,23,2,1
7,6,92,2,1
110,6,9,2,1
44,6,37,2,1
2,6,0,2,1
32,6,103,2,1
24,6,22,2,1
7,6,0,2,1
23,6,213,2,1
184,6,0,2,1
108,6,52,2,1
72,6,163,2,1
86,6,98,2,1
181,6,12,2,1
9,6,23,2,1
13,6,1,2,1
28,6,170,2,1
240,6,8,2,1
128,6,121,2,1
11,6,161,2,1
83,6,45,2,1
32,6,99,2,1
288,6,191,2,1
209,6,23,2,1
112,6,49,2,1
377,6,131,2,1
22,6,0,2,1
3,6,63,2,1
171,6,146,2,1
60,7,360,2,1
8,6,10,2,1
219,6,76,2,1
45,6,39,2,1
206,6,98,2,1
275,6,51,2,1
2,6,0,2,1
226,6,46,2,1
3,6,45,2,1
164,6,176,2,1
247,6,210,2,1
95,6,35,2,1
302,6,34,2,1
113,6,141,2,1
456,6,244,2,1
218,6,257,2,1
499,6,281,2,1
113,6,85,2,1
167,6,93,2,1
42,6,180,2,1
10,6,210,2,1
201,6,158,2,1
6,6,178,2,1
108,6,111,2,1
238,7,662,1,1
685,6,285,2,1
294,6,33,2,1
436,6,11,2,1
140,6,87,2,1
857,7,355,2,1
374,6,1,2,1
627,159,651,1,1
507,437,240,2,1
225,87,102,2,1
102,11,346,2,1
39,5,441,2,1
121,6,126,2,1
31,6,37,2,1
216,6,0,2,1
101,7,560,2,1
173,7,699,1,1
400,6,270,2,1
253,6,298,2,1
538,6,161,2,1
563,7,310,1,1
153,6,177,2,1
16,7,849,2,1
1023,8,46,1,1
307,1023,1023,1,1
1023,698,140,2,1
310,159,445,2,1
470,26,509,2,1
400,5,164,2,1
141,5,59,2,1
411,6,212,2,1
244,6,272,2,1
291,6,217,2,1
271,7,283,2,1
304,7,474,2,1
168,6,193,2,1
69,6,178,2,1
44,6,222,2,1
174,6,347,2,1
30,6,158,2,1
2,6,34,2,1
243,6,211,2,1
281,6,133,2,1
127,6,53,2,1
78,6,424,2,1
427,6,311,2,1
583,7,392,2,1
105,7,763,2,1
253,5,308,2,1
325,6,77,2,1
698,7,609,1,1
377,5,122,2,1
1,6,543,2,1
60,6,350,2,1
242,5,24,2,1
83,6,502,1,1
456,6,467,2,1
596,6,188,2,1
529,6,1,2,1
172,6,323,2,1
189,6,15,2,1
23,6,112,2,1
2,6,104,2,1
130,6,299,2,1
13,6,95,2,1
485,6,143,2,1
298,6,279,2,1
473,6,458,2,1
193,6,20,2,1
770,7,505,2,1
40,6,0,2,1
100,6,26,2,1
216,7,812,2,1
687,5,387,2,1
44,5,141,2,1
489,6,103,2,1
96,6,417,2,1
338,6,302,2,1
636,6,469,2,1
299,6,444,2,1
263,6,805,1,1
329,6,194,2,1
138,5,185,2,1
468,6,54,2,1
44,6,290,2,1
801,8,817,2,1
417,6,412,2,1
167,6,56,2,1
145,6,148,2,1
242,6,572,2,1
298,7,970,1,1
663,6,81,2,1
39,1023,1023,0,1
674,737,417,1,1
46,316,233,2,1
176,153,71,2,1
132,25,1,2,1
376,4,798,1,1
7,5,503,2,1
773,6,220,2,1
423,6,62,2,1
179,7,819,2,1
33,6,974,1,1
41,960,600,2,1
409,468,468,2,1
10,1023,1023,0,1
694,1023,849,1,1
129,308,17,2,1
427,56,460,1,1
41,8,572,2,1
340,5,1023,2,1
366,190,89,2,1
474,53,88,2,1
534,7,22,2,1
1,5,499,2,1
874,1023,522,0,1
199,606,199,2,1
358,133,240,2,1
32,19,547,2,1
639,4,533,2,1
586,6,334,1,1
411,6,325,2,1
110,6,47,2,1
373,6,274,2,1
393,6,279,2,1
177,1023,522,2,1
410,550,817,1,1
302,114,626,2,1
267,1023,1023,0,1
895,1023,662,1,1
173,1023,581,1,1
736,434,42,2,1
213,85,640,2,1
477,13,329,1,1
501,4,75,2,1
218,6,665,2,1
128,5,153,2,1
615,6,73,2,1
13,6,415,2,1
450,6,694,2,1
223,5,190,2,1
101,6,761,1,1
61,5,359,2,1
166,6,354,2,1
564,6,98,2,1
577,6,161,2,1
606,7,576,1,1
267,6,418,2,1
159,6,345,2,1
243,6,347,2,1
574,5,19,2,1
178,10,143,2,1
95,6,600,2,1
624,5,168,2,1
188,6,297,2,1
491,7,720,2,1
217,5,0,2,1
170,9,653,2,1
242,38,402,2,1
250,6,405,2,1
267,5,500,2,1
405,6,577,2,1
289,1023,16,0,1
319,446,537,2,1
621,91,44,2,1
152,12,650,2,1
144,5,316,2,1
372,6,540,2,1
837,7,431,2,1
288,6,280,2,1
333,6,176,2,1
115,6,112,2,1
56,6,204,2,1
350,6,97,2,1
365,6,32,2,1
35,6,77,2,1
41,6,87,2,1
0,7,616,2,1
406,6,218,2,1
354,7,759,2,1
5,5,123,2,1
140,6,135,2,1
536,7,383,2,1
536,6,221,2,1
228,6,179,2,1
184,6,247,2,1
116,6,32,2,1
16,7,519,2,1
44,6,59,2,1
238,6,189,2,1
190,7,881,2,1
1023,8,19,2,1
656,5,764,2,1
1023,1023,7,0,1
498,973,336,2,1
379,234,109,2,1
96,41,295,2,1
29,6,37,2,1
499,6,643,2,1
362,5,130,2,1
11,6,36,2,1
185,6,26,2,1
285,7,552,2,1
43,6,427,2,1
24,7,642,1,1
297,5,384,2,1
337,6,229,2,1
324,6,9,2,1
79,6,233,2,1
560,6,474,2,1
313,7,849,2,1
0,5,86,2,1
103,6,65,2,1
68,6,67,2,1
98,6,226,2,1
36,6,274,2,1
161,6,88,2,1
185,6,91,2,1
307,6,28,2,1
49,6,40,2,1
251,7,457,2,1
205,6,240,2,1
254,6,32,2,1
143,6,74,2,1
6,6,274,2,1
271,6,142,2,1
116,6,260,2,1
155,7,647,2,1
604,6,55,2,1
182,6,83,2,1
35,6,196,2,1
3,6,240,2,1
210,6,462,2,1
137,6,30,2,1
113,6,89,2,1
357,6,216,2,1
120,6,19,2,1
28,6,87,2,1
234,6,0,2,1
107,6,215,2,1
33,6,0,2,1
93,6,67,2,1
15,6,183,2,1
566,6,277,2,1
39,6,346,2,1
117,6,245,2,1
95,6,225,2,1
72,6,142,2,1
192,6,185,2,1
132,6,142,2,1
215,6,17,2,1
50,6,132,2,1
66,6,46,2,1
13,6,25,2,1
50,6,346,2,1
13,6,168,2,1
97,6,286,2,1
64,6,0,2,1
192,6,16,2,1
96,6,68,2,1
276,6,401,2,1
106,7,794,2,1
77,5,172,2,1
230,6,0,2,1
5,6,0,2,1
97,6,301,2,1
77,6,224,2,1
91,6,205,2,1
1,6,305,2,1
229,6,39,2,1
229,6,365,2,1
142,7,638,2,1
35,6,182,2,1
3,6,283,2,1
164,6,445,2,1
44,6,157,2,1
63,7,461,2,1
416,6,259,1,1
339,6,269,2,1
314,6,459,1,1
613,6,125,2,1
300,6,253,2,1
190,6,101,2,1
247,6,183,2,1
90,6,182,2,1
110,6,158,2,1
43,6,250,2,1
251,6,67,2,1
389,6,109,2,1
11,6,140,2,1
456,6,190,2,1
0,6,404,2,1
52,6,287,2,1
505,6,16,2,1
88,6,113,2,1
582,6,138,2,1
99,6,271,2,1
112,7,685,2,1
543,6,89,2,1
114,7,600,2,1
474,6,216,2,1
76,6,36,2,1
233,6,156,2,1
3,6,92,2,1
233,6,158,2,1
156,6,187,2,1
318,6,0,2,1
200,6,76,2,1
70,6,124,2,1
375,7,220,2,1
211,6,20,2,1
43,6,327,2,1
112,6,439,2,1
427,6,72,2,1
106,6,460,2,1
245,6,176,2,1
298,6,151,2,1
292,6,308,2,1
181,6,204,2,1
29,6,159,2,1
107,6,0,2,1
62,6,70,2,1
20,6,201,2,1
215,6,146,2,1
12,6,326,2,1
315,6,0,2,1
194,6,25,2,1
87,6,63,2,1
284,6,110,2,1
233,6,357,1,1
26,6,79,2,1
39,6,357,2,1
29,6,210,2,1
148,6,355,2,1
291,6,54,2,1
34,6,235,2,1
106,6,76,2,1
71,6,0,2,1
31,6,35,2,1
179,6,0,2,1
0,6,0,2,1
175,6,54,2,1
180,6,19,2,1
224,6,66,2,1
122,6,0,2,1
69,6,211,2,1
278,6,97,2,1
43,6,245,2,1
101,6,236,2,1
90,6,14,2,1
131,6,0,2,1
96,6,5,2,1
6,6,0,2,1
53,6,216,2,1
172,6,183,2,1
196,6,173,2,1
33,6,216,2,1
23,6,117,2,1
42,6,8,2,1
0,6,20,2,1
28,6,49,2,1
42,6,13,2,1
34,6,31,2,1
2,6,12,2,1
82,6,160,2,1
248,6,58,2,1
81,6,159,2,1
38,6,10,2,1
160,6,204,2,1
113,6,67,2,1
5,6,214,2,1
68,6,45,2,1
65,6,59,2,1
37,6,5,2,1
296,6,137,2,1
66,6,23,2,1
5,6,0,2,1
14,6,0,2,1
53,6,29,2,1
13,6,177,2,1
75,6,9,2,1
21,6,38,2,1
67,6,158,2,1
425,6,136,2,1
205,6,208,2,1
141,6,139,2,1
89,6,183,2,1
33,6,97,2,1
53,6,217,2,1
86,6,46,2,1
46,6,11,2,1
98,6,0,2,1
24,6,80,2,1
190,6,74,2,1
26,6,147,2,1
111,6,68,2,1
15,6,0,2,1
96,6,136,2,1
18,6,184,2,1
159,6,130,2,1
235,6,36,2,1
3,6,103,2,1
87,6,161,2,1
0,6,83,2,1
65,6,151,2,1
125,6,86,2,1
6,6,142,2,1
57,6,227,2,1
223,6,280,2,1
91,6,173,2,1
91,6,76,2,1
5,6,150,2,1
50,6,126,2,1
17,6,82,2,1
18,6,13,2,1
125,6,72,2,1
113,6,46,2,1
99,6,69,2,1
86,6,34,2,1
112,6,34,2,1
61,6,2,2,1
6,6,0,2,1
95,6,18,2,1
27,6,112,2,1
60,6,12,2,1
30,6,192,2,1
2,6,10,2,1
233,6,101,2,1
174,6,85,2,1
41,6,161,2,1
4,6,91,2,1
139,6,35,2,1
227,6,49,2,1
129,6,11,2,1
0,6,11,2,1
93,6,110,2,1
172,6,144,2,1
81,6,17,2,1
219,6,195,2,1
222,6,96,2,1
274,6,0,2,1
61,6,7,2,1
608,6,123,2,1
442,6,5,2,1
70,6,35,2,1
36,6,258,2,1
372,6,355,2,1
80,6,185,2,1
501,6,62,2,1
476,6,224,2,1
127,6,281,2,1
343,6,94,2,1
202,7,455,2,1
425,6,307,2,1
287,6,202,2,1
526,6,215,2,1
42,6,315,2,1
407,6,162,2,1
310,6,231,2,1
465,6,48,2,1
97,6,89,2,1
262,6,232,2,1
145,7,561,2,1
200,6,141,2,1
34,6,239,2,1
190,6,47,2,1
145,6,279,2,1
19,6,413,2,1
279,6,258,2,1
36,6,249,2,1
461,6,315,2,1
228,6,228,2,1
11,7,349,1,1
243,6,241,2,1
196,6,0,2,1
164,6,374,2,1
91,7,724,1,1
107,5,12,2,1
342,6,356,2,1
487,6,65,2,1
109,6,255,2,1
11,6,512,1,1
156,6,298,2,1
150,7,502,2,1
243,6,498,1,1
37,6,20,2,1
89,6,633,2,1
5,6,467,2,1
37,6,280,2,1
135,6,428,1,1
284,6,272,2,1
157,6,30,2,1
55,6,159,2,1
17,6,374,2,1
115,6,47,2,1
320,6,46,2,1
76,6,0,2,1
693,7,305,2,1
361,6,303,2,1
529,6,105,2,1
399,7,524,2,1
523,7,856,1,1
248,5,96,2,1
327,6,59,2,1
184,6,24,2,1
83,6,81,2,1
303,7,421,2,1
4,7,413,2,1
1000,7,461,2,1
270,5,193,2,1
995,7,381,2,1
14,6,357,1,1
593,6,257,2,1
155,5,67,2,1
19,6,38,2,1
26,6,200,2,1
642,6,214,2,1
14,6,254,2,1
624,7,485,1,1
324,6,120,2,1
97,6,0,2,1
453,6,287,2,1
239,6,71,2,1
183,7,833,1,1
26,6,181,2,1
623,6,316,2,1
839,7,617,2,1
427,1023,1023,0,1
256,1023,0,2,1
124,278,725,2,1
23,51,131,2,1
139,7,220,2,1
218,5,404,2,1
49,6,180,2,1
566,6,8,2,1
478,6,186,2,1
357,6,314,2,1
110,6,176,2,1
210,7,574,2,1
263,7,822,1,1
234,5,73,2,1
435,7,943,1,1
408,5,338,2,1
9,6,276,2,1
185,6,546,2,1
266,6,39,2,1
324,7,547,2,1
11,6,384,2,1
198,6,116,2,1
274,5,865,1,1
223,11,1000,2,1
429,924,452,2,1
263,595,382,2,1
1010,121,400,2,1
516,19,412,2,1
312,4,673,1,1
116,6,859,1,1
347,80,215,2,1
371,1023,1023,0,1
770,716,179,2,1
94,259,269,2,1
213,57,878,2,1
43,8,412,2,1
338,5,238,2,1
73,6,90,2,1
218,1023,1023,0,1
1023,99,1022,0,1
244,425,1023,0,1
1023,1023,1023,0,1
630,1023,683,1,1
74,527,701,2,1
310,109,403,2,1
681,16,602,2,1
609,5,759,2,1
59,579,676,2,1
292,847,1023,0,1
692,749,905,2,1
283,482,227,2,1
23,119,1,2,1
423,18,478,2,1
199,5,348,2,1
38,6,575,2,1
324,6,460,2,1
141,6,627,2,1
408,6,554,2,1
456,6,229,2,1
87,6,604,2,1
30,106,1023,2,1
549,5,735,2,1
443,5,124,2,1
326,5,19,2,1
566,6,481,2,1
604,6,314,2,1
940,1023,1023,0,1
663,920,206,2,1
127,214,297,2,1
235,37,114,2,1
272,1023,1023,0,1
902,782,78,2,1
473,1023,1023,0,1
511,1023,876,1,1
48,498,21,2,1
220,104,556,1,1
331,17,35,2,1
109,4,101,2,1
285,6,571,2,1
547,8,1023,1,1
73,114,810,2,1
405,23,654,2,1
180,5,206,2,1
340,6,257,1,1
246,6,447,2,1
30,7,842,1,1
962,1023,1023,0,1
1023,168,366,0,1
381,826,924,2,1
297,186,978,1,1
290,34,183,2,1
153,5,526,2,1
639,381,338,1,1
159,500,956,2,1
9,123,35,2,1
537,1023,1023,0,1
178,624,1023,0,1
321,820,498,2,1
255,194,357,2,1
496,1023,1023,2,1
1023,602,72,2,1
13,137,604,1,1
83,22,77,2,1
53,5,47,2,1
9,6,613,1,1
422,6,452,2,1
323,6,566,2,1
204,6,201,2,1
6,8,1023,2,1
274,5,300,2,1
163,6,249,2,1
235,6,173,2,1
78,6,332,2,1
239,6,103,2,1
14,7,497,1,1
248,6,35,2,1
1,6,43,2,1
101,6,157,2,1
273,6,70,2,1
277,6,83,2,1
158,6,7,2,1
174,6,271,2,1
212,6,192,2,1
33,6,180,2,1
120,6,0,2,1
179,7,379,2,1
235,6,20,2,1
56,6,92,2,1
110,6,339,2,1
249,6,0,2,1
123,6,108,2,1
95,6,102,2,1
271,6,310,2,1
12,6,303,1,1
204,6,182,2,1
283,6,425,1,1
32,6,195,2,1
155,6,99,2,1
126,6,245,2,1
75,6,249,1,1
16,6,127,2,1
78,7,431,2,1
33,6,221,2,1
209,6,244,2,1
26,6,289,2,1
8,7,465,2,1
44,6,380,2,1
480,6,158,2,1
583,6,79,2,1
82,6,41,2,1
117,6,282,2,1
17,6,247,2,1
145,6,99,2,1
549,6,113,2,1
470,6,192,2,1
411,6,138,2,1
200,6,0,2,1
46,6,221,2,1
24,6,53,2,1
78,6,83,2,1
366,6,16,2,1
27,6,97,2,1
256,7,282,2,1
74,6,501,1,1
30,6,58,2,1
49,6,100,2,1
462,6,387,2,1
314,6,48,2,1
135,6,213,2,1
101,6,132,2,1
461,6,103,2,1
196,6,1,2,1
300,6,102,2,1
85,6,176,2,1
192,6,160,2,1
129,6,47,2,1
323,6,512,2,1
86,6,18,2,1
302,6,360,2,1
612,6,147,2,1
199,6,130,2,1
327,6,304,2,1
83,7,796,2,1
16,6,220,2,1
168,6,405,2,1
84,6,39,2,1
11,6,270,2,1
114,6,100,2,1
23,6,115,2,1
17,6,117,2,1
478,7,293,2,1
540,6,325,2,1
340,6,14,2,1
85,6,0,2,1
263,6,109,2,1
167,6,57,2,1
378,6,24,2,1
58,6,314,2,1
103,6,432,2,1
134,6,45,2,1
49,6,151,2,1
331,6,42,2,1
293,6,136,2,1
251,6,310,2,1
274,6,262,2,1
44,6,264,2,1
20,6,169,2,1
190,7,491,2,1
353,6,446,2,1
322,6,85,2,1
110,6,205,2,1
177,6,129,2,1
16,6,121,2,1
271,6,30,2,1
92,6,56,2,1
9,6,38,2,1
14,6,4,2,1
31,6,37,2,1
239,6,263,2,1
119,6,167,2,1
106,6,1,2,1
7,6,190,2,1
186,6,62,2,1
273,6,27,2,1
13,6,23,2,1
439,7,121,2,1
303,6,118,2,1
150,6,0,2,1
213,6,114,2,1
106,7,396,2,1
332,6,6,2,1
244,6,84,2,1
134,6,88,2,1
62,6,132,2,1
127,6,0,2,1
148,6,86,2,1
184,6,109,2,1
42,6,47,2,1
26,7,169,2,1
46,6,135,2,1
143,6,154,2,1
204,6,284,2,1
76,6,13,2,1
206,7,770,2,1
119,6,91,2,1
141,6,88,2,1
317,6,259,2,1
38,6,166,2,1
105,6,109,2,1
46,6,0,2,1
70,6,12,2,1
274,6,80,2,1
127,6,124,2,1
24,6,51,2,1
176,6,270,2,1
207,6,9,2,1
162,6,181,2,1
38,6,67,2,1
26,6,3,2,1
379,6,0,2,1
20,6,74,2,1
70,6,134,2,1
4,6,0,2,1
26,6,4,2,1
5,6,1,2,1
39,6,0,2,1
221,6,0,2,1
65,6,186,2,1
149,6,9,2,1
138,6,171,2,1
139,6,18,2,1
159,6,86,2,1
83,6,43,2,1
120,6,134,2,1
175,6,145,2,1
111,6,39,2,1
79,6,111,2,1
40,6,52,2,1
182,6,152,2,1
104,6,73,2,1
123,6,43,2,1
221,6,213,2,1
95,6,41,2,1
80,6,42,2,1
81,6,36,2,1
4,6,0,2,1
58,6,52,2,1
29,6,73,2,1
46,6,0,2,1
5,6,130,2,1
46,6,52,2,1
137,6,165,2,1
106,6,40,2,1
183,6,7,2,1
200,6,97,2,1
99,6,34,2,1
172,6,89,2,1
83,6,0,2,1
62,6,14,2,1
22,6,53,2,1
60,6,123,2,1
63,6,114,2,1
67,6,0,2,1
150,6,76,2,1
94,6,65,2,1
60,6,131,2,1
2,6,56,2,1
108,6,212,2,1
175,6,74,2,1
23,6,208,2,1
228,6,203,2,1
289,6,263,2,1
68,6,125,2,1
9,6,27,2,1
6,6,166,2,1
102,6,107,2,1
240,6,223,2,1
63,6,0,2,1
92,6,30,2,1
51,6,10,2,1
37,6,162,2,1
153,6,0,2,1
61,6,0,2,1
145,6,72,2,1
38,6,9,2,1
33,6,0,2,1
79,6,99,2,1
5,6,6,2,1
68,6,131,2,1
11,6,30,2,1
0,6,127,2,1
78,6,91,2,1
148,6,20,2,1
28,6,91,2,1
294,6,275,2,1
51,6,43,2,1
248,6,292,2,1
24,6,19,2,1
89,6,85,2,1
141,6,85,2,1
125,6,0,2,1
9,6,74,2,1
104,6,54,2,1
58,6,13,2,1
17,6,149,2,1
31,6,67,2,1
8,6,0,2,1
11,6,63,2,1
108,6,0,2,1
113,6,52,2,1
31,6,76,2,1
129,6,129,2,1
213,7,160,2,1
98,6,33,2,1
268,6,113,2,1
49,6,7,2,1
237,6,73,2,1
275,6,33,2,1
7,6,100,2,1
385,6,179,2,1
132,6,3,2,1
61,6,243,2,1
144,6,91,2,1
1,6,369,2,1
78,6,122,2,1
375,6,215,2,1
188,6,45,2,1
111,6,114,2,1
38,6,50,2,1
213,7,439,2,1
345,6,201,2,1
303,6,260,2,1
22,6,65,2,1
263,6,349,2,1
127,6,39,2,1
74,6,310,2,1
119,6,214,2,1
357,6,72,2,1
729,7,310,1,1
237,6,196,2,1
181,6,233,2,1
291,6,299,2,1
89,6,70,2,1
203,7,629,2,1
448,6,72,2,1
19,6,416,2,1
50,6,67,2,1
212,6,475,2,1
170,6,352,2,1
411,6,362,2,1
32,6,467,2,1
525,6,294,2,1
9,6,114,2,1
242,6,0,2,1
132,6,36,2,1
185,6,168,2,1
74,6,2,2,1
488,6,141,2,1
198,7,696,1,1
107,6,471,1,1
410,6,163,2,1
389,6,136,2,1
6,6,104,2,1
609,6,228,2,1
39,7,673,2,1
41,6,451,2,1
754,7,386,2,1
39,6,581,2,1
17,6,298,1,1
620,7,586,1,1
912,7,557,2,1
257,6,332,2,1
286,6,70,2,1
20,6,403,2,1
228,6,167,2,1
390,6,37,2,1
155,6,1,2,1
79,6,346,2,1
177,6,234,2,1
594,6,157,2,1
280,6,284,1,1
122,6,153,2,1
600,6,63,2,1
253,6,122,2,1
449,6,128,2,1
39,6,73,2,1
341,7,445,2,1
318,6,518,2,1
211,6,201,2,1
199,7,605,2,1
105,7,917,2,1
53,5,182,2,1
122,7,585,2,1
171,7,928,2,1
278,5,252,2,1
214,7,791,2,1
502,5,206,2,1
756,6,48,2,1
219,6,363,2,1
13,6,270,2,1
156,6,348,2,1
401,6,237,2,1
516,6,125,2,1
279,7,653,2,1
700,277,758,2,1
562,131,556,2,1
27,22,165,2,1
175,5,717,2,1
991,5,616,2,1
138,5,297,2,1
426,6,206,2,1
231,6,0,2,1
469,7,583,2,1
35,913,636,2,1
55,450,1023,2,1
492,117,9,2,1
34,19,11,2,1
436,5,204,2,1
307,5,198,2,1
476,7,696,2,1
373,5,43,2,1
1023,1023,13,0,1
473,812,256,2,1
352,213,137,2,1
31,36,368,1,1
262,5,302,2,1
113,5,503,2,1
19,6,408,2,1
633,7,645,2,1
485,7,538,2,1
566,6,274,1,1
255,6,24,2,1
63,6,293,2,1
287,6,544,2,1
314,6,95,2,1
167,6,28,2,1
225,106,988,2,1
582,647,1023,0,1
775,1023,42,2,1
391,409,324,2,1
23,79,225,2,1
354,10,501,2,1
322,5,498,1,1
366,6,116,2,1
130,7,963,1,1
156,878,99,2,1
602,714,1023,0,1
762,360,1023,0,1
835,527,466,1,1
48,112,48,2,1
64,17,306,2,1
360,5,700,1,1
138,5,175,2,1
26,6,296,2,1
398,7,982,1,1
21,5,135,2,1
158,8,982,1,1
374,5,337,2,1
108,6,347,2,1
465,8,968,1,1
324,6,426,1,1
129,170,750,2,1
1023,1023,530,0,1
430,714,116,2,1
261,155,104,2,1
10,25,20,2,1
281,5,265,2,1
107,5,0,2,1
424,6,188,2,1
718,1023,1023,0,1
437,707,1023,0,1
1023,1023,367,2,1
311,146,1023,1,1
17,559,433,2,1
145,116,416,2,1
496,18,28,2,1
12,5,606,2,1
383,5,337,2,1
33,1023,1023,0,1
600,263,1023,0,1
330,1023,144,2,1
173,255,1023,1,1
72,1023,1023,1,1
70,1023,776,2,1
279,659,1023,0,1
21,673,677,2,1
110,148,256,2,1
392,24,409,2,1
271,5,193,2,1
68,6,952,1,1
213,765,981,2,1
736,434,67,2,1
110,93,632,2,1
917,13,0,2,1
563,5,179,2,1
40,5,187,2,1
139,6,94,2,1
272,6,253,2,1
578,7,540,1,1
160,19,1023,2,1
806,45,727,2,1
148,13,340,2,1
76,5,930,2,1
473,5,690,2,1
652,478,56,2,1
198,313,226,2,1
516,57,643,2,1
356,7,467,1,1
165,5,668,2,1
613,6,445,2,1
764,6,118,2,1
244,130,355,2,1
7,35,329,2,1
22,5,515,2,1
268,5,217,2,1
184,6,281,2,1
26,7,736,2,1
239,6,130,1,1
36,6,189,2,1
402,7,565,2,1
16,6,170,2,1
59,6,429,1,1
335,6,13,2,1
154,6,114,2,1
338,7,663,2,1
1023,127,28,1,1
159,45,543,2,1
845,7,0,2,1
439,5,233,2,1
69,6,520,2,1
206,6,331,2,1
138,6,536,1,1
300,6,60,2,1
62,6,390,2,1
55,6,114,2,1
69,6,0,2,1
206,6,479,2,1
319,6,266,2,1
70,6,393,2,1
63,6,60,2,1
116,6,122,2,1
17,6,68,2,1
66,6,98,2,1
45,6,215,2,1
1,6,121,1,1
36,7,420,2,1
181,6,86,2,1
76,6,227,2,1
145,6,107,2,1
174,6,76,2,1
158,6,82,2,1
59,7,271,2,1
222,6,9,2,1
529,6,135,2,1
83,6,37,2,1
80,6,158,2,1
20,6,106,2,1
27,6,179,2,1
96,6,159,2,1
116,6,334,2,1
404,6,354,2,1
99,6,135,2,1
171,6,313,2,1
211,6,181,2,1
119,6,43,2,1
68,6,427,2,1
230,6,156,2,1
40,6,183,2,1
63,6,24,2,1
203,6,414,2,1
145,7,403,2,1
473,6,161,2,1
68,6,37,2,1
130,6,53,2,1
84,6,14,2,1
167,6,130,2,1
290,6,222,2,1
581,6,65,2,1
279,6,148,2,1
153,6,23,2,1
134,7,330,2,1
311,6,299,2,1
95,7,501,1,1
12,6,33,2,1
265,6,204,1,1
25,6,276,2,1
388,6,70,2,1
545,6,165,2,1
1023,16,82,2,1
492,5,134,2,1
129,6,10,2,1
465,6,304,2,1
130,6,207,2,1
576,6,182,2,1
214,6,219,2,1
223,6,61,2,1
252,7,492,2,1
377,6,123,2,1
616,6,187,2,1
8,6,68,2,1
338,6,28,2,1
89,6,391,2,1
55,6,15,2,1
236,7,382,2,1
172,6,71,2,1
129,6,127,2,1
509,6,138,2,1
881,7,23,2,1
84,6,275,2,1
769,6,308,2,1
145,6,12,2,1
65,6,88,2,1
243,6,130,2,1
6,6,0,2,1
56,6,80,2,1
321,6,192,2,1
130,7,638,2,1
197,6,66,2,1
190,6,241,2,1
203,6,213,2,1
101,6,140,2,1
436,7,426,1,1
287,6,246,2,1
114,6,84,2,1
291,6,272,2,1
36,6,212,2,1
347,6,129,2,1
184,6,316,2,1
272,6,76,2,1
169,6,200,2,1
48,6,491,2,1
30,6,192,2,1
268,6,365,2,1
65,6,2,2,1
258,6,212,2,1
51,6,23,2,1
100,6,79,2,1
311,6,15,2,1
66,6,8,2,1
318,6,149,2,1
8,6,0,2,1
61,6,0,2,1
59,6,213,2,1
181,6,92,2,1
424,6,127,2,1
385,6,0,2,1
98,6,0,2,1
309,7,246,2,1
263,6,126,2,1
87,6,28,2,1
311,6,64,2,1
119,6,95,2,1
421,6,7,2,1
54,6,162,2,1
16,6,243,2,1
9,6,28,2,1
247,6,327,2,1
81,6,47,2,1
19,6,224,2,1
30,6,269,2,1
75,6,19,2,1
16,6,43,2,1
15,6,50,2,1
20,6,185,2,1
34,6,132,2,1
126,6,62,2,1
19,6,93,2,1
74,6,0,2,1
31,6,0,2,1
101,6,110,2,1
50,6,0,2,1
51,6,0,2,1
101,6,44,2,1
2,6,63,2,1
38,6,70,2,1
0,6,79,2,1
121,6,108,2,1
290,6,157,2,1
41,6,0,2,1
226,6,92,2,1
176,6,3,2,1
241,6,60,2,1
113,6,13,2,1
171,6,17,2,1
26,6,106,2,1
66,6,124,2,1
31,6,0,2,1
3,6,3,2,1
64,6,3,2,1
32,6,36,2,1
1,6,27,2,1
37,6,96,2,1
27,6,134,2,1
126,6,113,2,1
13,6,3,2,1
27,6,167,2,1
25,6,103,2,1
146,6,77,2,1
45,6,86,2,1
188,6,153,2,1
266,6,47,2,1
24,6,40,2,1
39,6,62,2,1
45,6,96,2,1
159,6,154,2,1
156,6,63,2,1
34,6,44,2,1
77,6,25,2,1
17,6,101,2,1
55,6,2,2,1
141,6,45,2,1
26,6,25,2,1
38,6,116,2,1
174,6,13,2,1
277,6,117,2,1
19,6,45,2,1
8,6,106,2,1
55,6,50,2,1
28,6,10,2,1
83,6,235,2,1
66,6,125,2,1
62,6,33,2,1
41,6,174,2,1
158,6,63,2,1
124,6,0,2,1
98,6,106,2,1
75,6,64,2,1
45,6,151,2,1
83,6,171,2,1
126,6,9,2,1
13,6,130,2,1
20,6,34,2,1
30,6,215,2,1
329,6,0,2,1
460,7,459,2,1
123,6,15,2,1
334,6,60,2,1
154,6,138,2,1
38,6,17,2,1
36,6,89,2,1
15,6,19,2,1
56,6,152,2,1
4,6,49,2,1
298,6,44,2,1
101,6,21,2,1
11,6,80,2,1
159,6,5,2,1
237,6,115,2,1
185,6,227,2,1
232,6,186,2,1
111,6,118,2,1
312,6,289,2,1
5,6,4,2,1
121,6,293,2,1
44,6,189,2,1
462,6,131,2,1
46,6,62,2,1
261,7,256,2,1
625,6,115,2,1
23,7,342,2,1
203,6,213,2,1
80,7,324,2,1
333,6,265,2,1
14,6,0,2,1
21,6,154,2,1
114,6,261,2,1
604,6,22,2,1
67,6,178,2,1
522,6,47,2,1
328,6,112,2,1
173,6,381,2,1
26,6,105,2,1
523,6,353,2,1
90,6,185,2,1
408,6,141,2,1
47,6,445,2,1
694,6,55,2,1
145,6,357,2,1
179,6,151,2,1
82,6,44,2,1
7,6,418,2,1
287,7,647,2,1
495,6,571,2,1
222,6,12,2,1
319,6,381,2,1
17,6,238,2,1
632,7,806,2,1
566,5,99,2,1
207,7,902,1,1
261,5,246,2,1
585,7,863,1,1
129,5,136,2,1
268,6,549,2,1
59,6,142,2,1
114,6,400,2,1
236,7,559,2,1
73,6,347,2,1
424,6,257,2,1
100,6,344,2,1
51,6,205,2,1
890,7,255,2,1
201,5,214,2,1
840,7,374,2,1
55,6,55,2,1
119,6,46,2,1
49,6,0,2,1
78,6,223,2,1
218,6,203,2,1
341,6,101,2,1
98,6,264,2,1
179,6,127,2,1
180,6,62,2,1
55,6,282,2,1
499,7,664,2,1
356,5,330,2,1
117,6,427,2,1
70,7,676,1,1
107,6,476,1,1
194,7,649,1,1
206,5,318,2,1
147,6,417,2,1
30,6,566,2,1
670,7,938,2,1
335,6,397,2,1
175,6,570,2,1
11,6,203,2,1
368,6,238,2,1
87,7,690,2,1
234,6,409,2,1
19,6,649,2,1
847,7,200,2,1
752,6,186,2,1
132,5,322,2,1
349,6,428,2,1
529,6,51,2,1
234,6,395,2,1
63,6,34,2,1
227,6,331,2,1
397,6,396,2,1
477,6,43,2,1
189,6,469,1,1
400,6,410,1,1
452,17,884,1,1
335,5,1023,2,1
206,5,170,2,1
2,5,34,2,1
247,7,638,1,1
637,6,394,2,1
656,7,571,2,1
207,6,866,1,1
268,139,145,2,1
200,1023,1023,0,1
708,443,1023,0,1
833,954,714,1,1
92,743,182,2,1
68,230,234,2,1
222,41,360,2,1
29,5,803,2,1
45,5,499,2,1
611,1023,1023,0,1
1023,1023,96,2,1
457,628,49,2,1
353,141,234,2,1
311,23,164,2,1
311,4,945,1,1
212,6,895,2,1
245,7,914,1,1
384,6,923,1,1
166,5,34,2,1
570,6,315,2,1
217,6,242,2,1
24,6,179,2,1
414,6,208,2,1
20,6,55,2,1
208,6,289,2,1
9,7,566,2,1
134,6,372,2,1
43,6,269,2,1
562,7,424,2,1
125,6,132,2,1
391,6,553,1,1
84,6,471,2,1
529,6,5,2,1
156,6,9,2,1
241,6,529,2,1
127,6,592,2,1
560,6,477,2,1
204,1023,936,0,1
310,811,1023,0,1
227,712,1023,2,1
782,575,784,1,1
321,700,1023,0,1
1023,995,171,0,1
686,462,105,2,1
106,99,380,2,1
84,14,818,1,1
225,537,422,2,1
197,572,791,2,1
36,119,586,2,1
312,18,744,2,1
663,6,609,2,1
430,5,622,2,1
1023,1023,1023,0,1
216,1023,744,1,1
58,305,128,2,1
59,1023,1023,0,1
1023,1023,1023,1,1
631,368,116,2,1
297,68,662,2,1
867,12,652,1,1
447,5,577,2,1
608,6,528,2,1
18,6,392,2,1
489,6,168,2,1
228,6,177,2,1
85,7,835,1,1
257,6,334,2,1
62,6,55,2,1
396,6,413,2,1
460,6,445,2,1
824,6,302,2,1
40,6,213,2,1
600,5,75,2,1
158,7,816,1,1
157,6,756,2,1
26,6,326,2,1
218,7,624,1,1
213,6,373,2,1
54,6,352,1,1
382,6,197,2,1
716,1023,1023,0,1
14,778,977,2,1
210,193,197,2,1
597,33,187,2,1
405,56,490,1,1
431,38,236,2,1
257,6,55,2,1
159,5,326,2,1
7,6,320,2,1
77,6,337,1,1
90,6,396,2,1
556,7,578,1,1
473,6,195,2,1
208,6,470,1,1
546,7,747,1,1
63,1023,1023,0,1
645,721,683,2,1
812,1023,1023,0,1
750,1023,60,2,1
118,342,400,2,1
157,65,379,2,1
38,9,276,2,1
567,5,89,2,1
586,6,201,2,1
141,6,129,2,1
125,6,377,2,1
185,6,3,2,1
33,7,577,2,1
250,6,212,2,1
81,6,234,2,1
66,6,29,2,1
33,7,684,2,1
58,5,37,2,1
249,6,187,2,1
1,6,50,2,1
422,7,496,2,1
50,6,249,2,1
360,6,185,2,1
96,6,244,2,1
269,6,24,2,1
53,6,150,2,1
304,6,119,2,1
119,7,591,2,1
230,6,88,2,1
87,7,603,2,1
693,6,73,2,1
26,6,54,2,1
89,6,9,2,1
76,6,220,2,1
22,6,162,2,1
216,7,558,2,1
70,6,158,2,1
213,6,193,2,1
518,6,34,2,1
174,7,425,2,1
71,7,741,1,1
140,5,94,2,1
121,6,224,2,1
320,6,263,2,1
320,6,177,2,1
347,6,178,2,1
90,7,588,2,1
355,6,33,2,1
77,6,0,2,1
26,6,16,2,1
12,7,697,2,1
365,6,37,2,1
246,7,388,2,1
217,6,128,2,1
38,6,199,2,1
324,6,543,2,1
844,6,324,2,1
488,5,41,2,1
354,6,149,2,1
62,6,419,2,1
371,6,197,2,1
542,6,19,2,1
410,6,16,2,1
413,6,343,2,1
1023,1023,597,0,1
960,783,628,2,1
608,757,43,2,1
266,310,901,1,1
160,60,380,2,1
18,8,106,2,1
215,5,163,2,1
12,6,473,2,1
104,6,218,2,1
764,7,354,2,1
343,6,82,2,1
222,6,182,2,1
346,6,146,2,1
93,6,449,2,1
326,6,285,2,1
44,6,95,2,1
136,6,13,2,1
22,6,132,2,1
23,6,101,2,1
428,6,39,2,1
113,6,238,2,1
122,6,161,2,1
438,6,138,2,1
157,6,268,2,1
202,6,304,2,1
262,6,45,2,1
312,6,61,2,1
67,7,369,1,1
70,6,125,2,1
504,7,261,1,1
298,6,62,2,1
142,6,122,2,1
284,6,309,1,1
63,6,297,2,1
884,6,275,2,1
103,6,196,2,1
33,6,363,2,2
19,6,49,2,2
192,6,245,2,2
124,6,103,2,2
112,6,0,2,2
446,6,6,2,2
8,6,63,2,2
173,6,315,2,2
213,6,553,2,2
292,6,0,2,2
47,6,411,2,2
70,6,437,1,2
142,6,88,2,2
404,6,126,2,2
34,6,230,2,2
77,6,424,2,2
766,6,150,2,2
267,6,312,2,2
641,6,50,2,2
229,7,520,2,2
22,6,159,2,2
210,6,71,2,2
61,6,8,2,2
76,6,271,2,2
67,6,12,2,2
99,6,0,2,2
68,6,2,2,2
93,6,148,2,2
101,6,120,2,2
50,6,371,2,2
196,6,60,2,2
186,7,656,2,2
110,6,42,2,2
165,6,129,2,2
264,6,194,2,2
121,6,207,2,2
719,7,358,2,2
8,6,42,2,2
300,6,11,2,2
51,6,45,2,2
122,6,231,2,2
63,6,58,2,2
126,6,124,2,2
0,6,10,2,2
46,6,0,2,2
7,6,93,2,2
158,6,106,2,2
156,6,47,2,2
144,6,79,2,2
2,6,130,2,2
22,6,173,2,2
135,7,286,2,2
322,6,36,2,2
86,6,71,2,2
292,6,0,2,2
141,6,113,2,2
0,6,93,2,2
86,6,14,2,2
0,6,1,2,2
101,6,147,2,2
1,6,136,2,2
35,6,94,2,2
55,6,183,1,2
99,6,16,2,2
88,6,118,2,2
14,6,243,2,2
138,6,36,2,2
40,6,286,2,2
154,6,178,2,2
32,6,110,2,2
206,6,137,2,2
37,6,41,2,2
41,6,43,2,2
24,6,71,2,2
123,6,0,2,2
72,6,0,2,2
0,6,124,2,2
0,6,118,2,2
44,6,11,2,2
16,6,0,2,2
1,6,19,2,2
11,6,36,2,2
122,6,0,2,2
85,6,81,2,2
6,6,16,2,2
144,6,53,2,2
4,6,181,2,2
311,6,204,2,2
265,6,195,2,2
94,6,148,2,2
30,6,7,2,2
85,6,239,2,2
6,6,39,2,2
55,6,0,2,2
66,6,51,2,2
134,6,58,2,2
93,6,5,2,2
0,6,48,2,2
61,6,0,2,2
7,6,0,2,2
5,6,6,2,2
48,6,76,2,2
116,6,0,2,2
9,6,109,2,2
178,6,0,2,2
106,6,187,2,2
100,6,99,2,2
1,6,354,1,2
83,6,79,2,2
58,6,10,2,2
11,6,12,2,2
94,6,58,2,2
69,6,62,2,2
131,6,7,2,2
97,6,41,2,2
94,6,38,2,2
191,6,90,2,2
115,6,35,2,2
51,6,93,2,2
39,6,70,2,2
320,6,114,2,2
127,7,239,2,2
83,6,0,2,2
64,6,0,2,2
349,6,18,2,2
98,6,230,2,2
179,6,7,2,2
66,6,64,2,2
68,6,107,2,2
83,6,51,2,2
24,6,57,2,2
67,6,55,2,2
222,6,22,2,2
226,6,172,2,2
60,6,46,2,2
111,6,183,2,2
20,6,151,2,2
0,6,136,2,2
33,6,195,2,2
144,6,122,2,2
349,6,300,2,2
155,6,304,2,2
38,6,176,2,2
15,6,358,2,2
96,6,335,2,2
97,6,181,2,2
62,6,199,2,2
9,6,20,2,2
66,6,102,2,2
21,6,65,2,2
417,6,140,2,2
51,6,66,2,2
716,7,91,2,2
1023,7,111,2,2
410,785,213,2,2
322,303,396,2,2
211,56,93,2,2
191,7,303,2,2
27,5,504,2,2
448,6,321,2,2
32,6,253,2,2
549,6,7,2,2
2,6,0,2,2
253,6,67,2,2
58,6,67,2,2
155,6,110,2,2
21,6,55,2,2
600,7,275,2,2
140,6,192,2,2
99,6,120,2,2
367,6,5,2,2
47,7,409,2,2
265,6,217,2,2
65,6,196,2,2
211,6,162,2,2
299,6,111,2,2
243,6,263,2,2
149,6,39,2,2
230,7,347,1,2
306,6,356,2,2
65,6,75,2,2
278,6,130,2,2
606,7,547,2,2
159,6,97,2,2
300,7,762,2,2
392,6,305,2,2
32,6,447,2,2
192,6,265,2,2
50,7,597,2,2
93,6,567,2,2
618,6,39,2,2
489,6,117,2,2
786,6,451,2,2
360,7,1023,2,2
162,5,176,2,2
1023,415,712,0,2
74,122,0,2,2
27,21,419,1,2
619,5,161,2,2
421,5,191,2,2
367,6,402,2,2
580,951,95,2,2
615,606,491,1,2
41,127,0,2,2
303,19,235,2,2
69,4,238,2,2
217,6,394,2,2
184,7,673,2,2
830,7,674,2,2
12,5,422,2,2
656,6,133,2,2
467,7,559,2,2
55,6,684,1,2
94,6,573,1,2
338,6,418,2,2
128,7,1023,2,2
840,936,165,2,2
188,427,760,2,2
1023,1023,553,0,2
170,202,932,2,2
748,39,445,2,2
338,6,441,2,2
594,5,139,2,2
477,6,511,1,2
126,6,135,2,2
67,7,946,1,2
369,6,785,2,2
1,74,283,2,2
47,16,134,2,2
399,5,1023,1,2
230,739,99,2,2
593,902,1023,0,2
228,488,918,1,2
103,102,224,2,2
874,13,678,2,2
752,5,633,2,2
55,5,113,2,2
233,6,722,1,2
385,5,13,2,2
167,6,495,2,2
271,7,532,1,2
447,6,466,2,2
200,6,264,2,2
810,7,519,2,2
158,6,277,1,2
661,6,523,2,2
358,5,73,2,2
850,1023,243,0,2
1023,485,37,2,2
223,102,98,2,2
521,14,198,2,2
372,5,141,2,2
45,6,345,2,2
637,7,284,2,2
434,6,7,2,2
16,6,0,2,2
48,6,97,2,2
213,7,667,2,2
365,6,305,2,2
205,1023,1023,0,2
942,912,8,2,2
414,219,807,1,2
613,37,493,2,2
466,5,685,1,2
14,6,800,2,2
186,5,67,2,2
559,6,542,2,2
241,6,455,2,2
335,6,291,2,2
225,6,233,2,2
495,7,750,2,2
191,6,464,2,2
661,8,1023,2,2
209,32,466,2,2
1,1023,1023,0,2
622,1023,871,1,2
328,250,1023,0,2
490,651,1023,0,2
341,543,111,2,2
798,118,262,2,2
144,98,1023,1,2
124,40,782,2,2
602,7,503,2,2
417,5,217,2,2
10,7,1023,1,2
237,6,633,1,2
1023,171,315,0,2
850,782,117,2,2
681,642,601,2,2
152,167,903,1,2
447,49,922,1,2
537,9,134,2,2
4,5,564,1,2
620,6,657,1,2
547,175,165,2,2
6,1023,1023,0,2
850,816,948,2,2
1023,254,112,2,2
633,63,11,2,2
191,9,126,2,2
246,5,469,2,2
529,6,357,2,2
214,7,647,2,2
689,7,827,2,2
747,6,284,2,2
349,6,254,2,2
672,7,732,1,2
601,1023,977,0,2
271,534,1023,0,2
1009,1023,177,2,2
183,578,684,2,2
399,167,738,1,2
188,29,141,2,2
233,5,430,2,2
0,5,205,2,2
251,6,360,2,2
77,6,182,2,2
196,6,241,2,2
282,6,200,2,2
63,7,557,2,2
164,7,437,2,2
175,6,51,2,2
502,6,134,2,2
652,6,90,2,2
362,6,315,2,2
331,6,265,2,2
528,7,604,2,2
27,6,192,2,2
175,6,67,2,2
34,6,175,2,2
599,7,220,2,2
73,6,8,2,2
322,7,388,2,2
5,6,12,2,2
367,6,32,2,2
457,6,139,2,2
170,6,235,2,2
322,6,371,1,2
20,6,142,2,2
280,6,235,2,2
322,6,28,2,2
382,6,208,2,2
4,6,401,2,2
183,6,353,2,2
287,6,317,2,2
11,7,683,2,2
199,6,157,2,2
132,7,530,1,2
858,6,52,2,2
255,6,457,1,2
380,6,446,2,2
196,7,847,1,2
224,5,93,2,2
174,6,314,2,2
350,7,893,2,2
394,5,61,2,2
79,7,756,2,2
164,5,14,2,2
88,6,361,2,2
346,6,445,2,2
599,6,1,2,2
1,6,150,2,2
233,189,1023,0,2
809,66,575,1,2
26,11,258,2,2
825,5,120,2,2
212,6,222,2,2
372,6,368,2,2
217,6,77,2,2
265,6,181,2,2
169,6,242,2,2
694,6,11,2,2
26,6,658,2,2
206,6,91,2,2
98,6,6,2,2
21,6,169,2,2
88,6,0,2,2
123,6,218,2,2
178,6,194,2,2
49,6,355,2,2
68,6,40,2,2
26,6,57,2,2
103,6,401,2,2
258,6,99,2,2
133,7,472,1,2
190,6,343,2,2
26,6,11,2,2
262,6,382,2,2
214,6,68,2,2
76,6,432,2,2
483,6,385,2,2
312,8,990,2,2
213,5,411,2,2
518,6,537,2,2
32,6,635,1,2
726,6,264,2,2
126,6,622,1,2
477,6,290,2,2
233,6,676,2,2
377,5,0,2,2
495,6,35,2,2
60,6,149,2,2
201,7,637,2,2
20,6,265,2,2
61,6,82,2,2
313,7,329,2,2
195,6,364,2,2
746,6,15,2,2
635,6,515,2,2
486,6,627,2,2
32,6,198,2,2
242,6,255,2,2
60,6,32,2,2
191,6,389,2,2
259,6,280,2,2
302,6,5,2,2
84,6,42,2,2
56,7,688,1,2
411,6,133,2,2
609,8,1002,2,2
397,5,41,2,2
3,8,1023,1,2
112,5,439,2,2
93,7,577,2,2
301,6,366,2,2
26,6,73,2,2
47,6,119,2,2
50,6,32,2,2
247,6,359,2,2
82,6,68,2,2
55,6,54,2,2
125,6,228,2,2
433,7,624,1,2
376,6,675,2,2
369,6,343,2,2
155,6,163,2,2
11,6,11,2,2
89,6,0,2,2
46,7,368,2,2
481,6,59,2,2
64,6,140,2,2
423,6,52,2,2
383,6,195,2,2
142,6,41,2,2
39,6,189,2,2
79,6,184,2,2
223,6,46,2,2
89,6,204,2,2
241,6,290,2,2
3,6,64,2,2
203,6,108,2,2
159,6,0,2,2
68,6,0,2,2
53,6,3,2,2
183,6,258,2,2
563,6,107,2,2
6,6,210,2,2
634,6,6,2,2
6,6,281,2,2
98,6,106,2,2
16,6,32,2,2
156,6,238,2,2
1,6,142,2,2
377,6,222,2,2
359,6,310,1,2
267,6,236,2,2
258,6,54,2,2
113,6,32,2,2
120,6,358,2,2
245,6,32,2,2
3,6,187,2,2
65,6,28,2,2
49,6,118,2,2
2,6,14,2,2
10,6,147,2,2
445,6,346,2,2
1,6,33,2,2
463,6,184,2,2
2,6,26,2,2
60,6,0,2,2
78,6,160,2,2
3,6,145,2,2
81,6,120,2,2
83,6,150,2,2
28,6,207,2,2
64,6,0,2,2
188,6,147,2,2
266,6,37,2,2
69,6,104,2,2
28,6,29,2,2
59,6,73,2,2
2,6,142,2,2
23,6,0,2,2
68,6,247,2,2
18,6,82,2,2
168,6,65,2,2
136,6,20,2,2
88,6,78,2,2
170,6,122,2,2
49,6,248,2,2
291,6,124,2,2
6,6,285,2,2
264,6,37,2,2
54,6,221,2,2
50,6,169,2,2
8,6,41,2,2
54,6,132,2,2
50,6,26,2,2
7,6,99,2,2
2,6,85,2,2
42,6,10,2,2
267,6,268,2,2
67,6,34,2,2
147,6,24,2,2
17,6,48,2,2
32,6,14,2,2
16,6,41,2,2
7,6,82,2,2
108,6,41,2,2
17,6,4,2,2
51,6,86,2,2
1,6,179,2,2
26,6,46,2,2
180,6,34,2,2
278,6,148,2,2
162,6,0,2,2
27,6,65,2,2
22,6,22,2,2
133,6,0,2,2
119,6,155,2,2
1,6,0,2,2
4,6,139,2,2
168,6,154,2,2
225,6,3,2,2
143,6,127,2,2
2,6,62,2,2
0,6,4,2,2
58,6,168,2,2
182,6,24,2,2
2,6,90,2,2
27,6,33,2,2
64,6,28,2,2
97,6,164,2,2
109,6,107,2,2
189,6,129,2,2
90,6,133,2,2
38,6,154,2,2
70,6,35,2,2
14,6,95,2,2
114,6,36,2,2
81,6,42,2,2
23,6,46,2,2
1,6,0,2,2
82,6,0,2,2
67,6,0,2,2
44,6,8,2,2
87,6,30,2,2
135,6,85,2,2
116,6,106,2,2
295,6,158,2,2
88,6,232,2,2
56,6,242,2,2
29,6,11,2,2
56,6,2,2,2
60,7,254,2,2
452,6,3,2,2
169,6,243,2,2
215,6,14,2,2
237,6,40,2,2
42,6,10,2,2
54,6,53,2,2
162,6,16,2,2
42,6,0,2,2
58,6,1,2,2
46,6,100,2,2
197,6,59,2,2
184,6,0,2,2
271,6,58,2,2
385,6,0,2,2
148,6,4,2,2
193,6,15,2,2
71,6,89,2,2
119,6,102,2,2
163,6,43,2,2
69,6,168,2,2
57,6,163,2,2
107,6,140,2,2
14,6,47,2,2
178,6,173,2,2
79,6,0,2,2
20,6,144,2,2
55,6,28,2,2
95,6,74,2,2
48,6,216,2,2
99,6,42,2,2
36,6,0,2,2
285,6,0,2,2
50,6,0,2,2
61,6,273,2,2
57,6,135,2,2
172,6,52,2,2
98,6,51,2,2
212,6,263,2,2
626,6,206,2,2
361,6,165,2,2
525,6,310,2,2
208,6,3,2,2
336,7,628,1,2
594,6,382,2,2
5,6,189,2,2
298,6,6,2,2
226,6,102,2,2
114,6,221,2,2
697,7,26,2,2
756,6,101,2,2
61,6,263,2,2
381,6,0,2,2
241,6,188,2,2
108,6,181,2,2
95,6,0,2,2
420,7,147,2,2
504,6,0,2,2
290,6,403,2,2
533,6,17,2,2
246,6,0,2,2
14,6,12,2,2
544,6,128,2,2
551,6,271,2,2
361,6,442,2,2
568,6,211,2,2
524,6,57,2,2
426,6,38,2,2
350,6,0,2,2
300,6,1,2,2
155,7,633,2,2
561,6,527,2,2
196,5,43,2,2
85,5,796,2,2
549,5,34,2,2
481,7,599,2,2
119,6,123,2,2
440,6,72,2,2
104,6,95,2,2
234,6,155,2,2
51,7,518,2,2
584,6,240,2,2
283,6,276,2,2
466,7,343,1,2
92,6,405,2,2
685,6,78,2,2
713,6,201,2,2
1023,1023,358,0,2
623,1023,317,2,2
985,268,221,2,2
181,49,460,2,2
351,7,328,2,2
245,5,0,2,2
555,6,161,2,2
196,6,63,2,2
328,6,151,2,2
472,6,309,2,2
281,6,214,2,2
306,6,232,2,2
372,8,986,1,2
458,6,663,2,2
385,6,552,2,2
861,6,552,1,2
159,6,351,2,2
588,7,622,2,2
52,6,260,2,2
17,7,717,2,2
202,5,1023,1,2
560,5,70,2,2
83,6,180,2,2
230,4,139,2,2
218,6,164,2,2
783,6,66,2,2
583,6,72,2,2
119,6,269,2,2
78,7,712,1,2
615,7,389,2,2
464,6,594,2,2
39,5,300,2,2
266,6,317,2,2
99,6,489,2,2
460,1023,969,0,2
699,187,1023,0,2
819,669,636,1,2
322,162,294,2,2
190,27,114,2,2
360,4,289,2,2
621,5,365,2,2
42,6,291,2,2
4,6,191,2,2
211,1023,1023,0,2
964,655,875,2,2
449,315,299,2,2
588,80,1019,1,2
1023,1023,40,0,2
935,432,1023,1,2
505,684,766,2,2
342,149,140,2,2
381,24,169,2,2
86,5,446,1,2
438,5,240,2,2
8,6,669,1,2
943,7,295,2,2
440,486,1023,1,2
229,82,564,2,2
1023,1023,1023,0,2
1023,552,248,0,2
20,799,1023,2,2
546,207,68,2,2
363,37,0,2,2
140,5,254,2,2
727,6,784,2,2
305,6,661,1,2
780,7,857,2,2
415,5,111,2,2
94,6,141,2,2
2,6,349,2,2
42,6,21,2,2
4,6,253,2,2
140,6,42,2,2
558,9,1023,1,2
357,5,285,2,2
1023,1023,1023,0,2
931,754,26,2,2
666,174,1023,1,2
686,59,168,2,2
586,15,559,2,2
537,7,644,1,2
1023,1023,623,0,2
497,1009,311,2,2
149,247,8,2,2
257,42,839,1,2
672,7,7,2,2
118,5,535,2,2
458,5,169,2,2
31,6,442,2,2
817,1023,1023,0,2
931,687,906,1,2
52,162,160,2,2
805,23,1023,1,2
795,800,497,2,2
498,597,545,2,2
435,151,110,2,2
351,22,837,1,2
171,4,576,2,2
479,6,761,2,2
85,6,552,2,2
44,6,323,1,2
237,6,635,2,2
573,6,215,2,2
198,5,0,2,2
534,6,95,2,2
245,6,384,2,2
266,6,471,2,2
851,122,1023,0,2
660,1023,40,2,2
59,341,48,2,2
187,1023,1023,0,2
707,711,585,2,2
601,191,335,2,2
100,37,152,2,2
262,5,653,2,2
209,5,180,2,2
465,6,133,2,2
66,7,958,2,2
330,6,471,1,2
299,6,23,2,2
51,7,647,2,2
898,6,2,2,2
847,6,436,1,2
453,1023,1023,0,2
484,1023,388,1,2
286,590,1023,1,2
862,578,360,2,2
359,155,12,2,2
185,26,266,2,2
375,4,725,2,2
111,5,35,2,2
150,6,401,2,2
350,6,264,2,2
342,6,16,2,2
203,6,318,2,2
82,1023,1023,0,2
1023,852,369,2,2
324,227,0,2,2
140,39,254,2,2
81,5,496,2,2
167,5,218,2,2
116,6,24,2,2
263,6,15,2,2
11,6,98,2,2
439,6,229,2,2
279,6,309,2,2
415,6,361,1,2
30,6,487,2,2
323,6,93,2,2
19,6,2,2,2
176,6,176,2,2
61,6,217,2,2
30,6,180,2,2
505,6,0,2,2
173,6,187,2,2
47,7,679,2,2
344,6,192,2,2
142,6,37,2,2
909,7,411,2,2
212,5,0,2,2
267,6,40,2,2
23,6,34,2,2
174,6,258,2,2
176,6,275,2,2
399,6,289,2,2
53,6,150,2,2
422,6,304,2,2
140,6,20,2,2
518,6,1,2,2
358,6,253,2,2
271,6,435,2,2
8,6,55,2,2
74,6,137,2,2
13,6,241,1,2
421,7,851,2,2
525,6,526,1,2
347,7,858,1,2
720,6,7,2,2
304,6,565,2,2
924,7,476,2,2
284,5,713,1,2
610,95,1023,0,2
469,71,95,2,2
90,10,945,2,2
636,4,428,2,2
686,6,436,2,2
105,6,0,2,2
369,7,645,2,2
49,6,248,2,2
368,7,625,1,2
494,8,1023,1,2
12,5,180,2,2
32,27,962,2,2
220,96,180,2,2
295,12,848,2,2
400,5,444,2,2
19,5,59,2,2
336,6,123,2,2
50,6,242,2,2
69,6,209,2,2
52,6,554,2,2
156,7,527,2,2
30,6,398,2,2
55,6,84,2,2
229,6,111,2,2
230,7,629,2,2
23,6,547,2,2
412,6,11,2,2
153,6,20,2,2
8,6,0,2,2
561,6,0,2,2
501,6,314,2,2
278,6,323,2,2
168,6,99,2,2
461,6,31,2,2
184,6,304,2,2
371,6,57,2,2
128,6,320,2,2
440,7,490,2,2
143,6,374,2,2
503,6,147,2,2
155,6,225,2,2
437,6,102,2,2
498,7,441,2,2
119,6,219,2,2
103,6,82,2,2
140,6,284,2,2
29,6,131,2,2
16,6,315,2,2
665,7,526,2,2
363,5,19,2,2
431,6,133,2,2
273,6,133,2,2
115,6,239,1,2
134,6,0,2,2
49,6,87,2,2
2,6,173,2,2
64,6,43,2,2
311,6,371,2,2
565,6,2,2,2
89,6,295,2,2
307,7,604,2,2
291,6,26,2,2
152,6,231,2,2
161,6,16,2,2
92,6,99,2,2
143,6,80,2,2
46,6,26,2,2
96,6,20,2,2
260,6,200,2,2
259,6,0,2,2
406,6,42,2,2
225,6,282,2,2
377,6,0,2,2
263,7,277,2,2
359,6,247,2,2
50,6,213,2,2
143,6,121,2,2
190,6,17,2,2
7,6,34,2,2
51,6,98,2,2
250,6,116,2,2
121,6,357,2,2
208,6,199,2,2
595,6,318,2,2
184,6,53,2,2
779,7,37,2,2
103,6,20,2,2
127,6,86,2,2
190,6,196,2,2
80,6,436,2,2
11,6,147,2,2
104,6,341,2,2
7,6,170,2,2
24,6,60,2,2
48,6,26,2,2
87,6,64,2,2
242,6,43,2,2
113,6,0,2,2
117,6,0,2,2
35,6,10,2,2
112,6,91,2,2
127,6,74,2,2
85,6,15,2,2
3,6,281,2,2
86,6,106,2,2
158,6,296,2,2
182,6,237,2,2
33,6,145,2,2
28,6,123,2,2
17,6,24,2,2
73,6,153,2,2
414,7,259,2,2
11,6,47,2,2
201,6,186,2,2
228,6,375,1,2
233,6,127,2,2
97,7,443,2,2
23,6,67,2,2
22,6,54,2,2
2,6,125,2,2
70,6,63,2,2
160,6,79,2,2
173,6,117,2,2
118,6,34,2,2
3,6,163,2,2
145,6,103,2,2
158,6,58,2,2
119,6,66,2,2
3,6,59,2,2
31,6,250,2,2
297,6,44,2,2
31,6,291,2,2
198,6,58,2,2
101,6,5,2,2
125,6,204,2,2
23,6,99,2,2
73,6,121,2,2
1,6,0,2,2
73,6,49,2,2
15,6,48,2,2
11,6,68,2,2
4,6,67,2,2
87,6,2,2,2
39,6,106,2,2
32,6,17,2,2
63,6,107,2,2
205,6,153,2,2
146,6,12,2,2
147,6,55,2,2
63,6,185,2,2
88,6,50,2,2
74,6,0,2,2
171,6,81,2,2
0,6,24,2,2
74,6,41,2,2
18,6,32,2,2
135,6,111,2,2
91,6,263,2,2
19,6,11,2,2
47,6,220,2,2
114,6,100,1,2
41,6,163,2,2
73,6,4,2,2
84,6,38,2,2
200,6,154,2,2
263,6,91,2,2
3,6,333,2,2
58,6,186,2,2
118,6,194,2,2
35,6,95,2,2
261,6,266,2,2
6,7,395,2,2
394,6,195,2,2
118,6,331,2,2
277,6,156,2,2
98,6,135,2,2
53,6,148,2,2
26,7,612,1,2
259,6,420,2,2
165,6,292,1,2
223,6,0,2,2
61,6,65,2,2
117,7,517,2,2
720,7,293,2,2
64,6,171,2,2
135,6,257,2,2
342,6,176,2,2
199,6,6,2,2
469,6,81,2,2
5,6,116,2,2
175,6,95,2,2
11,6,288,2,2
178,6,91,2,2
835,7,275,2,2
500,6,449,2,2
657,7,449,1,2
71,6,34,2,2
355,6,92,2,2
7,6,99,2,2
803,7,49,2,2
15,6,575,2,2
231,6,535,2,2
218,6,130,2,2
398,7,543,1,2
64,7,681,2,2
272,6,1,2,2
487,44,79,2,2
851,18,374,2,2
763,4,248,2,2
401,5,237,2,2
548,7,742,2,2
176,5,55,2,2
153,7,715,1,2
322,6,483,1,2
118,6,371,2,2
343,6,376,2,2
1023,696,60,2,2
188,86,130,2,2
591,13,181,2,2
470,5,132,2,2
612,6,596,1,2
165,5,38,2,2
235,7,760,2,2
183,148,199,2,2
126,394,368,2,2
1023,1013,23,0,2
550,1023,306,2,2
185,295,748,1,2
200,55,167,2,2
1001,6,530,2,2
32,5,626,2,2
2,5,276,2,2
74,7,924,1,2
793,7,478,2,2
240,7,887,2,2
477,7,830,2,2
235,6,358,2,2
412,7,942,2,2
296,6,869,2,2
63,415,979,1,2
1023,856,529,2,2
126,196,506,2,2
99,31,906,2,2
634,5,484,1,2
302,1023,1023,0,2
256,802,350,2,2
383,174,1023,2,2
286,31,248,2,2
1023,5,429,2,2
793,5,482,2,2
308,1023,1023,0,2
237,569,1023,0,2
400,1023,391,2,2
83,325,298,2,2
524,62,119,2,2
192,9,317,2,2
702,5,60,2,2
67,6,934,2,2
487,1023,343,2,2
841,610,1023,0,2
108,531,111,2,2
15,110,557,2,2
75,121,502,1,2
1023,1023,866,0,2
1023,959,374,1,2
975,307,976,2,2
326,60,847,2,2
223,10,28,2,2
424,5,442,2,2
664,6,594,1,2
84,5,127,2,2
755,6,251,2,2
249,6,15,2,2
159,6,250,2,2
739,7,437,2,2
603,7,477,2,2
863,7,267,2,2
404,6,178,2,2
882,7,562,1,2
476,6,621,1,2
226,5,234,2,2
826,41,1023,0,2
1023,542,136,2,2
139,1023,1023,0,2
1023,378,667,1,2
483,638,370,2,2
77,136,486,2,2
459,650,1023,0,2
599,351,767,2,2
515,413,1023,0,2
505,1004,66,2,2
130,252,913,2,2
496,48,92,2,2
535,7,419,2,2
648,5,116,2,2
460,1023,1023,0,2
1023,760,828,2,2
482,185,259,2,2
275,32,428,2,2
49,5,679,1,2
337,5,454,2,2
886,7,401,2,2
173,6,482,2,2
56,6,414,2,2
529,6,257,2,2
11,6,119,2,2
2,6,352,2,2
545,1023,736,0,2
307,551,101,2,2
2,112,893,2,2
121,18,221,2,2
679,5,297,2,2
255,1023,1023,0,2
162,908,155,2,2
39,210,365,2,2
554,35,488,2,2
359,5,361,2,2
662,1023,1023,0,2
643,832,678,2,2
701,193,787,2,2
156,34,804,2,2
1023,1023,321,0,2
135,708,944,2,2
13,281,408,2,2
46,1023,1023,0,2
768,974,354,2,2
57,270,1023,1,2
903,102,833,2,2
991,280,295,2,2
55,204,86,2,2
401,47,873,2,2
292,415,1023,0,2
752,1023,557,1,2
103,717,1023,0,2
1023,581,116,0,2
874,706,927,2,2
217,165,601,1,2
252,29,332,2,2
342,4,620,2,2
442,5,301,2,2
160,6,378,2,2
563,6,532,2,2
629,5,224,2,2
745,7,867,1,2
56,5,629,2,2
425,411,227,2,2
627,392,150,2,2
859,76,228,2,2
315,11,83,2,2
5,5,90,2,2
458,1023,1023,0,2
1023,96,346,1,2
504,282,277,2,2
1023,902,812,0,2
53,781,31,2,2
694,208,521,2,2
486,37,141,2,2
402,5,672,2,2
858,6,819,2,2
714,5,19,2,2
158,1023,381,0,2
50,542,42,2,2
1023,702,142,2,2
332,161,530,2,2
369,29,27,2,2
111,5,91,2,2
168,1023,1023,0,2
1023,588,1023,0,2
1023,259,708,0,2
201,1023,818,1,2
293,558,441,2,2
257,118,18,2,2
78,19,62,2,2
148,4,775,2,2
242,5,187,2,2
104,6,692,2,2
305,5,0,2,2
248,6,202,2,2
850,6,56,2,2
232,6,260,2,2
878,6,148,2,2
177,6,476,2,2
221,6,290,2,2
122,6,517,2,2
110,6,46,2,2
10,6,27,2,2
245,6,372,2,2
661,6,223,2,2
36,6,486,2,2
356,6,29,2,2
1,6,17,2,2
101,6,447,2,2
7,6,83,2,2
83,6,284,2,2
62,6,356,1,2
222,6,293,2,2
676,7,680,2,2
22,5,185,2,2
518,6,79,2,2
439,6,257,1,2
268,6,303,2,2
86,6,344,2,2
32,6,386,2,2
463,7,448,2,2
167,1023,1023,0,2
295,1023,312,2,2
426,120,1023,1,2
304,321,914,2,2
473,63,390,2,2
214,9,646,2,2
363,5,643,2,2
223,6,470,2,2
182,6,0,2,2
420,6,49,2,2
704,7,621,1,2
211,5,23,2,2
220,6,540,2,2
616,6,123,2,2
211,6,349,2,2
953,7,211,2,2
414,6,498,2,2
235,6,567,2,2
24,6,312,2,2
154,7,734,2,2
153,5,44,2,2
3,8,1023,2,2
485,5,200,2,2
43,6,389,2,2
565,6,268,2,2
736,6,465,2,2
59,1023,1023,0,2
1023,33,191,0,2
448,150,1023,0,2
1023,431,634,0,2
13,856,91,2,2
324,202,200,2,2
254,35,192,2,2
191,5,35,2,2
66,5,237,2,2
603,6,123,2,2
217,6,405,2,2
970,6,113,2,2
103,6,197,2,2
107,6,302,2,2
29,7,585,2,2
598,6,25,2,2
15,6,233,2,2
330,6,111,2,2
228,6,199,2,2
713,6,318,2,2
427,6,248,2,2
123,6,540,1,2
177,6,176,2,2
975,7,135,2,2
236,5,28,2,2
270,6,267,2,2
555,6,247,2,2
11,7,897,2,2
550,5,59,2,2
69,5,205,2,2
245,6,192,2,2
28,6,47,2,2
116,6,240,2,2
204,6,360,2,2
330,6,123,2,2
250,6,181,2,2
59,6,27,2,2
326,6,414,2,2
200,7,438,2,2
62,6,36,2,2
104,6,44,2,2
35,6,242,1,2
270,6,110,2,2
217,6,316,2,2
102,6,207,2,2
429,6,287,2,2
16,6,338,2,2
351,6,5,2,2
37,6,164,2,2
135,6,7,2,2
87,6,120,2,2
349,6,71,2,2
52,6,4,2,2
495,7,254,2,2
4,6,216,2,2
212,6,78,2,2
66,6,254,2,2
266,6,105,2,2
99,7,350,2,2
50,6,14,2,2
126,6,302,2,2
128,6,533,2,2
213,6,22,2,2
144,6,191,2,2
95,6,11,2,2
55,6,218,2,2
66,6,34,2,2
13,6,17,2,2
6,6,0,2,2
81,6,65,2,2
185,6,108,2,2
17,6,343,2,2
76,6,55,2,2
151,6,372,2,2
276,6,36,2,2
5,6,83,2,2
101,6,100,2,2
32,6,186,2,2
38,6,31,2,2
195,6,309,2,2
5,6,254,2,2
76,6,279,2,2
40,6,156,2,2
15,6,7,2,2
34,6,20,2,2
38,6,151,2,2
228,6,167,2,2
300,7,418,2,2
70,6,51,2,2
81,6,27,2,2
129,6,107,2,2
129,6,164,2,2
302,6,104,2,2
237,6,275,2,2
33,6,97,2,2
49,6,4,2,2
66,6,19,2,2
100,6,176,2,2
54,6,35,2,2
137,6,116,2,2
20,6,87,2,2
1,6,2,2,2
154,6,17,2,2
35,6,82,2,2
92,6,174,2,2
61,6,47,2,2
4,6,107,2,2
86,6,302,2,2
214,6,0,2,2
73,6,98,2,2
25,6,154,2,2
252,6,72,2,2
104,6,44,2,2
60,6,26,2,2
6,6,5,2,2
23,6,43,2,2
103,6,82,2,2
65,6,84,2,2
86,6,2,2,2
70,6,21,2,2
79,6,0,2,2
10,6,0,2,2
6,6,40,2,2
198,6,270,2,2
83,6,3,2,2
87,6,318,2,2
133,6,188,2,2
4,6,0,2,2
110,6,215,2,2
94,6,0,2,2
127,6,23,2,2
63,6,93,2,2
113,6,18,2,2
48,6,0,2,2
18,6,12,2,2
24,6,67,1,2
2,6,12,2,2
74,6,13,2,2
96,6,36,2,2
0,6,92,2,2
69,6,45,2,2
39,6,80,2,2
63,6,64,2,2
83,6,221,2,2
41,6,12,2,2
211,6,54,2,2
1,6,0,2,2
62,6,63,2,2
63,7,7,2,2
27,6,13,2,2
124,6,9,2,2
254,6,41,2,2
171,6,88,2,2
82,6,15,2,2
105,6,44,2,2
5,6,54,2,2
103,6,10,2,2
9,6,82,2,2
46,6,222,2,2
47,6,26,2,2
77,6,23,2,2
495,6,228,2,2
226,6,171,2,2
71,6,104,2,2
641,7,311,2,2
142,6,190,2,2
90,6,303,2,2
239,6,124,2,2
333,6,273,2,2
8,6,120,2,2
80,6,190,2,2
348,6,170,2,2
129,6,201,2,2
66,6,0,2,2
419,7,686,2,2
99,6,170,2,2
357,7,696,1,2
576,90,39,2,2
800,54,180,2,2
293,8,22,2,2
199,5,379,2,2
906,7,59,2,2
255,6,412,2,2
390,6,10,2,2
615,7,823,2,2
755,5,133,2,2
72,7,806,2,2
373,5,117,2,2
442,6,86,2,2
129,7,714,2,2
427,1023,1023,0,2
489,872,803,1,2
256,199,835,2,2
515,35,146,2,2
231,5,215,2,2
93,6,633,2,2
240,6,436,2,2
1,6,412,2,2
2,6,59,2,2
8,7,490,2,2
638,6,279,2,2
183,1023,1023,0,2
472,765,443,2,2
23,189,580,2,2
245,32,59,2,2
23,5,212,2,2
216,5,0,2,2
453,6,78,2,2
136,6,188,2,2
675,7,17,2,2
533,7,624,1,2
146,6,652,2,2
125,6,15,2,2
318,7,769,2,2
316,6,593,1,2
624,6,44,2,2
567,6,3,2,2
248,6,509,2,2
900,7,327,2,2
471,6,525,2,2
1023,1023,801,0,2
412,1023,90,1,2
778,709,1023,0,2
497,624,801,2,2
61,137,293,2,2
197,22,10,2,2
484,5,679,2,2
832,6,657,1,2
36,5,109,2,2
1023,7,763,2,2
403,5,279,2,2
423,1023,856,0,2
947,533,1016,1,2
508,117,29,2,2
1004,16,342,2,2
1023,31,138,0,2
815,982,380,2,2
135,324,882,1,2
395,57,1023,2,2
908,9,438,2,2
6,5,301,2,2
11,5,186,2,2
45,7,996,2,2
270,5,98,2,2
423,6,470,2,2
556,7,729,2,2
161,7,910,1,2
605,70,1023,1,2
123,90,635,2,2
975,15,452,2,2
98,5,21,2,2
184,6,504,2,2
852,7,833,1,2
565,5,493,2,2
316,5,461,2,2
441,5,618,2,2
653,6,338,2,2
282,5,46,2,2
70,6,500,1,2
814,8,824,2,2
811,7,681,2,2
342,5,0,2,2
209,7,647,2,2
511,6,369,2,2
511,1023,1023,0,2
1023,1023,745,2,2
241,614,442,1,2
16,339,638,2,2
613,65,440,2,2
878,8,36,2,2
242,5,1,2,2
53,6,321,2,2
238,6,531,2,2
509,6,235,2,2
1023,1023,552,0,2
908,689,9,2,2
303,164,188,2,2
516,10,1004,2,2
164,6,503,2,2
180,6,829,2,2
169,6,817,1,2
782,6,414,2,2
225,6,313,2,2
691,1023,632,0,2
1023,913,839,0,2
876,667,121,2,2
618,547,20,2,2
417,164,152,2,2
478,26,184,2,2
317,113,451,2,2
1023,45,178,2,2
275,93,816,1,2
658,72,392,2,2
29,11,100,2,2
226,5,88,2,2
416,7,1023,2,2
723,7,953,2,2
186,5,83,2,2
236,6,333,2,2
739,8,867,1,2
527,227,16,2,2
1023,989,888,0,2
1023,1023,1023,0,2
565,1023,125,2,2
212,760,1023,0,2
551,233,1023,0,2
611,887,276,2,2
604,662,1023,0,2
856,832,1023,0,2
847,1023,567,1,2
644,1023,1023,0,2
834,1023,281,1,2
574,473,1023,0,2
1023,40,218,0,2
212,63,1023,0,2
1023,379,651,1,2
300,413,539,2,2
684,86,190,2,2
453,13,263,2,2
997,5,337,2,2
264,5,689,2,2
159,5,997,2,2
709,6,877,2,2
349,736,827,2,2
171,308,234,2,2
482,57,413,2,2
31,7,479,2,2
692,5,30,2,2
268,6,230,2,2
306,6,204,2,2
312,6,277,2,2
433,6,52,2,2
50,6,159,2,2
236,6,277,2,2
200,6,253,2,2
208,8,1023,1,2
906,774,270,2,2
310,1023,1023,0,2
627,964,145,2,2
153,258,330,2,2
240,47,268,2,2
394,6,718,2,2
100,580,203,2,2
281,350,732,2,2
306,66,770,2,2
242,8,938,1,2
571,5,499,1,2
53,7,1023,2,2
280,5,366,2,2
361,6,849,2,2
826,56,34,2,2
310,11,474,2,2
145,1023,1023,0,2
1023,443,1023,0,2
1023,122,1023,0,2
1023,121,1023,0,2
624,1010,117,2,2
25,229,694,2,2
205,1023,1023,0,2
1023,114,1023,0,2
1023,1023,1023,0,2
558,1023,655,2,2
848,530,1023,0,2
984,292,1023,0,2
1023,414,73,2,2
234,813,1023,0,2
1023,1023,1023,0,2
1023,853,953,0,2
1023,1023,1023,1,2
319,963,9,2,2
397,241,285,2,2
17,46,73,2,2
122,7,318,2,2
285,5,145,2,2
257,5,7,2,2
201,7,725,1,2
405,5,74,2,2
5,6,74,2,2
142,6,497,2,2
223,6,644,1,2
324,6,248,2,2
205,6,80,2,2
555,7,813,1,2
396,5,157,2,2
389,6,96,2,2
152,6,159,2,2
612,7,745,2,2
182,6,769,2,2
922,6,9,2,2
116,5,240,2,2
248,6,265,2,2
190,6,310,2,2
204,6,523,2,2
203,6,87,2,2
37,6,91,2,2
285,6,261,2,2
267,6,176,2,2
586,6,154,2,2
15,6,312,2,2
259,7,535,2,2
752,6,410,2,2
269,6,772,1,2
807,5,62,2,2
94,6,72,2,2
169,7,996,2,2
191,511,907,1,2
731,519,862,1,2
68,105,722,2,2
457,17,37,2,2
170,4,287,2,2
49,6,215,2,2
331,6,45,2,2
352,6,203,2,2
714,7,606,1,2
684,6,124,2,2
184,6,322,2,2
312,6,292,2,2
304,6,465,2,2
254,6,337,2,2
326,6,350,2,2
412,6,588,2,2
888,6,163,2,2
250,6,733,2,2
932,7,262,2,2
254,7,925,1,2
739,5,417,2,2
330,6,235,2,2
695,7,425,2,2
313,6,415,1,2
199,6,672,2,2
168,5,661,2,2
222,5,71,2,2
201,5,252,2,2
36,7,426,2,2
440,6,496,2,2
552,7,613,2,2
269,6,414,2,2
703,7,663,2,2
14,6,565,2,2
108,6,354,2,2
931,7,550,2,2
555,1023,248,0,2
1014,482,69,2,2
234,101,176,2,2
375,12,1023,2,2
742,21,155,2,2
153,5,36,2,2
301,5,127,2,2
446,6,37,2,2
169,6,325,2,2
125,7,533,2,2
1023,21,104,2,2
6,4,167,2,2
875,6,392,2,2
290,5,304,2,2
190,7,642,1,2
378,6,20,2,2
3,6,664,2,2
487,6,292,2,2
302,6,162,2,2
122,6,351,2,2
213,6,41,2,2
104,6,120,2,2
371,6,1,2,2
253,6,204,2,2
15,6,5,2,2
215,6,129,2,2
74,6,90,2,2
160,6,558,2,2
67,6,425,2,2
67,6,173,2,2
70,6,341,1,2
129,6,136,2,2
71,6,348,2,2
311,6,436,2,2
81,6,329,2,2
541,6,337,2,2
183,6,242,2,2
289,6,243,2,2
272,6,229,2,2
814,7,295,2,2
414,6,275,2,2
500,6,31,2,2
204,6,13,2,2
102,6,36,2,2
281,6,73,2,2
84,6,61,2,2
101,6,81,2,2
55,6,51,2,2
54,6,0,2,2
17,6,267,2,2
365,6,27,2,2
272,6,8,2,2
137,6,211,2,2
154,6,12,2,2
15,6,219,2,2
264,6,106,2,2
56,6,263,2,2
213,6,0,2,2
95,6,59,2,2
79,6,131,2,2
229,6,199,2,2
42,6,33,2,2
40,6,1,2,2
164,6,64,2,2
151,6,129,2,2
133,6,122,2,2
13,6,53,2,2
11,6,115,2,2
60,6,24,2,2
50,6,18,2,2
306,6,4,2,2
63,6,168,2,2
120,6,346,2,2
208,6,0,2,2
70,6,302,2,2
1,6,12,2,2
46,6,201,2,2
49,6,4,2,2
31,6,71,2,2
275,6,73,2,2
30,6,12,2,2
142,6,114,2,2
11,6,23,2,2
127,6,77,2,2
242,6,9,2,2
216,6,236,2,2
31,6,68,2,2
14,6,137,2,2
7,6,59,2,2
26,6,38,2,2
29,6,86,2,2
76,6,7,2,2
25,6,29,2,2
41,6,108,2,2
72,6,130,2,2
38,6,14,2,2
121,6,279,2,2
12,6,126,2,2
16,6,197,2,2
95,6,359,2,2
9,6,1,2,2
248,6,15,2,2
45,6,139,2,2
103,6,147,2,2
118,6,25,2,2
21,6,31,2,2
0,6,86,2,2
37,6,0,2,2
3,6,0,2,2
35,6,52,2,2
42,6,3,2,2
10,6,13,2,2
81,6,9,2,2
101,6,0,2,2
126,6,36,2,2
160,6,183,2,2
144,6,0,2,2
93,6,17,2,2
50,6,215,2,2
6,6,62,2,2
103,6,17,2,2
39,6,136,2,2
25,6,211,2,2
37,6,41,2,2
46,6,66,2,2
47,6,36,2,2
72,6,0,2,2
110,6,4,2,2
82,6,124,2,2
93,6,0,2,2
146,6,11,2,2
114,6,46,2,2
157,6,0,2,2
99,6,0,2,2
179,6,42,2,2
14,6,0,2,2
115,6,10,2,2
37,6,61,2,2
2,6,151,2,2
38,6,74,2,2
68,6,150,2,2
50,6,5,2,2
112,6,37,2,2
19,6,0,2,2
33,6,39,2,2
43,6,23,2,2
51,6,0,2,2
149,6,19,2,2
47,6,31,2,2
65,6,0,2,2
88,6,0,2,2
87,6,40,2,2
12,6,3,2,2
113,6,91,2,2
84,6,0,2,2
61,6,72,2,2
74,6,236,2,2
83,6,0,2,2
253,6,7,2,2
51,6,89,2,2
18,6,0,2,2
116,6,62,2,2
263,6,134,2,2
17,6,131,2,2
16,6,99,2,2
33,6,157,2,2
104,6,1,2,2
136,6,116,2,2
170,6,10,2,2
97,6,107,2,2
232,6,291,2,2
288,6,312,2,2
193,6,56,2,2
127,6,279,2,2
20,6,271,2,2
70,6,342,2,2
326,6,333,2,2
10,6,280,2,2
212,6,56,2,2
101,6,140,2,2
39,6,165,2,2
448,6,176,2,2
718,6,108,2,2
408,6,129,2,2
278,6,40,2,2
253,6,57,2,2
56,6,126,2,2
71,7,549,2,2
1023,8,491,2,2
284,5,28,2,2
596,6,234,2,2
416,6,232,2,2
183,6,103,2,2
634,6,113,2,2
102,6,159,2,2
510,7,477,2,2
340,6,308,2,2
848,7,517,2,2
519,5,19,2,2
277,7,942,2,2
604,5,164,2,2
963,8,898,1,2
318,5,308,2,2
126,6,334,1,2
456,7,571,2,2
93,6,207,2,2
306,6,177,2,2
723,7,744,1,2
142,5,46,2,2
742,6,199,2,2
181,6,173,2,2
404,6,5,2,2
339,6,279,2,2
294,6,208,2,2
82,6,174,2,2
480,6,315,2,2
478,7,855,1,2
798,6,114,2,2
289,7,930,1,2
515,5,222,2,2
106,6,533,2,2
261,6,514,2,2
556,6,116,2,2
42,7,881,1,2
288,5,57,2,2
370,6,524,2,2
518,6,299,2,2
499,6,190,2,2
2,6,0,2,2
229,6,522,2,2
589,1023,195,0,2
236,611,974,2,2
312,144,2,2,2
784,21,693,1,2
326,373,267,2,2
353,327,18,2,2
129,61,444,2,2
778,7,612,2,2
393,5,351,2,2
844,6,135,2,2
201,7,948,2,2
609,5,356,2,2
471,1023,711,0,2
1023,117,181,0,2
744,285,151,2,2
555,56,866,2,2
145,8,790,2,2
508,5,44,2,2
1023,378,1023,1,2
613,47,660,1,2
92,7,489,2,2
645,5,222,2,2
315,5,5,2,2
477,6,261,2,2
469,7,824,1,2
12,5,160,2,2
425,7,742,2,2
696,6,824,1,2
499,5,516,2,2
963,539,1023,0,2
866,626,512,2,2
208,137,29,2,2
479,205,1023,1,2
975,1023,1023,0,2
203,1023,51,1,2
886,393,1023,0,2
615,807,811,2,2
237,183,357,2,2
210,31,184,2,2
583,70,834,2,2
13,50,373,2,2
1023,1023,207,0,2
113,803,416,2,2
459,218,424,1,2
924,42,115,2,2
82,1023,1023,0,2
588,1023,308,1,2
0,781,1023,0,2
47,1016,144,2,2
107,245,1023,1,2
634,1016,729,2,2
371,513,936,2,2
1023,1023,38,0,2
279,692,7,2,2
450,166,344,2,2
723,27,256,2,2
176,5,443,2,2
780,5,282,2,2
254,5,72,2,2
727,7,385,2,2
24,6,350,2,2
839,8,758,1,2
32,6,538,2,2
574,6,153,2,2
208,8,1023,2,2
7,5,461,1,2
595,6,861,2,2
962,6,955,2,2
233,183,669,1,2
753,41,522,2,2
62,6,205,2,2
958,6,361,1,2
325,6,288,2,2
810,7,208,2,2
305,7,792,2,2
78,5,229,2,2
355,6,295,2,2
238,39,760,2,2
644,26,236,2,2
8,4,696,2,2
211,5,99,2,2
285,6,38,2,2
1023,7,288,2,2
43,5,577,2,2
254,7,1023,2,2
164,48,75,2,2
210,8,342,2,2
26,5,517,1,2
446,6,587,2,2
161,6,469,2,2
12,704,1023,0,2
1023,118,177,0,2
323,310,1023,0,2
1023,1023,1023,0,2
296,1023,77,1,2
634,68,1023,1,2
49,359,720,1,2
4,72,404,2,2
637,9,665,1,2
676,5,327,2,2
348,6,531,2,2
817,5,161,2,2
70,7,1023,1,2
687,826,207,2,2
482,369,739,2,2
537,72,40,2,2
893,7,924,2,2
565,5,914,1,2
648,333,541,1,2
58,393,616,2,2
619,77,124,2,2
235,11,66,2,2
16,5,713,1,2
78,6,643,2,2
467,1023,1023,0,2
608,1023,181,2,2
284,486,1023,1,2
832,99,335,2,2
121,14,668,2,2
249,5,375,2,2
641,5,200,2,2
123,7,825,1,2
836,7,1023,2,2
86,720,16,2,2
391,1023,1023,0,2
451,431,117,2,2
281,83,1023,1,2
1023,1023,402,0,2
308,1023,635,1,2
663,405,541,2,2
151,88,391,2,2
54,13,312,2,2
161,4,371,2,2
266,1023,1023,0,2
268,1023,216,2,2
347,266,511,2,2
179,47,647,2,2
95,7,80,2,2
71,5,444,2,2
788,6,327,2,2
201,6,319,2,2
150,6,204,2,2
58,6,167,2,2
114,1023,1023,0,2
1023,1023,81,2,2
228,712,1023,1,2
801,174,224,2,2
144,30,548,2,2
694,5,38,2,2
126,5,385,2,2
280,7,754,1,2
390,5,68,2,2
34,7,670,1,2
274,6,346,2,2
216,6,635,2,2
7,5,155,2,2
265,7,627,1,2
43,6,616,1,2
292,6,388,2,2
2,6,70,2,2
152,6,0,2,2
213,7,568,2,2
201,6,18,2,2
89,6,98,2,2
188,6,211,2,2
41,7,776,1,2
247,6,339,2,2
23,6,163,2,2
115,6,128,2,2
292,6,90,2,2
66,6,105,2,2
23,6,464,1,2
450,6,132,2,2
104,7,705,1,2
450,6,207,2,2
22,39,1023,2,2
446,4,664,2,2
340,4,608,2,2
292,5,940,1,2
487,597,301,2,2
90,340,812,2,2
539,63,897,1,2
1023,851,292,0,2
210,740,730,2,2
691,205,141,2,2
4,36,0,2,2
116,5,15,2,2
269,5,350,2,2
171,6,413,2,2
72,6,361,2,2
188,6,12,2,2
199,7,778,2,2
686,6,201,2,2
1023,11,320,1,2
580,12,699,2,2
384,5,166,2,2
83,7,1023,2,2
43,5,513,2,2
538,1023,1023,0,2
274,875,794,2,2
1016,198,55,2,2
291,35,41,2,2
237,5,802,1,2
1023,5,269,2,2
106,6,730,1,2
989,6,226,2,2
304,6,564,2,2
373,6,354,2,2
195,6,337,2,2
228,6,45,2,2
318,6,52,2,2
69,6,281,2,2
87,6,153,2,2
328,7,559,2,2
279,5,21,2,2
137,6,64,2,2
123,6,79,2,2
285,6,299,2,2
252,6,409,2,2
83,6,0,2,2
194,7,446,1,2
226,6,54,2,2
81,6,74,2,2
62,7,434,2,2
333,6,38,2,2
144,6,41,2,2
163,6,13,2,2
277,6,116,2,2
77,6,245,2,2
201,6,7,2,2
162,6,348,2,2
4,6,307,2,2
64,6,0,2,2
66,6,197,2,2
12,6,475,2,2
86,6,65,2,2
154,6,469,2,2
240,6,73,2,2
14,6,181,2,2
160,6,280,2,2
440,6,280,2,2
145,6,0,2,2
282,6,51,2,2
30,6,0,2,2
325,6,0,2,2
47,6,46,2,2
134,6,6,2,2
7,6,0,2,2
10,6,124,2,2
80,6,135,2,2
58,6,69,2,2
175,6,0,2,2
32,6,3,2,2
310,7,27,2,2
212,6,108,2,2
101,6,184,2,2
60,6,19,2,2
65,6,111,2,2
0,6,139,2,2
40,6,67,2,2
88,6,238,2,2
172,6,133,2,2
20,6,325,2,2
30,6,184,2,2
237,6,108,2,2
365,6,311,2,2
291,6,21,2,2
27,6,0,2,2
162,6,3,2,2
80,6,68,2,2
196,6,125,2,2
93,6,3,2,2
18,6,0,2,2
2,6,11,2,2
1,6,41,2,2
46,6,66,2,2
55,6,128,2,2
53,6,17,2,2
64,6,111,2,2
39,6,199,2,2
36,6,162,2,2
60,6,35,2,2
161,6,233,2,2
71,6,131,2,2
59,6,260,2,2
173,6,177,2,2
139,6,2,2,2
267,6,183,2,2
97,6,11,2,2
190,6,9,2,2
93,6,72,2,2
75,6,13,2,2
26,6,4,2,2
106,6,83,2,2
88,6,54,2,2
91,6,45,2,2
37,6,116,2,2
84,6,69,2,2
138,6,34,2,2
162,6,67,2,2
55,6,67,2,2
87,6,32,2,2
116,6,0,2,2
106,6,0,2,2
25,6,3,2,2
78,6,0,2,2
195,6,45,2,2
1,6,63,2,2
16,6,40,2,2
57,6,0,2,2
96,6,0,2,2
67,6,96,2,2
57,6,0,2,2
44,6,54,2,2
65,6,0,2,2
253,6,2,2,2
31,6,0,2,2
106,6,0,2,2
3,6,6,2,2
9,6,0,2,2
108,6,2,2,2
31,6,4,2,2
23,6,47,2,2
0,6,12,2,2
60,6,105,2,2
57,6,36,2,2
14,6,43,2,2
0,6,31,2,2
161,6,50,2,2
92,6,189,2,2
34,6,16,2,2
156,6,0,2,2
1,6,68,2,2
98,6,27,2,2
0,6,25,2,2
37,6,65,2,2
278,6,80,2,2
31,6,43,2,2
18,6,0,2,2
9,6,130,2,2
141,6,133,2,2
10,6,13,2,2
93,6,150,2,2
225,6,57,2,2
314,6,73,2,2
176,6,96,2,2
77,6,147,2,2
33,6,351,2,2
191,6,0,2,2
16,6,199,2,2
22,6,244,2,2
318,6,128,2,2
678,7,337,2,2
248,6,105,2,2
694,7,354,2,2
363,6,177,2,2
205,6,54,2,2
139,6,417,2,2
205,6,381,2,2
820,6,256,2,2
184,6,32,2,2
753,7,485,2,2
197,6,25,2,2
528,6,87,2,2
561,6,249,2,2
624,6,103,2,2
711,6,340,2,2
426,6,371,2,2
136,6,187,2,2
76,6,308,2,2
48,6,77,2,2
189,7,862,2,2
379,5,14,2,2
266,7,823,2,2
34,6,41,2,2
781,7,168,2,2
31,6,26,2,2
354,7,752,1,2
227,6,386,2,2
228,8,1023,1,2
1023,330,340,0,2
381,581,1023,0,2
999,525,554,1,2
545,108,255,2,2
124,16,281,2,2
411,5,919,1,2
1023,366,578,2,2
167,1023,1023,0,2
36,807,804,1,2
169,179,616,2,2
1023,1023,203,0,2
826,944,829,2,2
1023,94,286,2,2
286,467,535,2,2
80,94,730,1,2
892,14,252,2,2
536,7,970,1,2
57,6,1020,1,2
616,5,395,2,2
1023,626,322,0,2
1023,927,278,2,2
907,683,52,2,2
194,418,560,2,2
93,83,197,2,2
377,12,161,2,2
726,5,263,2,2
748,6,155,2,2
626,6,346,2,2
27,6,4,2,2
34,6,150,2,2
250,6,49,2,2
617,7,534,2,2
687,6,338,2,2
722,6,261,2,2
333,6,466,2,2
556,6,595,2,2
378,6,311,2,2
594,1023,1023,0,2
185,954,356,2,2
263,252,130,2,2
125,45,31,2,2
71,5,961,2,2
491,5,771,2,2
148,6,624,2,2
434,6,311,2,2
618,6,284,2,2
488,7,572,2,2
717,7,808,2,2
756,6,704,2,2
1023,1023,7,0,2
122,75,1023,1,2
568,919,1023,0,2
82,720,718,2,2
795,240,1000,1,2
1023,476,880,1,2
607,100,54,2,2
707,15,414,1,2
29,5,1023,2,2
1023,1023,301,0,2
409,1023,909,1,2
1023,374,55,2,2
700,190,372,2,2
99,34,284,2,2
1023,1023,240,0,2
559,1006,518,2,2
568,256,497,2,2
602,46,116,2,2
352,6,252,2,2
1023,1023,115,0,2
489,863,738,1,2
961,207,68,2,2
264,35,660,2,2
1023,1023,10,0,2
689,832,60,2,2
350,196,4,2,2
318,33,280,2,2
500,5,150,2,2
1023,1023,504,0,2
628,707,301,2,2
186,154,424,2,2
103,23,632,2,2
473,5,105,2,2
774,5,77,2,2
36,6,569,2,2
453,6,745,2,2
188,50,320,2,2
352,21,1023,2,2
971,5,203,2,2
707,5,583,2,2
90,6,429,2,2
450,6,319,2,2
58,6,246,2,2
718,6,236,2,2
521,7,836,2,2
756,5,649,2,2
72,246,1023,1,2
664,539,940,1,2
414,918,132,2,2
441,441,589,1,2
335,146,745,1,2
328,24,400,2,2
371,5,103,2,2
240,6,1023,2,2
569,941,305,2,2
534,566,1023,0,2
70,932,577,2,2
38,1023,1023,0,2
223,613,888,1,2
316,143,252,2,2
307,22,562,2,2
959,4,82,2,2
40,800,657,2,2
1023,572,527,0,2
267,1023,667,2,2
80,334,691,1,2
112,288,848,2,2
1023,44,564,2,2
1023,175,261,2,2
454,165,1023,0,2
391,1023,72,2,2
153,286,544,2,2
209,54,90,2,2
62,7,0,2,2
301,5,614,1,2
379,6,281,2,2
101,6,300,2,2
107,6,442,1,2
96,1023,734,0,2
647,775,1023,0,2
794,861,392,2,3
670,235,49,2,3
235,41,637,1,3
649,852,751,1,3
205,580,1023,1,3
663,133,73,2,3
51,21,53,2,3
284,4,96,2,3
512,6,145,2,3
316,6,85,2,3
75,6,338,2,3
218,6,683,2,3
939,7,764,2,3
30,5,520,2,3
518,5,161,2,3
403,65,1023,1,3
982,16,258,2,3
445,165,879,2,3
437,458,196,2,3
365,540,930,2,3
427,112,81,2,3
44,17,163,2,3
631,5,334,2,3
54,5,147,2,3
312,1023,1023,0,3
574,738,1023,1,3
534,843,352,2,3
344,303,539,2,3
623,54,1023,2,3
663,902,28,2,3
40,739,1023,0,3
1023,148,688,1,3
923,452,37,2,3
60,93,64,2,3
126,14,93,2,3
15,4,319,2,3
24,5,338,2,3
817,7,271,1,3
826,6,32,2,3
121,6,28,2,3
233,6,194,2,3
76,6,519,2,3
755,7,463,1,3
83,6,646,2,3
755,6,96,2,3
489,6,24,2,3
541,7,901,1,3
269,5,4,2,3
15,7,923,2,3
748,5,132,2,3
211,7,983,1,3
560,5,570,2,3
288,5,404,2,3
59,6,799,2,3
380,5,232,2,3
97,6,294,2,3
607,6,305,2,3
638,6,16,2,3
560,8,1023,2,3
836,7,1023,1,3
797,665,569,2,3
100,715,1023,0,3
74,772,560,2,3
174,176,0,2,3
183,29,329,2,3
27,4,897,2,3
27,5,581,2,3
1023,7,834,1,3
837,154,116,2,3
362,358,511,2,3
899,68,212,2,3
69,9,663,2,3
597,5,179,2,3
160,6,478,2,3
550,6,251,2,3
642,6,242,2,3
101,6,14,2,3
660,7,713,1,3
331,6,447,2,3
489,7,717,1,3
925,6,522,2,3
534,1023,1023,0,3
646,981,360,2,3
146,233,1023,1,3
526,43,236,2,3
119,5,715,2,3
582,5,209,2,3
2,5,205,2,3
906,7,29,2,3
209,7,723,2,3
825,6,280,2,3
191,6,276,2,3
251,6,219,2,3
629,6,39,2,3
213,7,534,2,3
357,6,824,2,3
468,5,175,2,3
49,6,522,2,3
419,6,209,2,3
3,6,536,2,3
248,6,443,1,3
560,7,946,2,3
599,564,621,1,3
207,552,391,1,3
115,112,264,2,3
10,16,0,2,3
83,4,264,2,3
77,5,204,2,3
81,6,162,2,3
456,6,221,2,3
5,6,281,2,3
171,6,405,2,3
33,6,249,2,3
221,6,50,2,3
517,6,145,2,3
99,7,906,2,3
785,6,492,2,3
308,5,272,2,3
323,6,0,2,3
45,6,558,1,3
91,6,510,2,3
544,7,692,1,3
443,5,25,2,3
329,6,153,2,3
311,6,482,2,3
56,6,82,2,3
174,6,305,2,3
179,6,195,2,3
130,6,284,2,3
100,6,272,2,3
84,6,140,2,3
92,6,134,2,3
380,6,298,2,3
294,6,462,2,3
131,6,252,2,3
545,6,65,2,3
393,6,22,2,3
96,6,234,2,3
236,6,407,2,3
162,6,342,2,3
88,6,268,2,3
378,6,464,2,3
324,6,286,2,3
363,6,501,2,3
184,6,113,2,3
764,7,224,1,3
354,6,220,2,3
233,6,125,2,3
41,6,0,2,3
217,6,139,2,3
59,6,90,2,3
45,6,99,2,3
7,7,578,1,3
221,6,141,2,3
39,6,504,2,3
4,6,184,2,3
159,6,10,2,3
240,6,314,2,3
87,6,65,2,3
205,6,337,2,3
29,6,207,2,3
65,6,149,2,3
189,6,69,2,3
169,6,192,2,3
22,6,72,2,3
57,6,345,1,3
70,6,97,2,3
25,6,18,2,3
87,6,33,2,3
3,6,75,2,3
15,6,105,2,3
33,6,108,2,3
54,6,76,2,3
34,6,2,2,3
0,6,0,2,3
135,6,45,2,3
38,6,116,2,3
133,6,0,2,3
106,6,130,2,3
46,6,113,2,3
46,6,0,2,3
262,6,379,2,3
55,6,0,2,3
224,7,431,2,3
108,6,148,2,3
205,6,66,2,3
85,6,199,2,3
220,6,128,2,3
7,6,120,2,3
294,6,105,2,3
156,6,203,2,3
125,6,39,2,3
13,6,78,2,3
85,6,86,2,3
1,6,12,2,3
134,6,21,2,3
52,6,6,2,3
30,6,53,2,3
20,6,28,2,3
71,6,31,2,3
0,6,15,2,3
20,6,9,2,3
94,6,0,2,3
102,6,21,2,3
98,6,158,2,3
290,6,49,2,3
161,6,238,2,3
24,6,181,2,3
39,6,42,2,3
7,6,131,2,3
119,6,118,2,3
61,6,71,2,3
54,6,22,2,3
4,6,66,2,3
344,6,37,2,3
274,6,7,2,3
120,6,22,2,3
111,6,7,2,3
183,6,57,2,3
62,6,101,2,3
164,6,67,2,3
47,6,127,2,3
36,6,83,2,3
99,6,302,2,3
117,6,68,2,3
177,6,196,2,3
10,6,21,2,3
94,6,0,2,3
0,6,91,2,3
123,6,94,2,3
2,6,117,2,3
38,6,43,2,3
18,6,0,2,3
188,6,238,2,3
24,6,0,2,3
63,6,79,2,3
6,6,32,2,3
234,6,122,2,3
132,6,22,2,3
77,6,122,2,3
55,6,4,2,3
67,6,63,2,3
176,6,87,2,3
11,6,14,2,3
320,6,10,2,3
131,6,70,2,3
51,6,3,2,3
67,6,26,2,3
6,6,20,2,3
0,6,53,2,3
45,6,85,2,3
190,6,0,2,3
25,6,131,2,3
50,6,174,2,3
170,6,8,2,3
3,6,37,2,3
123,6,172,2,3
222,6,30,2,3
122,6,87,2,3
491,6,77,2,3
118,6,440,2,3
344,6,160,2,3
59,6,235,2,3
80,6,27,2,3
471,6,91,2,3
66,6,325,2,3
301,6,175,2,3
36,6,0,2,3
40,6,125,2,3
315,6,214,2,3
296,6,16,2,3
279,6,350,2,3
22,6,232,2,3
801,6,57,2,3
934,7,176,2,3
504,6,0,2,3
40,6,54,2,3
236,6,75,2,3
199,6,15,2,3
512,6,296,2,3
687,6,389,2,3
189,124,686,2,3
17,70,566,2,3
272,9,463,1,3
56,5,186,1,3
316,7,769,2,3
6,7,838,2,3
345,5,94,2,3
45,6,457,2,3
265,6,124,2,3
391,6,53,2,3
479,6,153,2,3
365,6,184,2,3
340,6,417,2,3
58,7,723,2,3
976,6,147,2,3
123,7,840,1,3
710,6,786,2,3
628,60,286,2,3
1023,1023,1023,0,3
347,830,331,2,3
220,205,336,2,3
132,35,512,2,3
364,5,642,2,3
119,5,29,2,3
457,7,1008,2,3
255,1023,1023,0,3
303,1023,554,1,3
891,614,1023,0,3
574,1023,151,2,3
1023,1023,1023,0,3
480,1023,621,2,3
278,614,129,2,3
229,74,1023,1,3
1023,358,1020,1,3
693,234,1023,2,3
979,299,1023,0,3
600,1023,384,2,3
143,771,1023,0,3
514,1023,814,2,3
287,801,675,2,3
1023,1023,893,0,3
90,807,347,2,3
1023,1023,1023,0,3
732,1023,796,2,3
73,542,644,2,3
107,382,488,2,3
358,77,0,2,3
248,12,107,2,3
171,5,164,2,3
517,6,231,2,3
431,6,157,2,3
58,7,614,2,3
564,6,450,2,3
481,8,1023,2,3
903,5,165,2,3
273,1023,1023,0,3
1023,128,974,0,3
408,686,860,1,3
83,159,125,2,3
981,25,1,2,3
616,5,1023,2,3
909,5,466,2,3
210,5,184,2,3
159,9,1023,1,3
1023,1023,160,0,3
551,289,1023,0,3
1023,59,1023,0,3
88,888,45,2,3
969,981,1023,1,3
788,304,832,2,3
599,60,790,1,3
317,9,410,2,3
965,4,392,2,3
378,1023,1023,0,3
834,1023,1023,1,3
147,948,923,2,3
43,468,760,2,3
311,93,649,1,3
621,14,674,2,3
405,4,601,2,3
776,7,916,2,3
483,5,194,2,3
183,5,25,2,3
433,6,225,2,3
165,7,865,2,3
176,6,485,2,3
245,6,450,2,3
266,6,179,2,3
13,6,109,2,3
417,6,209,2,3
10,6,100,2,3
110,6,168,2,3
299,7,776,2,3
610,64,1023,1,3
597,9,519,2,3
174,6,553,1,3
607,467,1023,2,3
74,74,369,2,3
688,215,917,1,3
49,396,1023,0,3
59,794,322,2,3
701,238,695,2,3
62,43,241,2,3
271,6,38,2,3
4,5,0,2,3
784,6,507,2,3
249,6,348,2,3
734,6,261,2,3
1023,6,3,2,3
185,809,164,2,3
936,261,180,2,3
116,47,464,2,3
386,6,343,2,3
346,6,1012,2,3
345,1023,1023,0,3
734,1023,248,2,3
8,331,1023,2,3
729,65,87,2,3
50,8,662,2,3
586,5,86,2,3
18,6,653,1,3
691,6,317,2,3
843,6,339,2,3
145,6,527,2,3
816,7,741,1,3
318,6,427,2,3
11,5,551,2,3
747,33,622,2,3
559,78,535,2,3
59,11,355,2,3
610,5,886,2,3
468,5,531,2,3
270,9,376,2,3
353,25,269,2,3
1023,1023,22,0,3
1023,739,1023,2,3
628,251,64,2,3
230,1023,1023,0,3
280,1023,32,1,3
154,541,768,2,3
1023,111,367,2,3
179,5,1023,1,3
540,494,1023,0,3
1023,761,1023,1,3
122,853,229,2,3
477,804,1023,0,3
82,369,71,2,3
761,76,833,2,3
832,12,0,2,3
28,5,94,2,3
160,6,41,2,3
277,6,168,2,3
503,7,432,2,3
72,6,465,2,3
293,6,434,2,3
580,1023,790,0,3
346,370,1023,0,3
723,616,392,2,3
530,416,697,1,3
336,82,655,2,3
253,13,71,2,3
187,1023,1023,0,3
1023,1023,193,2,3
170,898,864,2,3
717,261,603,1,3
78,55,673,2,3
515,8,139,2,3
227,5,568,2,3
102,5,163,2,3
12,7,719,1,3
497,6,52,2,3
208,6,110,2,3
681,6,109,2,3
556,6,390,2,3
590,6,61,2,3
171,7,539,2,3
258,6,106,2,3
285,7,597,2,3
233,6,440,1,3
237,6,652,2,3
210,5,136,2,3
56,6,162,2,3
477,6,3,2,3
204,8,1023,2,3
756,6,199,2,3
278,6,680,2,3
847,6,594,2,3
241,5,0,2,3
353,6,262,2,3
100,6,521,2,3
300,6,173,2,3
169,6,426,2,3
58,7,777,2,3
132,5,290,2,3
464,6,250,2,3
106,6,474,2,3
87,6,57,2,3
740,8,1023,2,3
700,643,768,2,3
804,290,647,2,3
207,54,484,1,3
257,7,202,2,3
55,5,18,2,3
357,6,261,2,3
526,6,133,2,3
813,6,104,2,3
37,6,30,2,3
113,6,407,2,3
234,6,43,2,3
9,6,66,2,3
18,6,100,2,3
128,6,189,2,3
251,8,859,2,3
1023,619,137,0,3
23,1023,937,2,3
1023,330,185,2,3
484,62,609,2,3
723,9,93,2,3
111,5,551,1,3
263,5,1,2,3
30,7,763,2,3
549,7,793,2,3
710,6,762,2,3
124,6,506,2,3
1023,76,63,1,3
436,833,428,2,3
219,274,706,2,3
758,48,600,1,3
223,6,1023,2,3
248,855,282,2,3
271,336,729,2,3
217,64,527,1,3
495,9,272,2,3
18,5,349,2,3
268,6,394,2,3
144,6,329,2,3
18,6,197,2,3
444,7,602,1,3
545,7,635,2,3
283,6,447,2,3
272,6,66,2,3
217,6,30,2,3
20,7,805,2,3
349,6,107,2,3
342,6,300,2,3
216,6,183,2,3
72,6,210,2,3
45,6,0,2,3
59,7,279,2,3
458,6,151,2,3
214,6,67,2,3
165,6,435,2,3
204,6,114,2,3
12,6,260,2,3
39,6,238,2,3
122,7,626,2,3
391,6,321,2,3
500,1023,1023,0,3
511,721,165,2,3
143,181,273,2,3
17,30,24,2,3
199,5,324,2,3
300,5,120,2,3
54,6,415,2,3
313,7,538,1,3
353,6,1,2,3
277,6,380,2,3
60,6,149,2,3
486,6,344,2,3
221,6,269,2,3
96,6,497,2,3
81,6,0,2,3
103,6,397,1,3
58,6,147,2,3
103,6,313,2,3
45,6,128,2,3
173,6,168,2,3
5,6,239,2,3
9,6,96,2,3
144,6,253,2,3
71,6,231,2,3
14,6,137,2,3
61,6,116,2,3
114,6,50,2,3
231,7,486,2,3
233,6,58,2,3
14,6,179,2,3
87,6,228,2,3
3,6,114,2,3
77,6,127,2,3
2,6,45,2,3
5,6,39,2,3
29,6,77,2,3
7,6,24,2,3
20,6,15,2,3
149,6,48,2,3
111,6,49,2,3
71,6,0,2,3
13,6,209,2,3
138,7,387,2,3
42,6,0,2,3
75,6,174,2,3
170,7,425,2,3
143,6,40,2,3
1,6,79,2,3
223,6,127,2,3
59,6,42,2,3
19,6,52,2,3
143,6,82,2,3
77,6,17,2,3
17,6,107,2,3
134,6,23,2,3
61,6,84,2,3
108,6,0,2,3
25,6,23,2,3
201,6,28,2,3
98,6,2,2,3
183,6,49,2,3
69,6,147,2,3
88,6,81,2,3
52,6,0,2,3
91,6,149,2,3
56,6,154,2,3
21,6,144,2,3
75,6,207,2,3
97,6,11,2,3
84,6,64,2,3
144,6,14,2,3
12,6,29,2,3
21,6,0,2,3
1,6,42,2,3
21,6,71,2,3
130,6,28,2,3
54,6,107,2,3
2,6,43,2,3
108,6,2,2,3
29,6,2,2,3
149,6,112,2,3
4,6,84,2,3
49,6,64,2,3
95,6,153,2,3
66,6,3,2,3
79,6,201,2,3
248,6,50,2,3
110,6,184,2,3
73,6,46,2,3
2,6,99,2,3
91,6,0,2,3
103,6,192,2,3
48,6,163,2,3
70,6,189,2,3
55,6,0,2,3
169,6,55,2,3
106,6,0,2,3
97,6,78,2,3
9,6,0,2,3
11,6,23,2,3
84,7,381,2,3
263,6,49,2,3
41,6,86,2,3
111,6,97,2,3
170,6,110,2,3
108,6,26,2,3
146,6,0,2,3
0,7,300,2,3
96,6,0,2,3
60,6,0,2,3
38,6,102,2,3
42,6,80,2,3
55,6,160,2,3
274,6,136,2,3
22,7,574,1,3
57,6,519,2,3
399,6,228,2,3
8,6,212,2,3
424,6,208,2,3
57,6,93,2,3
580,6,0,2,3
19,6,301,2,3
541,6,268,2,3
118,6,463,2,3
103,6,476,1,3
1023,1023,241,0,3
701,755,464,2,3
438,171,292,2,3
9,28,337,2,3
473,5,305,2,3
203,6,502,2,3
680,6,336,2,3
93,5,177,2,3
366,6,47,2,3
119,6,372,2,3
22,6,276,2,3
26,6,390,2,3
497,6,137,2,3
111,6,555,2,3
131,6,365,2,3
110,6,456,2,3
173,6,155,2,3
163,7,795,2,3
835,8,1023,2,3
56,5,81,2,3
3,6,380,2,3
94,6,613,2,3
168,6,129,2,3
85,7,844,2,3
249,36,868,2,3
318,23,738,2,3
171,5,992,1,3
241,5,127,2,3
372,6,445,2,3
15,6,299,2,3
895,1023,1023,0,3
1023,1023,161,1,3
718,62,1023,0,3
794,1023,463,2,3
846,448,750,2,3
657,93,456,2,3
385,14,633,2,3
113,1023,1023,0,3
1023,287,1023,0,3
198,1023,802,1,3
874,626,896,1,3
290,382,315,2,3
219,75,459,2,3
125,11,379,2,3
745,5,201,2,3
436,6,552,2,3
689,1023,447,0,3
1023,610,562,2,3
1023,332,573,2,3
1023,515,112,2,3
398,824,509,2,3
279,458,33,2,3
128,90,629,2,3
843,12,278,2,3
246,4,59,2,3
814,140,47,2,3
336,51,538,2,3
138,7,327,2,3
1023,338,347,0,3
275,1003,99,2,3
283,342,707,2,3
26,66,206,2,3
3,7,886,1,3
664,5,484,2,3
72,1023,952,0,3
530,668,1023,0,3
1023,369,161,0,3
31,384,1023,0,3
897,589,747,2,3
722,145,706,1,3
281,27,122,2,3
736,5,578,2,3
226,5,444,2,3
521,6,263,2,3
1023,1023,575,0,3
192,1023,209,2,3
289,347,430,2,3
111,64,1023,1,3
240,13,99,2,3
216,4,223,2,3
437,929,1023,0,3
177,1023,574,1,3
1023,1023,1023,0,3
1023,1023,113,1,3
319,484,1023,0,3
157,1023,275,2,3
211,427,502,2,3
834,86,0,2,3
33,13,138,2,3
308,5,76,2,3
701,5,136,2,3
150,6,272,2,3
279,6,141,2,3
525,6,91,2,3
640,6,179,2,3
984,7,866,1,3
846,637,435,2,3
787,477,428,2,3
3,96,448,2,3
703,12,681,1,3
1012,1023,1023,0,3
12,814,88,2,3
473,181,956,2,3
555,50,572,1,3
376,7,88,2,3
49,5,210,2,3
650,6,271,2,3
498,6,287,2,3
543,6,33,2,3
712,7,56,2,3
33,6,449,2,3
779,6,294,2,3
233,7,973,1,3
1023,1023,370,0,3
433,628,1023,0,3
1023,514,115,0,3
958,678,1023,0,3
755,1023,142,2,3
43,355,1023,1,3
514,326,441,1,3
131,73,584,2,3
238,11,6,2,3
474,1023,1023,0,3
558,823,425,1,3
314,646,1023,0,3
511,1015,572,2,3
499,818,1023,0,3
39,901,393,2,3
623,1020,1023,0,3
1023,409,99,2,3
407,131,622,2,3
274,22,462,2,3
0,5,389,2,3
375,6,847,2,3
12,5,132,2,3
532,6,74,2,3
765,7,195,2,3
898,1023,136,0,3
50,725,1023,2,3
63,100,995,2,3
619,638,1023,0,3
1023,577,6,0,3
113,917,414,2,3
36,839,1023,0,3
1023,595,103,2,3
71,1023,1023,0,3
495,1023,152,1,3
264,814,838,2,3
182,185,332,2,3
385,31,411,2,3
598,5,137,2,3
70,5,387,2,3
137,6,808,2,3
1023,70,11,0,3
543,738,997,2,3
461,234,15,2,3
169,996,1023,0,3
88,215,315,2,3
4,41,807,2,3
129,6,339,2,3
636,7,978,1,3
840,297,372,1,3
277,162,425,2,3
378,64,437,2,3
249,9,484,2,3
193,5,446,2,3
985,6,431,2,3
31,587,699,2,3
549,295,221,2,3
396,55,163,2,3
189,7,12,2,3
227,5,114,2,3
564,8,1001,1,3
343,5,219,2,3
222,6,373,2,3
332,6,249,2,3
252,6,294,2,3
208,6,429,2,3
286,6,461,1,3
48,6,248,2,3
316,6,483,2,3
239,6,87,2,3
737,6,187,2,3
613,6,220,2,3
6,6,7,2,3
493,6,276,2,3
325,6,295,2,3
205,6,0,2,3
43,7,568,2,3
1023,786,553,0,3
643,1023,720,1,3
980,655,265,2,3
294,140,350,2,3
621,21,567,2,3
14,5,149,2,3
319,5,411,2,3
90,6,134,2,3
366,1023,1023,0,3
993,1023,309,2,3
212,738,1023,0,3
268,823,688,2,3
101,191,201,2,3
3,31,776,2,3
149,5,563,2,3
74,1023,1023,0,3
167,1023,812,1,3
502,333,869,1,3
274,424,891,2,3
722,85,821,1,3
395,14,188,2,3
57,4,539,1,3
77,5,115,2,3
253,6,78,2,3
330,6,17,2,3
383,7,747,2,3
379,6,368,1,3
359,7,1023,1,3
96,5,40,2,3
622,5,314,2,3
610,6,99,2,3
170,6,44,2,3
474,6,48,2,3
81,6,313,2,3
137,7,562,1,3
347,6,716,2,3
227,6,527,2,3
793,6,134,2,3
6,6,145,2,3
78,7,476,1,3
123,7,816,2,3
207,5,134,2,3
1010,8,734,1,3
662,5,103,2,3
615,6,280,2,3
18,5,225,2,3
239,6,130,2,3
243,6,46,2,3
208,6,0,2,3
402,6,271,2,3
204,6,337,2,3
619,6,178,2,3
417,7,865,1,3
46,5,77,2,3
152,6,611,2,3
237,6,113,2,3
294,6,163,2,3
295,7,679,1,3
826,6,139,2,3
555,8,1023,1,3
81,13,270,2,3
842,4,410,2,3
72,6,417,2,3
425,6,4,2,3
318,6,167,2,3
5,6,380,1,3
164,6,396,2,3
952,7,15,2,3
525,905,376,2,3
1023,384,141,2,3
389,237,653,2,3
848,52,57,2,3
437,11,768,2,3
577,5,320,2,3
180,5,509,2,3
500,6,477,2,3
264,6,279,2,3
126,6,553,2,3
474,6,0,2,3
316,6,128,2,3
461,6,124,2,3
26,6,110,2,3
347,6,76,2,3
183,6,129,2,3
8,6,44,2,3
105,6,0,2,3
63,6,153,2,3
121,6,146,2,3
53,6,129,2,3
29,6,213,2,3
114,6,32,2,3
65,6,90,2,3
188,6,0,2,3
250,6,190,2,3
366,6,91,2,3
200,6,34,2,3
121,6,274,2,3
118,6,160,2,3
273,7,747,2,3
30,6,0,2,3
44,6,305,2,3
394,6,152,2,3
82,6,248,2,3
241,6,155,2,3
256,6,252,1,3
125,6,248,2,3
201,6,124,2,3
119,6,17,2,3
86,6,89,2,3
74,6,81,2,3
124,6,114,2,3
139,6,130,2,3
69,6,124,2,3
32,6,0,2,3
27,6,51,2,3
2,6,108,2,3
332,6,49,2,3
39,6,288,2,3
137,7,417,2,3
73,6,0,2,3
2,6,160,2,3
3,6,155,2,3
204,6,128,2,3
575,6,135,2,3
129,6,123,2,3
51,6,0,2,3
47,6,16,2,3
2,6,25,2,3
150,6,68,2,3
110,6,13,2,3
45,6,11,2,3
75,6,72,2,3
36,6,39,2,3
143,6,0,2,3
164,6,11,2,3
95,6,30,2,3
89,6,0,2,3
97,6,35,2,3
82,6,29,2,3
76,6,22,2,3
36,6,0,2,3
6,6,0,2,3
19,6,37,2,3
67,6,0,2,3
0,6,139,2,3
6,6,0,2,3
31,6,0,2,3
110,6,4,2,3
76,6,34,2,3
27,6,13,2,3
28,6,0,2,3
62,6,34,2,3
25,6,0,2,3
60,6,228,1,3
36,6,2,2,3
8,6,33,2,3
0,6,3,2,3
29,6,40,2,3
1,6,39,2,3
48,6,0,2,3
167,6,0,2,3
118,6,12,2,3
153,6,13,2,3
16,6,18,2,3
143,6,0,2,3
70,6,19,2,3
110,6,12,2,3
80,6,0,2,3
81,6,1,2,3
74,6,55,2,3
56,6,34,2,3
0,6,0,2,3
44,6,0,2,3
35,6,34,2,3
45,6,8,2,3
7,6,41,2,3
165,6,0,2,3
123,6,20,2,3
0,6,10,2,3
18,6,0,2,3
49,6,26,2,3
10,6,0,2,3
97,6,38,2,3
97,6,0,2,3
33,6,9,2,3
7,6,5,2,3
7,6,0,2,3
1,6,0,2,3
15,6,0,2,3
6,6,0,2,3
15,6,0,2,3
70,6,0,2,3
77,6,0,2,3
78,6,5,2,3
7,6,0,2,3
60,6,0,2,3
95,6,0,2,3
26,6,0,2,3
23,6,1,2,3
49,6,0,2,3
16,6,5,2,3
3,6,11,2,3
125,6,0,2,3
109,6,0,2,3
80,6,0,2,3
77,6,0,2,3
114,6,32,2,3
253,6,0,2,3
61,6,13,2,3
108,6,3,2,3
4,6,17,2,3
10,6,16,2,3
7,6,18,2,3
24,6,0,2,3
84,6,35,2,3
81,6,69,2,3
83,6,0,2,3
28,6,92,2,3
15,6,34,2,3
4,6,19,2,3
44,6,0,2,3
101,6,18,2,3
10,6,21,2,3
44,6,24,2,3
43,6,0,2,3
33,6,0,2,3
68,6,33,2,3
57,6,122,2,3
34,6,25,2,3
33,6,62,2,3
87,6,102,2,3
235,6,0,2,3
158,6,140,2,3
107,6,168,2,3
39,6,101,2,3
247,6,71,2,3
53,6,12,2,3
47,6,0,2,3
14,6,156,2,3
57,6,27,2,3
11,6,69,2,3
13,6,134,2,3
79,6,132,2,3
130,6,139,2,3
48,6,73,2,3
15,6,139,2,3
133,6,39,2,3
27,6,140,2,3
37,6,18,2,3
23,6,261,2,3
99,6,76,2,3
111,6,104,2,3
11,6,216,2,3
112,6,290,2,3
59,6,194,2,3
201,6,66,2,3
69,6,183,2,3
288,6,232,2,3
260,6,101,2,3
134,6,237,2,3
428,7,753,2,3
91,6,211,2,3
337,6,379,2,3
293,6,0,2,3
546,6,409,2,3
740,6,70,2,3
157,6,502,2,3
112,6,53,2,3
37,6,532,2,3
145,6,420,2,3
179,7,938,1,3
519,796,572,2,3
207,432,391,2,3
391,83,1023,0,3
570,103,186,2,3
927,1023,1023,0,3
1023,1023,214,1,3
1001,993,930,2,3
361,363,24,2,3
423,70,356,2,3
228,10,328,2,3
485,5,492,2,3
481,5,612,2,3
1023,11,150,2,3
82,5,335,2,3
785,6,0,2,3
333,6,77,2,3
298,7,941,1,3
407,5,217,2,3
37,6,318,2,3
628,6,288,2,3
377,6,120,2,3
1023,9,1023,1,3
314,73,455,2,3
805,10,930,1,3
86,35,611,1,3
292,11,357,2,3
188,5,397,1,3
144,6,734,2,3
389,6,441,2,3
138,7,702,1,3
1023,298,574,1,3
654,29,92,2,3
464,5,812,2,3
225,5,561,1,3
268,6,733,1,3
625,1023,947,1,3
1023,748,1023,0,3
264,1023,331,0,3
990,867,673,2,3
184,202,270,2,3
178,34,395,1,3
774,5,805,2,3
718,5,5,2,3
605,69,717,2,3
962,18,919,1,3
665,4,919,2,3
431,650,647,2,3
721,1023,1023,0,3
924,1023,297,2,3
1023,1023,1023,0,3
1023,531,516,0,3
509,1023,298,2,3
97,429,188,2,3
191,85,729,2,3
1023,1023,900,0,3
435,1023,197,1,3
1023,222,873,2,3
389,347,1023,0,3
528,1023,333,2,3
749,945,1023,0,3
272,660,584,2,3
715,470,17,2,3
474,153,391,1,3
370,24,916,1,3
432,5,853,2,3
189,133,697,1,3
676,1023,1023,0,3
270,1023,53,2,3
710,378,498,2,3
398,74,132,2,3
46,1023,1023,0,3
396,646,1023,1,3
340,1002,1023,1,3
795,1023,965,2,3
937,257,571,2,3
690,50,48,2,3
857,732,547,2,3
111,546,893,2,3
1016,497,1023,0,3
690,1023,579,1,3
122,511,1023,0,3
73,1017,190,2,3
428,909,1023,0,3
71,773,341,2,3
279,178,755,1,3
268,32,532,2,3
1023,1023,176,0,3
614,846,22,2,3
1023,384,43,2,3
1023,180,523,1,3
399,187,660,2,3
408,33,268,2,3
831,5,371,2,3
123,5,764,2,3
417,91,355,2,3
27,54,453,1,3
773,7,641,1,3
854,5,127,2,3
578,5,343,2,3
566,93,422,2,3
45,25,722,2,3
288,5,478,2,3
1023,264,23,2,3
88,21,718,2,3
1023,1023,249,0,3
666,776,595,2,3
1010,195,250,2,3
985,31,755,2,3
247,6,130,2,3
589,5,344,2,3
1023,75,649,0,3
65,74,306,2,3
209,11,694,2,3
1019,5,95,2,3
243,488,1023,0,3
634,1000,373,2,3
29,261,1023,2,3
1023,798,249,0,3
295,785,1023,1,3
699,215,413,1,3
535,37,561,2,3
750,5,115,2,3
661,6,904,2,3
127,5,495,2,3
908,1023,33,0,3
698,541,774,1,3
379,117,442,1,3
264,1023,1023,0,3
1023,817,42,2,3
664,203,637,2,3
273,35,581,2,3
488,108,1023,0,3
171,140,205,2,3
123,25,990,1,3
396,5,0,2,3
222,1023,1023,0,3
243,609,683,1,3
230,154,821,2,3
1023,53,4,2,3
681,7,330,2,3
437,5,206,2,3
49,5,418,2,3
80,7,654,1,3
145,7,989,2,3
1023,8,299,2,3
198,189,999,2,3
753,1023,607,0,3
156,540,416,2,3
772,216,869,1,3
1023,1023,14,0,3
114,541,397,2,3
842,111,515,2,3
658,17,374,2,3
252,4,515,2,3
130,6,44,2,3
741,6,366,1,3
184,356,770,1,3
1023,334,501,2,3
229,541,1023,1,3
759,266,11,2,3
683,48,968,1,3
755,7,371,2,3
154,6,1023,2,3
162,5,42,2,3
497,7,780,2,3
305,1023,1023,0,3
893,1023,295,1,3
345,937,1023,2,3
529,246,270,2,3
585,44,233,2,3
637,7,22,2,3
430,5,736,1,3
312,5,54,2,3
259,6,246,2,3
6,6,640,1,3
887,7,424,2,3
57,229,1023,0,3
295,760,400,2,3
283,179,321,2,3
586,30,1,2,3
568,5,413,2,3
481,5,15,2,3
18,6,569,2,3
138,6,55,2,3
10,6,406,2,3
90,6,390,2,3
269,6,312,2,3
75,6,416,2,3
279,6,355,2,3
267,6,160,2,3
124,6,328,2,3
77,6,352,2,3
675,6,2,2,3
10,7,493,2,3
492,7,839,1,3
344,6,375,2,3
438,282,794,2,3
850,484,435,2,3
118,98,549,2,3
145,13,779,1,3
294,69,420,2,3
376,36,733,2,3
109,5,627,2,3
390,5,383,2,3
503,6,80,2,3
197,6,0,2,3
534,8,929,1,3
260,5,144,2,3
487,6,586,2,3
245,6,512,2,3
570,7,956,2,3
399,6,682,1,3
408,6,661,1,3
789,7,798,1,3
560,6,596,1,3
570,6,751,1,3
237,6,678,2,3
696,6,317,2,3
209,7,1023,2,3
550,5,105,2,3
169,6,362,2,3
668,7,722,2,3
455,5,173,2,3
33,6,164,2,3
500,6,92,2,3
789,7,545,1,3
26,7,910,2,3
827,6,53,2,3
451,7,1023,2,3
703,5,0,2,3
106,7,878,1,3
647,6,329,2,3
800,6,310,1,3
311,5,53,2,3
358,6,296,2,3
13,6,126,2,3
868,7,227,2,3
16,7,572,1,3
649,6,384,2,3
28,6,466,1,3
1023,1023,58,0,3
253,675,315,2,3
995,166,269,2,3
8,28,186,2,3
908,4,523,2,3
249,5,593,2,3
165,6,910,1,3
6,5,207,2,3
328,6,95,2,3
467,6,105,2,3
93,6,214,2,3
11,7,506,2,3
209,6,450,1,3
150,6,497,2,3
211,6,367,2,3
148,6,355,2,3
160,6,406,2,3
227,6,348,2,3
218,6,200,2,3
358,6,339,1,3
637,7,429,2,3
351,7,676,2,3
495,6,229,2,3
188,7,912,2,3
347,5,267,2,3
129,6,293,2,3
464,6,197,2,3
102,6,233,2,3
404,6,126,2,3
208,6,442,2,3
105,6,190,2,3
254,7,883,2,3
18,5,42,2,3
28,6,526,2,3
12,6,76,2,3
62,6,314,2,3
117,7,746,2,3
581,6,0,2,3
1023,1023,233,0,3
280,624,26,2,3
1023,141,134,2,3
117,24,289,2,3
111,5,344,1,3
157,5,127,2,3
659,6,148,2,3
155,6,116,2,3
774,6,98,2,3
27,6,253,2,3
119,6,32,2,3
154,6,125,2,3
150,6,8,2,3
54,6,124,2,3
158,6,103,2,3
156,6,47,2,3
260,6,174,1,3
106,6,154,2,3
145,6,131,2,3
119,6,119,2,3
79,6,58,2,3
56,7,600,1,3
44,6,0,2,3
10,6,220,2,3
47,6,119,2,3
109,6,1,2,3
164,6,101,2,3
228,6,169,2,3
284,6,112,2,3
44,6,134,2,3
388,6,177,2,3
209,6,7,2,3
81,6,16,2,3
109,6,2,2,3
94,6,173,2,3
129,6,95,2,3
56,6,362,2,3
86,6,72,2,3
6,6,179,2,3
55,6,88,2,3
18,6,0,2,3
0,6,291,2,3
35,6,0,2,3
101,6,19,2,3
62,6,15,2,3
88,6,79,2,3
19,6,0,2,3
79,6,15,2,3
136,6,15,2,3
97,6,0,2,3
4,6,6,2,3
315,6,0,2,3
23,6,5,2,3
94,6,0,2,3
11,6,34,2,3
67,6,70,2,3
112,6,122,2,3
75,6,29,2,3
102,6,112,2,3
219,6,0,2,3
9,6,0,2,3
81,6,63,2,3
135,6,35,2,3
133,6,9,2,3
11,6,0,2,3
4,6,0,2,3
28,6,0,2,3
214,6,0,2,3
23,6,0,2,3
86,6,0,2,3
78,6,0,2,3
61,6,11,2,3
22,6,64,2,3
229,6,31,2,3
95,6,34,2,3
141,6,50,2,3
13,6,23,2,3
151,6,17,2,3
98,6,154,2,3
60,6,104,2,3
55,6,185,2,3
116,6,184,2,3
34,6,63,2,3
87,6,21,2,3
72,6,59,2,3
120,6,66,2,3
16,6,1,2,3
14,6,16,2,3
83,6,0,2,3
19,6,3,2,3
151,6,11,2,3
7,6,3,2,3
41,6,0,2,3
36,6,4,2,3
91,6,14,2,3
21,6,0,2,3
93,6,27,2,3
78,6,0,2,3
118,6,29,2,3
110,6,0,2,3
73,6,0,2,3
1,7,14,2,3
32,6,13,2,3
7,6,4,2,3
4,6,0,2,3
19,6,1,2,3
2,6,0,2,3
7,6,0,2,3
24,6,0,2,3
51,6,0,2,3
66,6,0,2,3
0,6,0,2,3
71,6,0,2,3
137,6,0,2,3
35,6,0,2,3
99,6,10,2,3
57,6,0,2,3
88,6,0,2,3
2,6,0,2,3
3,6,0,2,3
19,6,0,2,3
1,6,0,2,3
2,6,17,2,3
23,6,0,2,3
36,6,0,2,3
0,6,24,2,3
28,6,0,2,3
4,6,2,2,3
57,6,0,2,3
108,6,0,2,3
51,6,0,2,3
9,6,0,2,3
76,6,10,2,3
96,6,0,2,3
45,6,0,2,3
25,6,11,2,3
25,6,0,2,3
63,6,0,2,3
4,6,12,2,3
0,6,0,2,3
0,6,0,2,3
63,6,0,2,3
16,6,9,2,3
59,6,0,2,3
2,6,0,2,3
10,6,1,2,3
53,6,0,2,3
65,6,0,2,3
22,6,0,2,3
116,6,0,2,3
93,6,0,2,3
28,6,0,2,3
48,6,18,2,3
14,6,0,2,3
47,6,0,2,3
87,6,0,2,3
143,6,0,2,3
11,6,0,2,3
58,6,4,2,3
15,6,4,2,3
50,6,0,2,3
6,6,0,2,3
126,6,14,2,3
31,6,0,2,3
20,6,0,2,3
64,6,1,2,3
1,6,0,2,3
9,6,0,2,3
37,6,0,2,3
26,6,0,2,3
95,6,0,2,3
36,6,0,2,3
3,6,9,2,3
21,6,0,2,3
12,6,0,2,3
38,6,18,2,3
66,6,11,2,3
20,6,0,2,4
83,6,29,2,4
36,6,0,2,4
22,6,0,2,4
49,6,47,2,4
7,6,28,2,4
61,6,0,2,4
31,6,51,2,4
5,6,0,2,4
14,6,0,2,4
16,6,11,2,4
57,6,38,2,4
3,6,0,2,4
0,6,22,2,4
82,6,0,2,4
32,6,0,2,4
53,6,0,2,4
97,6,0,2,4
78,6,6,2,4
31,6,0,2,4
9,6,0,2,4
35,6,0,2,4
115,6,0,2,4
28,6,0,2,4
36,6,9,2,4
19,6,0,2,4
44,6,0,2,4
45,6,0,2,4
141,6,31,2,4
27,6,20,2,4
83,6,0,2,4
85,6,33,2,4
21,6,3,2,4
85,6,0,2,4
12,6,0,2,4
34,6,0,2,4
125,6,4,2,4
31,6,3,2,4
70,6,14,2,4
12,6,0,2,4
61,6,0,2,4
108,6,2,2,4
11,6,0,2,4
45,6,5,2,4
42,6,30,2,4
65,6,64,2,4
31,6,0,2,4
32,6,0,2,4
47,6,0,2,4
69,6,24,2,4
0,6,30,2,4
75,6,9,2,4
22,6,20,2,4
50,6,0,2,4
16,6,9,2,4
6,6,6,2,4
82,6,7,2,4
103,6,0,2,4
106,6,0,2,4
40,6,0,2,4
47,6,0,2,4
159,6,0,2,4
9,6,2,2,4
58,6,0,2,4
60,6,0,2,4
24,6,0,2,4
28,6,0,2,4
1,6,0,2,4
36,6,8,2,4
62,6,0,2,4
118,6,0,2,4
17,6,0,2,4
86,6,0,2,4
43,6,0,2,4
36,6,0,2,4
43,6,5,2,4
79,6,0,2,4
6,6,0,2,4
134,6,2,2,4
7,6,0,2,4
66,6,0,2,4
30,6,0,2,4
5,6,7,2,4
136,6,0,2,4
92,6,0,2,4
57,6,15,2,4
72,6,0,2,4
71,6,0,2,4
87,6,14,2,4
65,6,0,2,4
7,6,0,2,4
18,6,0,2,4
16,6,1,2,4
66,6,0,2,4
56,6,0,2,4
14,6,4,2,4
83,6,0,2,4
30,6,0,2,4
78,6,3,2,4
88,6,0,2,4
2,6,0,2,4
9,6,6,2,4
0,6,6,2,4
64,6,5,2,4
36,6,0,2,4
0,6,7,2,4
22,6,0,2,4
67,6,0,2,4
36,6,1,2,4
64,6,0,2,4
25,6,0,2,4
73,6,0,2,4
2,6,0,2,4
88,6,0,2,4
54,6,0,2,4
61,6,2,2,4
65,6,0,2,4
6,6,0,2,4
4,6,5,2,4
13,6,0,2,4
83,6,0,2,4
24,6,4,2,4
5,6,1,2,4
161,6,18,2,4
94,6,1,2,4
136,6,0,2,4
0,6,0,2,4
9,6,0,2,4
10,6,0,2,4
154,6,0,2,4
94,6,0,2,4
20,6,2,2,4
67,6,0,2,4
82,6,0,2,4
52,6,0,2,4
93,6,15,2,4
4,6,0,2,4
10,6,0,2,4
36,6,3,2,4
13,6,5,2,4
0,6,0,2,4
13,6,12,2,4
2,6,10,2,4
23,6,2,2,4
83,6,3,2,4
15,6,0,2,4
9,7,0,2,4
45,6,0,2,4
12,6,25,2,4
60,6,41,2,4
19,6,27,2,4
37,6,0,2,4
69,6,76,2,4
37,6,12,2,4
102,6,59,2,4
12,6,0,2,4
33,6,108,2,4
38,6,0,2,4
23,6,40,2,4
38,6,11,2,4
1,6,3,2,4
1,6,9,2,4
29,6,8,2,4
74,6,0,2,4
30,6,0,2,4
0,6,7,2,4
108,6,0,2,4
13,6,0,2,4
94,6,15,2,4
43,6,41,2,4
123,6,0,2,4
116,6,80,2,4
2,6,0,2,4
35,6,32,2,4
34,6,62,2,4
30,6,0,2,4
10,6,69,2,4
167,6,0,2,4
82,6,43,2,4
103,6,0,2,4
37,6,0,2,4
4,6,11,2,4
75,6,24,2,4
17,6,0,2,4
0,6,0,2,4
45,6,21,2,4
44,6,10,2,4
105,6,4,2,4
31,6,60,2,4
24,6,0,2,4
27,6,12,2,4
48,6,26,2,4
33,6,0,2,4
11,6,21,2,4
23,6,2,2,4
11,6,5,2,4
61,6,0,2,4
13,6,0,2,4
16,6,8,2,4
43,6,0,2,4
9,6,0,2,4
0,6,0,2,4
49,6,0,2,4
65,6,0,2,4
66,6,0,2,4
63,6,5,2,4
36,6,0,2,4
55,6,0,2,4
18,6,0,2,4
0,6,0,2,4
14,6,0,2,4
8,6,5,2,4
13,6,0,2,4
47,6,0,2,4
74,6,0,2,4
17,6,7,2,4
57,6,0,2,4
0,6,0,2,4
66,6,10,2,4
32,6,0,2,4
51,6,0,2,4
15,6,4,2,4
5,6,0,2,4
13,7,0,2,4
86,6,0,2,4
70,6,0,2,4
51,6,0,2,4
46,6,0,2,4
52,6,0,2,4
7,6,0,2,4
110,6,0,2,4
51,6,3,2,4
27,6,0,2,4
27,7,0,2,4
6,6,0,2,4
127,6,0,2,4
58,6,0,2,4
45,6,0,2,4
17,6,11,2,4
25,6,0,2,4
81,6,0,2,4
19,6,0,2,4
6,6,7,2,4
1,6,0,2,4
13,6,0,2,4
17,6,8,2,4
72,6,0,2,4
123,6,2,2,4
11,6,1,2,4
16,6,0,2,4
19,6,0,2,4
40,6,1,2,4
78,6,8,2,4
40,6,0,2,4
27,6,0,2,4
23,6,1,2,4
44,6,0,2,4
1,6,0,2,4
46,6,5,2,4
0,6,0,2,4
11,6,0,2,4
11,6,0,2,4
97,6,2,2,4
38,6,0,2,4
41,6,0,2,4
23,6,6,2,4
5,6,0,2,4
64,6,0,2,4
2,6,7,2,4
43,6,0,2,4
104,6,0,2,4
47,6,0,2,4
150,6,0,2,4
106,6,0,2,4
15,6,0,2,4
45,6,4,2,4
6,6,0,2,4
119,6,0,2,4
110,6,0,2,4
38,6,0,2,4
76,6,0,2,4
6,6,7,2,4
27,6,1,2,4
39,6,0,2,4
8,6,0,2,4
22,6,3,2,4
39,6,0,2,4
47,6,0,2,4
26,6,1,2,4
25,6,0,2,4
81,6,0,2,4
80,6,0,2,4
160,6,0,2,4
113,6,0,2,4
39,6,0,2,4
38,6,0,2,4
24,6,0,2,4
21,6,0,2,4
45,6,7,2,4
20,6,0,2,4
15,6,2,2,4
66,6,1,2,4
158,6,4,2,4
7,6,0,2,4
10,6,0,2,4
38,6,4,2,4
10,6,0,2,4
1,6,0,2,4
12,6,7,2,4
10,6,0,2,4
1,6,0,2,4
45,6,2,2,4
36,6,1,2,4
3,6,0,2,4
50,6,0,2,4
39,6,10,2,4
24,6,0,2,4
16,6,0,2,4
0,6,3,2,4
16,6,0,2,4
25,6,0,2,4
27,6,0,2,4
2,6,6,2,4
3,6,0,2,4
101,6,0,2,4
6,6,3,2,4
9,6,0,2,4
110,6,0,2,4
90,6,0,2,4
41,6,0,2,4
79,6,0,2,4
63,6,4,2,4
103,6,0,2,4
9,6,0,2,4
147,6,0,2,4
0,6,7,2,4
15,6,0,2,4
49,6,0,2,4
15,6,1,2,4
0,6,0,2,4
10,6,0,2,4
79,6,0,2,4
64,6,0,2,4
39,6,0,2,4
5,6,0,2,4
0,6,5,2,4
62,6,0,2,4
126,6,0,2,4
105,6,7,2,4
43,6,0,2,4
14,6,0,2,4
17,6,0,2,4
0,6,3,2,4
0,6,0,2,4
17,6,0,2,4
0,6,2,2,4
44,6,0,2,4
32,6,0,2,4
0,6,4,2,4
31,6,0,2,4
5,6,0,2,4
77,6,0,2,4
3,6,7,2,4
0,6,0,2,4
29,6,0,2,4
21,6,6,2,4
110,6,0,2,4
105,6,0,2,4
17,6,3,2,4
24,6,0,2,4
127,6,0,2,4
8,6,0,2,4
20,6,0,2,4
118,6,0,2,4
55,6,0,2,4
5,6,5,2,4
6,6,0,2,4
47,6,0,2,4
54,6,13,2,4
69,6,0,2,4
2,6,0,2,4
3,6,0,2,4
5,6,0,2,4
5,6,0,2,4
14,6,0,2,4
127,6,12,2,4
66,6,0,2,4
45,6,0,2,4
27,6,7,2,4
109,6,0,2,4
6,6,0,2,4
75,6,4,2,4
80,6,5,2,4
26,6,1,2,4
0,6,0,2,4
50,6,10,2,4
21,6,0,2,4
25,6,0,2,4
2,6,8,2,4
42,6,0,2,4
1,6,0,2,4
1,6,0,2,4
44,6,4,2,4
54,6,0,2,4
77,6,0,2,4
85,6,0,2,4
104,6,0,2,4
4,6,0,2,4
7,7,6,2,4
98,6,6,2,4
27,6,0,2,4
42,6,0,2,4
20,6,6,2,4
56,6,0,2,4
0,6,0,2,4
0,6,0,2,4
131,6,0,2,4
190,6,0,2,4
50,6,0,2,4
41,6,0,2,4
49,6,0,2,4
28,6,1,2,4
19,6,4,2,4
2,6,0,2,4
22,6,0,2,4
12,6,4,2,4
26,6,0,2,4
62,6,0,2,4
0,6,11,2,4
17,6,0,2,4
1,6,0,2,4
74,6,4,2,4
14,6,3,2,4
46,6,0,2,4
100,6,0,2,4
31,6,6,2,4
16,6,0,2,4
1,6,0,2,4
3,7,7,2,4
67,6,1,2,4
52,6,0,2,4
71,6,0,2,4
8,6,4,2,4
87,6,0,2,4
0,6,0,2,4
38,6,3,2,4
45,6,0,2,4
83,6,0,2,4
117,6,0,2,4
42,6,0,2,4
49,6,0,2,4
29,6,3,2,4
40,6,0,2,4
9,6,0,2,4
37,6,0,2,4
1,6,14,2,4
69,6,0,2,4
50,6,0,2,4
94,6,3,2,4
5,6,1,2,4
101,6,0,2,4
79,6,0,2,4
0,6,7,2,4
45,6,0,2,4
0,6,0,2,4
53,7,12,2,4
50,6,0,2,4
27,6,0,2,4
29,6,8,2,4
35,6,0,2,4
31,6,0,2,4
12,6,0,2,4
55,6,2,2,4
19,6,0,2,4
54,6,0,2,4
74,6,0,2,4
73,6,0,2,4
58,6,0,2,4
9,6,8,2,4
54,6,0,2,4
118,6,0,2,4
18,6,1,2,4
8,6,0,2,4
121,6,5,2,4
62,6,0,2,4
31,6,8,2,4
11,6,0,2,4
73,6,0,2,4
12,6,5,2,4
27,6,0,2,4
0,6,0,2,4
15,6,0,2,4
0,6,3,2,5
76,6,0,2,5
21,6,0,2,5
19,6,6,2,5
108,6,0,2,5
14,6,0,2,5
6,6,7,2,5
2,6,0,2,5
95,6,0,2,5
47,6,0,2,5
33,6,0,2,5
56,6,0,2,5
19,6,0,2,5
30,6,5,2,5
93,6,0,2,5
85,6,0,2,5
74,6,0,2,5
15,6,0,2,5
72,6,0,2,5
99,6,0,2,5
55,6,0,2,5
10,6,0,2,5
0,6,0,2,5
1,7,7,2,5
42,6,0,2,5
58,6,0,2,5
14,6,9,2,5
0,6,0,2,5
25,6,0,2,5
24,7,0,2,5
10,6,1,2,5
9,6,0,2,5
75,6,0,2,5
126,6,0,2,5
21,6,0,2,5
13,6,0,2,5
13,6,0,2,5
5,6,0,2,5
0,6,0,2,5
0,6,5,2,5
7,6,4,2,5
19,6,0,2,5
12,6,0,2,5
32,6,6,2,5
22,6,0,2,5
38,6,0,2,5
19,6,2,2,5
37,6,0,2,5
104,6,0,2,5
124,6,0,2,5
8,6,0,2,5
0,6,0,2,5
24,6,0,2,5
10,6,6,2,5
160,6,0,2,5
24,6,0,2,5
163,6,4,2,5
87,6,0,2,5
16,6,0,2,5
20,6,0,2,5
5,6,0,2,5
34,6,0,2,5
4,6,0,2,5
0,6,4,2,5
83,6,0,2,5
44,6,0,2,5
47,6,2,2,5
96,6,0,2,5
118,6,0,2,5
81,6,0,2,5
1,6,5,2,5
63,6,0,2,5
8,6,0,2,5
0,6,8,2,5
63,6,0,2,5
151,6,0,2,5
86,6,0,2,5
105,6,0,2,5
31,6,0,2,5
16,6,0,2,5
11,6,0,2,5
29,6,0,2,5
19,6,0,2,5
0,6,4,2,5
9,6,0,2,5
17,6,0,2,5
10,6,0,2,5
0,6,0,2,5
14,6,0,2,5
1,6,0,2,5
42,6,7,2,5
53,6,0,2,5
166,6,0,2,5
0,6,4,2,5
26,6,0,2,5
8,6,0,2,5
1,6,8,2,5
0,6,0,2,5
66,6,0,2,5
107,6,0,2,5
59,6,0,2,5
81,6,0,2,5
1,6,0,2,5
31,6,0,2,5
15,6,0,2,5
49,6,0,2,5
67,6,9,2,5
56,6,0,2,5
10,6,0,2,5
51,6,1,2,5
31,6,2,2,5
8,6,0,2,5
62,6,0,2,5
38,6,4,2,5
38,6,0,2,5
64,6,0,2,5
26,6,1,2,5
20,6,0,2,5
24,6,0,2,5
19,6,0,2,5
5,6,6,2,5
8,6,0,2,5
20,6,0,2,5
52,6,6,2,5
40,6,0,2,5
77,6,0,2,5
7,6,4,2,5
86,6,0,2,5
24,6,0,2,5
20,6,0,2,5
55,6,2,2,5
44,6,0,2,5
16,6,0,2,5
51,6,6,2,5
54,6,0,2,5
3,6,0,2,5
34,6,5,2,5
31,6,0,2,5
20,6,0,2,5
47,6,0,2,5
2,6,5,2,5
117,6,0,2,5
4,6,0,2,5
49,6,5,2,5
42,6,0,2,5
105,6,0,2,5
66,6,4,2,5
7,6,1,2,5
37,6,0,2,5
4,6,0,2,5
0,6,4,2,5
47,6,0,2,5
5,6,0,2,5
73,6,5,2,5
15,6,0,2,5
74,6,0,2,5
