Ch1,Ch2,Ch3,Ch4,label
0,44,48,17,1
102,97,41,46,1
71,79,45,42,1
32,40,134,114,1
95,7,97,93,1
13,79,75,73,1
130,154,142,92,1
215,294,116,37,1
75,31,107,39,1
79,19,26,82,1
19,89,43,29,1
57,38,53,27,1
189,266,20,41,1
59,152,19,13,1
63,7,46,89,1
23,31,67,41,1
33,119,23,73,1
79,9,159,37,1
18,75,54,23,1
176,67,71,19,1
18,25,59,67,1
10,20,71,106,1
14,10,104,102,1
52,103,48,101,1
111,91,81,30,1
8,15,227,71,1
49,184,221,95,1
163,141,161,54,1
4,43,63,20,1
87,39,52,87,1
67,178,3,0,1
76,40,36,23,1
88,82,84,85,1
33,14,15,3,1
40,31,16,32,1
90,206,163,78,1
39,123,153,189,1
67,124,62,53,1
2,67,282,223,1
35,112,75,172,1
64,7,227,123,1
132,187,102,119,1
68,220,242,140,1
117,167,101,124,1
307,335,167,13,1
40,54,141,138,1
26,10,151,0,1
46,70,15,44,1
11,38,72,49,1
104,56,188,183,1
111,312,179,184,1
69,67,148,146,1
34,107,69,15,1
102,87,413,407,1
53,15,113,19,1
49,18,527,457,1
172,78,151,39,1
46,74,270,279,1
140,233,78,59,1
119,94,12,4,1
163,140,231,98,1
81,43,48,25,1
133,103,71,118,1
84,18,79,80,1
51,190,114,104,1
176,165,231,254,1
132,139,314,212,1
82,22,138,79,1
30,28,207,243,1
272,12,289,88,1
55,6,386,346,1
134,81,401,147,1
99,131,1023,976,1
38,35,262,90,1
84,74,595,379,1
57,153,259,128,1
49,133,236,133,1
385,407,201,123,1
3,21,42,76,1
121,33,75,57,1
73,37,67,21,1
7,106,573,365,1
69,21,12,55,1
64,10,72,13,1
0,27,18,62,1
157,11,379,209,1
27,9,65,76,1
175,115,125,75,1
57,59,272,187,1
60,11,137,94,1
41,110,197,19,1
143,157,70,66,1
50,138,74,98,1
0,33,167,164,1
101,127,64,30,1
76,37,527,244,1
284,344,304,310,1
271,112,568,369,1
133,325,284,298,1
45,236,323,85,1
84,87,19,6,1
2,96,396,212,1
40,96,73,95,1
68,121,176,159,1
181,343,44,32,1
321,315,243,355,1
248,310,331,356,1
16,44,25,18,1
39,264,38,167,1
34,38,103,153,1
135,291,311,307,1
29,72,252,10,1
35,324,1008,815,1
187,240,519,558,1
10,216,409,295,1
163,39,43,234,1
130,19,367,79,1
63,118,438,410,1
123,107,389,188,1
186,250,532,266,1
62,168,509,241,1
257,242,180,15,1
165,128,69,19,1
15,85,15,79,1
17,14,68,52,1
198,11,19,232,1
116,7,319,164,1
233,63,278,273,1
30,57,290,164,1
389,114,8,53,1
169,71,216,58,1
82,70,20,99,1
323,247,376,303,1
189,184,66,0,1
168,49,14,2,1
70,112,332,202,1
40,141,176,323,1
360,411,97,140,1
136,126,145,132,1
255,393,309,321,1
347,398,502,398,1
2,167,121,92,1
156,63,59,383,1
186,108,457,245,1
221,273,411,413,1
69,171,40,33,1
158,131,386,342,1
269,193,98,60,1
9,62,362,151,1
212,83,28,0,1
55,9,142,197,1
67,183,485,81,1
7,66,452,488,1
76,76,380,467,1
21,198,97,124,1
222,298,119,0,1
15,247,165,66,1
9,171,11,67,1
25,182,330,494,1
31,133,108,182,1
193,148,729,401,1
93,99,326,383,1
199,128,298,56,1
101,43,540,628,1
157,203,200,356,1
106,132,759,619,1
188,328,804,589,1
381,105,155,175,1
504,88,701,855,1
368,133,527,413,1
76,146,633,532,1
479,338,459,372,1
218,21,157,113,1
6,36,889,702,1
106,15,84,62,1
106,39,499,331,1
2,37,294,348,1
68,95,538,605,1
104,77,12,368,1
342,144,4,13,1
162,320,95,186,1
334,352,429,389,1
19,106,999,868,1
33,81,103,342,1
211,289,262,285,1
17,180,188,384,1
394,218,363,478,1
229,89,159,0,1
370,234,428,215,1
111,31,189,21,1
96,135,429,354,1
381,432,783,697,1
26,146,80,184,1
117,220,3,114,1
265,356,379,497,1
514,64,383,314,1
130,82,215,141,1
9,181,402,144,1
228,300,305,477,1
37,19,525,541,1
164,154,310,61,1
243,110,257,44,1
194,413,574,413,1
160,282,195,343,1
9,47,325,204,1
388,185,186,188,1
215,89,55,249,1
27,107,16,325,1
8,54,104,420,1
197,152,167,154,1
113,119,106,101,1
81,9,40,28,1
393,295,48,96,1
72,209,219,248,1
28,59,105,145,1
69,23,318,213,1
87,114,468,363,1
123,95,323,191,1
296,9,428,205,1
406,466,347,163,1
324,254,226,163,1
41,9,10,155,1
329,231,315,127,1
85,171,98,183,1
206,189,122,100,1
46,27,415,551,1
59,165,31,288,1
59,42,288,116,1
252,128,201,324,1
16,217,172,115,1
197,156,486,194,1
146,141,45,122,1
86,259,45,89,1
375,126,298,399,1
386,169,60,84,1
147,206,165,147,1
189,160,430,442,1
55,54,161,531,1
358,105,245,87,1
111,36,51,321,1
153,44,877,765,1
38,148,358,851,1
195,16,422,146,1
130,13,695,622,1
39,55,42,17,1
107,159,204,426,1
328,210,539,423,1
127,157,757,826,1
363,76,94,19,1
13,119,649,513,1
9,214,114,347,1
69,166,43,214,1
225,74,359,103,1
467,178,280,65,1
400,42,178,362,1
393,77,329,470,1
97,259,75,111,1
15,73,175,0,1
323,206,28,208,1
211,95,266,365,1
205,208,68,27,1
99,172,138,110,1
50,73,351,87,1
106,54,165,338,1
151,206,97,185,1
121,64,96,46,1
9,191,392,646,1
62,12,40,198,1
120,78,571,584,1
505,226,251,259,1
111,135,9,81,1
147,14,202,76,1
229,222,281,361,1
30,53,37,220,1
204,25,14,27,1
224,247,196,312,1
176,274,93,276,1
33,198,417,360,1
12,37,443,529,1
108,105,216,274,1
110,101,133,79,1
116,21,290,308,1
266,22,14,127,1
170,220,145,77,1
99,241,398,472,1
131,228,378,466,1
3,11,289,573,1
20,111,50,31,1
37,84,55,135,1
18,49,198,354,1
1,52,139,364,1
257,219,227,61,1
301,394,41,162,1
232,8,110,155,1
16,137,303,298,1
32,24,239,288,1
246,143,267,414,1
90,57,232,170,1
194,43,26,111,1
285,154,168,298,1
127,27,166,249,1
63,55,303,309,1
87,186,122,110,1
171,309,195,259,1
103,42,424,516,1
97,114,217,373,1
33,31,67,75,1
18,17,395,281,1
1,10,37,73,1
41,31,16,51,1
137,182,30,9,1
122,276,73,245,1
25,135,16,27,1
99,83,40,37,1
44,177,111,0,1
108,161,4,8,1
213,82,188,0,1
127,82,169,1,1
85,91,41,62,1
159,334,30,102,1
4,36,10,81,1
2,111,150,16,1
37,86,73,284,1
154,9,11,11,1
141,22,398,566,1
151,125,63,32,1
8,59,85,37,1
70,280,77,28,1
68,373,263,219,1
105,183,190,184,1
225,230,71,57,1
129,182,163,94,1
116,182,194,290,1
44,169,110,181,1
50,70,73,41,1
32,9,227,162,1
35,17,276,432,1
83,119,34,147,1
20,20,161,3,1
46,133,200,267,1
88,50,11,17,1
207,40,314,569,1
38,124,161,310,1
161,110,189,306,1
50,11,88,17,1
105,5,308,75,1
53,97,234,234,1
81,146,116,60,1
27,119,34,54,1
160,201,399,232,1
0,11,59,8,1
0,9,225,178,1
116,287,47,149,1
166,129,41,191,1
22,79,289,324,1
79,26,330,166,1
56,62,243,302,1
3,68,269,268,1
156,131,141,72,1
169,15,69,75,1
164,127,136,28,1
136,14,61,13,1
190,121,411,245,1
221,284,363,355,1
28,112,12,187,1
124,113,229,100,1
1,49,87,151,1
60,115,110,85,1
135,105,122,33,1
5,92,56,150,1
157,42,59,0,1
41,21,245,270,1
82,37,168,62,1
5,46,148,10,1
74,16,94,99,1
165,37,193,90,1
97,142,125,13,1
125,102,97,218,1
134,13,181,37,1
144,201,50,93,1
113,179,31,117,1
63,126,164,89,1
118,116,63,40,1
113,75,36,21,1
50,11,191,234,1
35,7,135,5,1
86,70,67,0,1
41,22,17,91,1
8,61,249,92,1
33,19,80,56,1
50,240,9,0,1
36,216,207,297,1
88,270,31,78,1
31,44,81,122,1
107,17,97,61,1
11,67,61,34,1
62,155,37,98,1
62,57,14,43,1
65,91,105,48,1
90,34,216,69,1
66,39,239,12,1
45,71,159,169,1
4,39,196,316,1
150,51,106,147,1
159,343,418,523,1
90,287,20,59,1
71,195,411,428,1
64,51,270,285,1
7,76,314,367,1
96,93,12,33,1
69,80,46,2,1
160,122,103,139,1
71,92,24,0,1
39,59,2,65,1
8,70,176,67,1
5,31,194,139,1
124,97,254,316,1
34,198,57,2,1
22,50,10,127,1
120,20,21,160,1
2,157,315,220,1
2,119,402,235,1
114,152,187,127,1
36,76,186,211,1
20,14,115,179,1
43,68,5,95,1
12,6,100,96,1
24,41,150,85,1
35,36,220,109,1
145,18,37,160,1
139,244,189,92,1
77,23,299,298,1
279,303,33,96,1
81,220,73,140,1
133,153,13,95,1
6,77,245,232,1
68,59,131,79,1
109,20,31,106,1
55,9,14,25,1
115,205,234,121,1
89,123,19,40,1
85,8,178,91,1
192,87,193,78,1
86,8,105,70,1
8,78,129,131,1
116,192,282,71,1
72,82,245,154,1
3,213,68,0,1
39,104,124,82,1
111,86,6,148,1
10,41,187,113,1
227,229,229,74,1
147,43,85,71,1
33,175,90,5,1
21,47,4,18,1
25,67,55,29,1
4,66,61,45,1
69,137,155,120,1
66,45,282,123,1
20,43,43,105,1
187,259,453,534,1
41,73,25,1,1
62,11,295,310,1
45,84,299,140,1
133,163,383,313,1
122,127,19,20,1
73,87,58,70,1
103,173,29,12,1
40,6,233,111,1
21,47,11,1,1
36,66,202,106,1
7,87,3,92,1
22,76,131,65,1
19,99,15,96,1
170,286,123,7,1
195,308,55,50,1
41,33,130,0,1
75,45,62,41,1
273,328,258,221,1
181,294,167,172,1
33,43,431,535,1
223,311,73,126,1
150,252,109,152,1
9,122,78,119,1
8,89,32,45,1
177,246,66,4,1
20,95,59,79,1
49,36,32,0,1
135,23,33,6,1
108,114,68,113,1
55,5,75,19,1
19,12,73,108,1
27,38,118,30,1
120,126,62,50,1
49,81,97,124,1
164,292,43,76,1
20,6,70,99,1
118,32,117,58,1
25,68,238,108,1
67,19,102,204,1
4,60,101,15,1
77,143,37,27,1
95,191,78,107,1
139,129,44,7,1
80,111,48,14,1
113,52,5,12,1
13,11,19,6,1
113,13,372,222,1
185,187,122,0,1
27,110,40,0,1
9,74,45,22,1
6,7,35,47,1
252,315,186,134,1
110,104,408,292,1
21,9,56,24,1
110,117,68,97,1
65,11,24,39,1
13,76,31,90,1
18,91,151,110,1
135,81,91,0,1
252,26,69,29,1
111,16,135,88,1
38,18,56,118,1
183,51,109,51,1
51,97,31,0,1
21,42,96,15,1
67,120,49,8,1
133,145,102,28,1
39,49,14,19,1
111,87,4,8,1
47,99,81,87,1
37,31,154,49,1
9,94,153,4,1
79,101,23,13,1
130,284,51,64,1
9,51,111,121,1
320,345,60,12,1
143,56,133,87,1
14,11,9,0,1
0,70,165,221,1
22,20,42,0,1
46,9,278,157,1
95,148,212,146,1
142,201,38,0,1
74,36,36,60,1
65,121,123,122,1
126,123,295,215,1
166,212,295,170,1
75,77,478,340,1
119,136,69,45,1
66,162,141,94,1
70,15,45,70,1
143,157,82,67,1
2,138,147,220,1
215,169,107,73,1
108,166,115,69,1
89,141,97,72,1
47,140,206,160,1
10,52,162,127,1
5,46,126,103,1
6,99,65,75,1
41,5,116,189,1
100,43,229,16,1
92,157,167,62,1
2,61,157,7,1
37,139,22,54,1
36,113,170,127,1
48,157,143,49,1
57,44,15,2,1
32,35,19,51,1
38,183,121,13,1
154,204,62,85,1
55,6,155,107,1
205,302,201,100,1
235,186,54,14,1
250,179,130,177,1
47,65,223,150,1
30,10,40,61,1
64,125,542,423,1
7,110,199,195,1
52,8,43,63,1
170,286,64,62,1
3,55,25,0,1
141,132,182,64,1
44,57,6,0,1
134,123,38,24,1
237,295,14,51,1
146,116,105,87,1
2,77,54,42,1
158,202,32,17,1
63,49,267,122,1
55,36,20,7,1
30,70,108,153,1
68,18,17,36,1
14,150,7,2,1
66,230,176,146,1
0,8,86,72,1
10,51,155,137,1
106,40,33,62,1
6,57,185,81,1
82,224,87,52,1
11,33,23,28,1
182,354,206,264,1
13,43,38,61,1
81,222,284,225,1
37,205,47,55,1
59,46,78,102,1
30,81,27,29,1
0,40,41,116,1
37,72,14,79,1
128,142,126,60,1
15,14,145,75,1
50,53,188,195,1
57,193,103,196,1
76,141,190,112,1
54,26,152,218,1
8,126,65,61,1
112,251,18,166,1
189,230,39,0,1
7,8,72,0,1
160,266,130,133,1
87,19,145,232,1
223,274,31,42,1
3,37,262,219,1
187,47,3,87,1
0,91,508,501,1
130,50,287,303,1
22,184,172,204,1
95,116,317,396,1
18,106,174,193,1
104,53,544,547,1
5,73,76,114,1
91,51,504,385,1
29,57,103,60,1
143,18,20,12,1
131,163,253,85,1
7,40,356,234,1
223,10,230,96,1
257,279,147,174,1
220,279,385,404,1
3,87,264,286,1
253,417,434,331,1
196,37,707,575,1
289,104,110,63,1
56,209,515,508,1
206,151,106,251,1
93,83,29,28,1
81,118,28,27,1
11,183,212,18,1
161,68,650,331,1
164,42,409,330,1
29,35,31,49,1
195,372,85,6,1
89,64,165,358,1
10,244,23,110,1
5,9,87,17,1
143,25,295,200,1
173,181,110,81,1
5,195,252,133,1
6,85,121,178,1
86,145,457,315,1
140,173,248,360,1
33,29,381,188,1
124,32,203,49,1
35,206,111,125,1
99,35,343,129,1
12,89,458,166,1
145,100,473,281,1
590,314,28,16,1
311,354,343,369,1
109,85,275,8,1
81,159,815,460,1
184,16,38,152,1
81,49,347,64,1
3,101,371,233,1
48,18,494,601,1
30,28,195,14,1
123,177,269,452,1
29,286,292,389,1
50,40,55,1,1
340,321,321,286,1
90,193,25,349,1
26,26,531,167,1
38,100,245,258,1
36,52,137,2,1
115,97,203,0,1
179,283,338,330,1
448,429,447,486,1
271,219,239,171,1
101,97,320,419,1
295,296,850,1023,1
119,161,65,7,1
402,249,872,847,1
112,13,298,185,1
324,25,73,41,1
11,134,109,67,1
139,51,34,74,1
15,130,100,69,1
213,61,42,114,1
59,392,768,647,1
17,228,226,306,1
3,142,670,435,1
204,233,624,548,1
573,485,544,389,1
6,14,157,134,1
12,51,176,277,1
99,85,606,511,1
21,111,228,216,1
5,40,88,158,1
382,161,388,220,1
206,389,278,229,1
96,106,348,103,1
14,129,403,18,1
234,28,84,39,1
290,457,388,82,1
297,452,177,97,1
109,50,117,55,1
478,484,54,497,1
278,198,279,88,1
55,124,61,81,1
102,86,82,265,1
63,129,337,247,1
114,196,157,429,1
175,24,22,83,1
6,96,310,23,1
4,6,49,144,1
125,29,192,256,1
40,53,209,172,1
334,293,301,292,1
572,382,666,682,1
425,375,5,7,1
81,311,512,471,1
213,173,407,746,1
28,127,748,712,1
231,37,499,805,1
94,28,123,54,1
151,40,627,977,1
242,160,503,664,1
329,132,34,379,1
184,199,400,729,1
23,47,108,214,1
14,107,489,478,1
489,305,525,332,1
97,345,44,224,1
256,100,37,47,1
241,63,182,279,1
401,112,14,81,1
2,41,490,584,1
151,116,40,2,1
24,170,45,134,1
103,141,116,41,1
197,71,57,190,1
383,37,142,250,1
9,21,29,47,1
59,141,514,258,1
20,6,456,409,1
61,17,190,15,1
114,162,42,178,1
257,77,60,6,1
96,8,214,168,1
209,212,375,137,1
68,11,501,577,1
169,111,13,78,1
190,236,70,181,1
0,89,80,70,1
34,81,199,61,1
21,5,49,227,1
244,126,216,70,1
2,6,66,14,1
9,35,127,279,1
25,54,111,385,1
4,195,127,30,1
138,211,331,549,1
316,319,259,281,1
281,208,268,91,1
111,363,167,22,1
126,119,423,283,1
10,65,305,532,1
37,49,465,512,1
224,114,195,169,1
90,20,167,269,1
13,37,262,318,1
48,32,131,448,1
138,22,295,280,1
239,150,179,296,1
42,114,292,394,1
20,170,139,387,1
12,300,795,216,1
37,19,878,825,1
92,129,189,474,1
235,271,393,448,1
314,187,7,138,1
86,103,95,133,1
40,216,345,122,1
33,101,133,0,1
111,123,188,270,1
58,66,400,818,1
19,23,205,445,1
21,5,254,213,1
114,6,330,552,1
49,96,72,143,1
496,364,52,101,1
102,171,21,97,1
174,46,209,259,1
29,161,263,90,1
22,25,11,99,1
26,93,347,358,1
80,38,251,10,1
209,119,9,53,1
161,27,72,170,1
67,283,658,801,1
229,113,716,900,1
18,76,127,16,1
165,36,350,326,1
90,46,360,496,1
21,26,68,174,1
119,272,196,339,1
196,193,142,440,1
7,98,151,303,1
2,7,157,160,1
69,19,24,131,1
21,44,235,9,1
66,18,169,110,1
55,191,167,342,1
243,99,4,175,1
209,56,222,377,1
3,69,196,238,1
6,110,58,38,1
40,13,101,71,1
66,61,6,92,1
40,7,9,335,1
113,100,126,93,1
18,16,150,211,1
183,170,288,281,1
152,138,434,369,1
37,36,131,110,1
76,97,319,182,1
48,58,395,239,1
78,20,284,355,1
129,85,206,272,1
98,7,63,41,1
85,68,289,370,1
9,115,176,270,1
83,14,104,80,1
118,75,140,71,1
55,56,471,223,1
73,32,141,97,1
33,58,116,145,1
218,209,300,123,1
330,482,58,15,1
69,75,18,39,1
159,184,69,0,1
27,21,35,369,1
9,76,78,60,1
154,5,71,118,1
249,74,225,258,1
22,73,237,200,1
58,31,18,0,1
16,31,107,325,1
32,72,133,330,1
64,253,151,203,1
118,153,281,374,1
29,142,369,371,1
126,45,276,235,1
105,129,2,135,1
52,41,88,13,1
14,87,15,1,1
10,67,28,82,1
107,68,93,0,1
27,100,309,106,1
46,52,249,226,1
24,60,26,37,1
124,79,60,49,1
131,129,263,169,1
128,357,4,0,1
133,105,102,134,1
66,125,386,350,1
4,34,130,21,1
2,67,689,431,1
20,68,132,111,1
15,86,56,57,1
80,70,355,273,1
99,49,209,431,1
150,121,244,731,1
62,51,44,23,1
0,47,247,317,1
36,55,29,85,1
29,121,413,170,1
83,78,408,355,1
55,60,121,60,1
82,45,204,137,1
21,131,216,63,1
212,133,256,226,1
93,52,149,33,1
83,109,382,211,1
6,53,23,35,1
19,39,27,107,1
120,27,8,34,1
93,53,189,0,1
101,6,73,153,1
21,32,157,47,1
85,77,6,1,1
24,63,108,89,1
19,45,313,193,1
39,21,63,1,1
26,31,139,166,1
89,111,103,110,1
73,49,14,80,1
30,133,246,134,1
286,242,346,158,1
72,17,82,0,1
167,187,83,0,1
108,35,24,32,1
50,125,169,84,1
94,43,475,310,1
33,95,99,168,1
29,89,351,135,1
202,76,170,208,1
2,36,268,232,1
179,239,49,131,1
154,55,266,133,1
149,62,272,229,1
105,149,47,51,1
55,181,54,183,1
50,181,52,131,1
75,124,18,22,1
23,90,216,79,1
34,108,95,219,1
96,30,234,159,1
53,31,98,146,1
31,8,364,213,1
38,60,95,233,1
115,56,93,0,1
4,79,248,124,1
5,9,96,136,1
8,18,12,3,1
15,17,218,101,1
2,53,205,111,1
25,68,47,60,1
160,214,46,43,1
66,35,143,100,1
108,121,50,226,1
35,160,36,157,1
2,6,211,28,1
27,35,36,33,1
16,84,128,184,1
63,80,29,152,1
73,30,151,111,1
2,84,10,69,1
27,52,157,36,1
81,137,226,139,1
82,143,104,155,1
228,216,7,115,1
107,139,110,28,1
2,37,160,200,1
2,31,338,15,1
43,140,330,140,1
13,133,54,140,1
107,47,648,142,1
1,55,164,89,1
82,82,532,484,1
49,7,134,184,1
66,151,55,56,1
66,27,38,0,1
91,210,25,34,1
141,54,125,59,1
43,10,187,207,1
51,13,36,33,1
141,145,162,124,1
237,315,286,170,1
36,133,199,203,1
1,29,62,14,1
17,153,292,312,1
128,218,166,244,1
67,68,281,361,1
57,72,154,27,1
40,113,46,22,1
74,14,71,0,1
40,44,35,15,1
261,318,62,17,1
235,186,84,12,1
15,69,99,21,1
204,266,182,315,1
31,35,203,133,1
138,276,127,159,1
14,12,178,121,1
97,110,441,376,1
12,78,99,16,1
146,7,640,612,1
114,143,333,383,1
24,73,120,219,1
11,10,165,212,1
77,274,63,91,1
37,32,45,52,1
215,366,247,181,1
213,162,33,36,1
91,152,175,128,1
172,326,58,0,1
132,132,302,230,1
85,205,149,105,1
89,218,42,130,1
162,146,257,152,1
156,145,44,23,1
39,10,418,371,1
45,25,167,0,1
164,250,557,473,1
52,31,19,21,1
31,44,114,124,1
42,56,218,224,1
98,83,62,93,1
198,218,89,0,1
38,23,102,81,1
128,75,144,12,1
259,230,249,202,1
72,111,126,142,1
81,104,189,119,1
195,256,204,193,1
106,163,230,114,1
90,125,166,19,1
74,61,108,68,1
83,6,322,353,1
7,28,23,36,1
141,155,192,73,1
76,40,17,39,1
15,72,124,201,1
141,207,34,92,1
203,251,97,98,1
41,63,56,60,1
102,132,210,151,1
75,49,12,51,1
2,25,135,16,1
68,66,173,81,1
7,63,80,0,1
4,65,144,59,1
59,99,100,157,1
18,142,95,0,1
26,17,43,36,1
88,216,166,84,1
50,76,213,256,1
79,77,65,16,1
101,39,6,38,1
164,230,197,152,1
81,208,140,119,1
87,189,210,166,1
184,274,42,0,1
56,140,25,33,1
61,82,53,64,1
5,102,31,19,1
16,25,14,38,1
70,71,60,105,1
38,14,95,3,1
37,154,119,75,1
74,34,128,73,1
89,119,14,49,1
106,90,109,31,1
203,244,12,114,1
117,163,95,106,1
40,126,158,106,1
4,37,62,36,1
9,39,42,3,1
77,27,33,18,1
11,11,72,12,1
41,45,38,37,1
6,20,43,0,1
19,40,43,9,1
132,88,206,58,1
31,8,117,76,1
3,7,72,56,1
6,40,67,47,1
191,167,295,144,1
160,158,176,156,1
34,81,177,89,1
135,72,47,131,1
223,200,84,30,1
14,23,50,0,1
69,55,1,33,1
139,161,84,45,1
10,52,3,0,1
46,72,28,0,1
20,34,69,62,1
49,8,55,0,1
40,35,100,101,1
29,5,2,41,1
9,106,58,0,1
25,40,8,0,1
101,159,3,54,1
113,179,7,10,1
7,71,11,0,1
29,83,64,0,1
0,23,9,0,1
125,214,7,0,1
104,127,88,41,1
5,52,1,14,1
4,18,180,26,1
39,47,204,132,1
21,7,49,2,1
10,15,280,211,1
40,95,104,199,1
96,11,280,216,1
10,77,12,90,1
16,42,331,331,1
268,265,181,122,1
141,195,38,95,1
121,153,82,64,1
84,124,3,79,1
109,50,49,45,1
28,33,100,191,1
73,91,205,150,1
4,42,66,0,1
13,51,325,148,1
2,154,24,14,1
35,59,405,209,1
157,74,214,86,1
4,104,266,146,1
140,91,289,102,1
1,45,89,7,1
16,109,108,28,1
126,56,124,151,1
146,127,436,256,1
103,107,97,0,1
20,18,322,145,1
299,168,139,149,1
24,154,384,116,1
280,297,180,93,1
21,36,465,400,1
290,243,130,165,1
2,98,211,115,1
24,103,65,74,1
31,42,29,11,1
123,55,121,24,1
161,91,107,0,1
360,276,2,204,1
43,29,158,94,1
65,176,188,279,1
67,116,73,214,1
10,9,77,39,1
185,115,389,353,1
109,20,183,83,1
161,139,485,301,1
289,79,253,210,1
19,136,138,57,1
58,152,429,441,1
174,72,117,360,1
21,144,361,204,1
167,211,152,48,1
178,119,60,58,1
6,92,277,304,1
44,49,235,291,1
157,61,96,42,1
26,49,554,460,1
226,207,432,249,1
625,559,173,266,1
164,366,118,57,1
166,77,59,134,1
87,152,286,305,1
105,70,243,393,1
11,104,235,210,1
162,209,353,138,1
16,177,330,310,1
0,95,245,206,1
54,50,249,79,1
109,68,66,7,1
137,201,582,569,1
59,29,310,355,1
92,121,437,465,1
188,206,136,137,1
27,135,572,412,1
47,113,243,215,1
298,221,258,38,1
73,57,82,109,1
214,292,351,246,1
11,174,486,576,1
118,382,31,90,1
27,105,273,455,1
5,14,138,0,1
207,188,83,0,1
190,43,23,1,1
271,318,55,119,1
216,119,150,189,1
103,176,82,49,1
99,103,213,89,1
136,179,149,272,1
52,17,470,121,1
183,28,789,490,1
140,10,32,5,1
151,234,263,203,1
178,78,568,252,1
14,76,504,500,1
55,167,185,211,1
294,113,354,401,1
138,337,131,0,1
95,66,148,0,1
187,208,384,359,1
319,55,337,73,1
7,124,59,96,1
104,122,133,366,1
139,173,69,369,1
98,253,123,10,1
26,257,135,397,1
271,178,191,64,1
87,182,380,180,1
8,91,5,84,1
85,137,417,294,1
45,126,96,237,1
22,239,773,655,1
328,218,664,781,1
6,130,190,4,1
38,19,288,329,1
16,195,326,269,1
181,113,43,36,1
225,32,342,176,1
105,127,95,94,1
542,450,24,257,1
364,273,122,439,1
84,226,58,249,1
146,263,76,275,1
137,134,54,502,1
24,22,33,93,1
87,203,104,189,1
159,79,262,64,1
126,10,113,385,1
5,158,56,26,1
127,84,219,342,1
1,127,28,72,1
125,178,88,154,1
312,301,70,36,1
14,122,249,161,1
19,201,415,494,1
46,158,87,9,1
50,65,436,695,1
47,171,275,316,1
375,60,100,117,1
242,56,388,146,1
131,133,5,47,1
22,135,392,566,1
246,35,304,208,1
180,241,238,17,1
185,14,9,28,1
101,373,336,423,1
210,153,70,233,1
96,446,159,424,1
524,757,586,348,1
139,172,1023,1023,1
97,260,325,376,1
85,130,390,507,1
252,43,425,689,1
259,53,29,34,1
117,95,64,293,1
19,333,201,215,1
105,115,171,318,1
15,12,263,204,1
47,279,361,806,1
282,87,117,58,1
143,83,365,462,1
74,341,512,603,1
194,312,361,261,1
451,593,122,157,1
5,167,130,0,1
131,64,107,39,1
102,170,100,0,1
3,44,200,190,1
4,25,107,188,1
90,90,235,95,1
169,24,253,316,1
121,88,25,131,1
44,230,221,3,1
146,87,475,483,1
18,105,551,779,1
165,61,420,311,1
476,591,467,626,1
336,189,499,550,1
9,60,117,2,1
160,103,54,201,1
318,128,70,40,1
219,284,405,795,1
248,133,85,58,1
72,12,13,68,1
24,94,10,50,1
172,45,463,440,1
236,58,360,182,1
9,79,256,340,1
5,118,22,81,1
274,267,90,195,1
407,361,23,15,1
43,38,44,224,1
7,129,268,89,1
219,16,835,675,1
105,7,151,61,1
119,67,337,338,1
93,106,15,54,1
122,31,340,303,1
52,13,515,588,1
10,72,283,279,1
71,15,591,882,1
32,16,85,36,1
61,49,563,651,1
87,146,137,21,1
126,34,433,259,1
50,5,353,472,1
173,16,104,0,1
252,200,336,370,1
96,152,2,57,1
296,130,78,7,1
189,37,180,258,1
320,45,420,698,1
14,70,165,331,1
93,103,253,321,1
0,54,393,420,1
15,6,54,122,1
4,10,72,89,1
52,54,163,216,1
129,63,43,60,1
47,20,338,94,1
315,302,17,96,1
42,33,105,231,1
22,40,79,57,1
93,42,68,197,1
77,10,278,344,1
102,48,236,113,1
163,246,21,59,1
121,84,537,326,1
13,37,31,6,1
9,128,416,416,1
101,7,423,747,1
5,134,12,19,1
24,13,369,401,1
71,21,306,535,1
43,6,209,86,1
271,115,428,416,1
92,51,341,460,1
61,118,100,130,1
3,146,389,423,1
31,7,556,684,1
91,169,51,197,1
26,222,488,425,1
12,56,405,426,1
61,12,89,205,1
39,57,86,336,1
217,147,193,3,1
34,7,375,361,1
142,221,14,227,1
196,115,84,90,1
91,18,95,25,1
175,198,173,299,1
99,33,67,89,1
113,47,145,220,1
119,67,169,82,1
70,21,23,84,1
122,54,58,19,1
0,20,285,161,1
2,12,141,149,1
43,9,195,17,1
6,58,81,0,1
1,38,246,238,1
2,45,222,143,1
120,12,243,144,1
49,118,27,275,1
53,76,259,245,1
283,204,572,612,1
94,75,37,84,1
143,157,12,104,1
161,232,257,308,1
83,46,98,241,1
4,71,316,285,1
104,59,57,110,1
25,39,486,391,1
2,41,210,277,1
59,27,626,676,1
153,15,413,461,1
0,26,112,26,1
13,20,149,130,1
54,119,476,407,1
31,168,484,359,1
31,26,98,56,1
52,121,72,10,1
33,8,125,152,1
34,16,348,200,1
44,122,73,35,1
83,75,3,179,1
93,6,120,128,1
33,5,112,11,1
10,30,53,199,1
37,90,140,185,1
117,66,81,63,1
156,283,30,114,1
94,158,79,124,1
5,65,66,12,1
101,46,243,263,1
7,9,74,0,1
29,138,198,204,1
20,145,116,170,1
194,149,194,103,1
43,54,65,8,1
83,79,7,113,1
30,13,140,178,1
57,46,44,79,1
10,40,95,124,1
74,88,140,142,1
7,151,39,118,1
223,458,164,132,1
19,37,511,356,1
65,74,60,67,1
37,18,390,453,1
22,214,136,359,1
86,54,202,8,1
158,324,176,241,1
58,123,98,136,1
152,100,514,616,1
63,23,53,80,1
89,19,710,505,1
11,172,91,257,1
328,226,508,294,1
193,335,138,97,1
11,38,213,99,1
75,126,97,152,1
142,45,118,175,1
130,31,69,103,1
18,115,52,160,1
61,42,78,59,1
11,85,435,404,1
33,69,102,1,1
95,74,21,38,1
0,65,237,247,1
91,144,38,88,1
69,135,341,264,1
8,75,6,67,1
197,181,364,244,1
1,13,219,358,1
10,88,31,41,1
216,231,97,164,1
18,99,135,26,1
55,24,45,2,1
71,68,6,18,1
69,44,100,188,1
257,240,233,108,2
50,11,134,319,2
107,9,654,682,2
175,12,95,425,2
24,76,291,490,2
77,39,173,18,2
163,11,219,272,2
21,130,240,203,2
128,132,258,146,2
98,191,160,149,2
3,122,173,212,2
321,380,457,417,2
4,39,289,302,2
91,23,203,183,2
59,130,60,5,2
146,191,16,45,2
83,172,307,253,2
331,352,34,35,2
104,129,142,69,2
146,156,89,0,2
10,63,252,244,2
37,72,110,35,2
86,89,282,350,2
49,26,113,2,2
102,12,198,176,2
150,301,231,305,2
240,402,32,13,2
151,105,31,91,2
298,240,320,346,2
210,48,116,61,2
72,12,77,11,2
141,226,280,130,2
136,163,195,207,2
92,32,167,140,2
52,63,10,43,2
21,23,86,48,2
65,105,105,30,2
160,188,49,18,2
260,410,251,55,2
0,60,13,81,2
132,102,19,25,2
45,109,139,40,2
31,76,229,147,2
86,138,317,225,2
156,221,66,89,2
20,71,78,124,2
118,96,125,275,2
6,7,79,117,2
100,73,104,93,2
155,281,254,93,2
25,31,529,258,2
9,100,66,45,2
27,95,118,76,2
182,164,30,13,2
7,11,155,197,2
100,207,142,169,2
131,132,251,63,2
92,85,268,164,2
7,88,4,45,2
1,44,156,139,2
15,75,215,228,2
91,28,171,116,2
11,25,74,132,2
81,76,64,85,2
71,31,45,47,2
46,21,189,205,2
28,52,241,143,2
110,85,316,237,2
65,226,128,149,2
189,327,56,18,2
184,190,170,216,2
109,220,199,137,2
97,148,114,117,2
0,70,162,131,2
95,97,219,186,2
37,112,163,114,2
25,101,86,127,2
27,38,187,152,2
85,155,97,113,2
102,101,65,0,2
78,21,96,166,2
34,140,78,42,2
0,6,139,0,2
169,191,182,146,2
213,332,157,82,2
344,406,130,219,2
32,110,232,257,2
69,73,350,353,2
126,92,225,0,2
198,247,360,289,2
81,97,106,0,2
3,28,56,85,2
44,106,93,186,2
4,7,29,19,2
92,33,217,94,2
151,75,15,15,2
65,16,237,27,2
93,25,4,18,2
258,252,191,12,2
289,299,29,9,2
187,274,135,122,2
72,28,15,35,2
43,32,12,0,2
34,8,18,68,2
113,122,304,83,2
52,100,221,119,2
41,5,89,25,2
16,23,8,2,2
194,183,140,133,2
135,145,11,7,2
15,163,2,4,2
87,115,20,60,2
86,165,49,14,2
103,130,3,9,2
34,34,5,0,2
180,177,7,0,2
87,130,6,37,2
95,53,8,40,2
105,50,309,200,2
57,105,99,0,2
70,37,255,265,2
44,62,11,0,2
15,54,89,86,2
11,39,2,32,2
197,50,193,60,2
153,217,140,81,2
134,240,145,0,2
45,53,130,102,2
127,17,3,25,2
50,44,25,73,2
56,10,137,47,2
13,44,7,5,2
12,75,143,67,2
134,149,24,31,2
44,52,243,172,2
43,27,157,92,2
71,96,9,0,2
146,99,218,174,2
38,77,286,60,2
105,73,272,278,2
113,134,386,125,2
3,29,371,360,2
50,29,132,31,2
218,241,300,126,2
126,91,155,148,2
48,175,366,30,2
116,75,745,614,2
18,96,372,96,2
22,111,587,433,2
31,66,47,69,2
9,27,445,278,2
66,108,6,0,2
124,110,327,283,2
67,10,108,76,2
6,19,189,48,2
7,80,216,82,2
108,10,252,202,2
75,210,254,259,2
15,53,260,272,2
17,63,394,592,2
21,25,84,128,2
122,152,563,551,2
33,185,115,86,2
208,325,196,236,2
125,130,85,25,2
176,8,167,164,2
10,26,198,422,2
135,72,368,352,2
156,170,137,6,2
19,61,193,139,2
45,179,442,549,2
42,129,224,30,2
374,302,535,397,2
2,126,530,185,2
221,56,363,343,2
38,131,755,408,2
164,156,1023,917,2
150,7,149,318,2
116,135,866,640,2
184,389,471,639,2
513,522,107,281,2
5,28,477,380,2
64,9,510,394,2
241,125,29,267,2
74,13,507,281,2
42,254,532,676,2
14,86,22,186,2
104,427,566,636,2
127,219,492,643,2
4,66,520,658,2
2,62,347,533,2
162,216,51,150,2
7,139,607,375,2
335,161,318,406,2
13,23,912,540,2
371,143,682,680,2
174,20,465,304,2
258,227,898,750,2
26,61,161,184,2
391,355,790,768,2
284,75,233,160,2
45,564,707,504,2
44,43,223,161,2
59,136,63,1,2
276,221,146,144,2
232,228,56,0,2
2,10,197,1,2
108,162,442,241,2
228,387,79,145,2
88,256,496,258,2
10,23,551,258,2
89,71,119,65,2
96,10,316,33,2
13,97,280,322,2
78,34,16,246,2
4,37,310,157,2
69,110,4,484,2
113,228,61,244,2
265,265,371,308,2
43,27,93,408,2
58,133,105,225,2
190,277,221,462,2
19,19,347,716,2
91,324,199,276,2
88,182,298,612,2
146,63,157,280,2
213,111,23,126,2
157,145,484,794,2
413,312,5,147,2
298,408,413,157,2
117,134,208,623,2
244,288,428,444,2
41,18,255,588,2
340,131,445,19,2
174,223,267,133,2
437,231,399,83,2
22,35,714,529,2
123,62,128,35,2
27,7,443,299,2
50,41,437,342,2
43,204,161,63,2
85,104,273,259,2
19,44,71,143,2
103,128,119,157,2
152,20,253,95,2
160,94,483,632,2
203,95,354,385,2
29,44,299,388,2
267,70,47,18,2
297,152,23,382,2
42,41,264,224,2
237,85,251,632,2
20,102,309,271,2
123,202,22,72,2
130,253,204,185,2
111,68,314,382,2
251,94,140,458,2
148,226,380,201,2
330,543,232,412,2
143,314,212,196,2
130,182,76,20,2
83,27,8,107,2
179,283,29,235,2
123,107,94,182,2
163,143,162,38,2
244,123,85,62,2
63,154,314,226,2
95,51,130,101,2
85,51,62,124,2
36,39,154,270,2
5,267,147,2,2
157,157,59,43,2
232,326,2,100,2
49,114,68,254,2
408,172,246,162,2
675,497,1,71,2
86,242,87,183,2
626,713,136,111,2
59,9,124,281,2
277,256,210,6,2
51,157,292,89,2
93,91,273,245,2
180,61,238,166,2
14,163,168,391,2
215,81,23,240,2
58,64,63,17,2
15,106,308,514,2
160,44,326,315,2
61,74,440,314,2
126,320,44,60,2
281,202,146,32,2
788,905,325,487,2
203,84,452,381,2
261,87,454,495,2
150,33,298,70,2
30,75,147,56,2
73,102,189,172,2
178,74,179,527,2
53,23,520,378,2
211,131,141,86,2
270,157,3,245,2
137,52,115,239,2
67,43,178,127,2
23,15,237,187,2
42,11,56,160,2
133,553,602,324,2
798,726,631,550,2
123,245,185,1,2
466,394,535,343,2
675,533,168,49,2
67,122,121,137,2
137,35,341,450,2
112,427,16,358,2
55,267,29,155,2
35,57,215,254,2
11,42,284,360,2
17,15,112,142,2
223,77,37,49,2
49,172,340,227,2
250,419,2,14,2
33,196,227,16,2
404,178,226,173,2
424,291,438,311,2
9,35,41,229,2
417,307,618,223,2
13,88,241,217,2
198,154,418,197,2
102,142,88,3,2
284,30,27,397,2
91,137,186,324,2
50,78,94,174,2
210,29,410,340,2
223,143,194,198,2
298,174,565,641,2
142,278,297,253,2
136,81,130,70,2
242,270,314,236,2
520,711,125,0,2
268,245,281,186,2
99,323,251,227,2
157,41,293,88,2
109,116,371,296,2
115,90,649,522,2
15,99,830,889,2
452,17,347,318,2
418,225,589,356,2
16,48,172,72,2
120,61,305,0,2
173,408,89,195,2
4,71,296,186,2
126,182,259,545,2
188,334,355,522,2
19,192,614,636,2
116,31,477,191,2
114,12,139,713,2
1,105,397,612,2
185,352,31,84,2
123,153,569,424,2
203,94,588,589,2
143,58,211,115,2
37,91,1023,1023,2
70,244,304,467,2
58,8,606,400,2
109,296,99,790,2
221,40,152,26,2
96,8,391,51,2
334,102,674,642,2
58,36,244,203,2
120,185,501,822,2
18,20,363,402,2
93,166,41,99,2
63,106,505,558,2
65,186,136,110,2
189,15,812,968,2
30,65,87,105,2
95,193,308,311,2
114,140,423,604,2
322,196,154,518,2
132,64,604,399,2
230,105,496,600,2
21,338,64,159,2
24,117,128,252,2
41,40,123,370,2
179,169,337,475,2
27,68,313,374,2
10,36,542,579,2
5,10,111,224,2
20,120,124,62,2
68,8,147,25,2
81,61,12,268,2
220,74,231,293,2
166,113,237,403,2
6,113,44,170,2
23,187,72,210,2
141,191,7,304,2
62,60,115,0,2
14,100,351,195,2
140,100,415,322,2
107,122,70,111,2
19,85,355,477,2
186,193,266,50,2
120,54,436,461,2
240,271,558,722,2
330,36,403,541,2
44,9,191,117,2
163,64,112,61,2
237,203,334,430,2
6,26,633,1001,2
29,35,312,105,2
204,41,602,511,2
31,17,118,364,2
59,106,42,0,2
27,25,480,520,2
345,472,169,318,2
278,268,295,307,2
3,88,535,870,2
237,291,451,776,2
133,314,70,408,2
123,206,255,146,2
85,42,120,31,2
22,17,422,658,2
163,59,541,560,2
91,20,98,76,2
6,81,428,684,2
35,23,59,119,2
75,80,437,400,2
2,125,239,51,2
86,123,228,402,2
4,79,427,596,2
35,22,33,26,2
15,42,408,453,2
5,69,91,63,2
245,89,182,189,2
23,24,117,41,2
0,6,242,182,2
61,217,354,244,2
21,86,149,38,2
12,159,508,663,2
73,341,39,217,2
90,45,171,173,2
16,9,176,205,2
152,83,77,248,2
158,102,127,230,2
6,25,12,18,2
151,27,283,439,2
52,23,143,338,2
2,167,86,134,2
21,78,146,116,2
66,43,14,40,2
3,121,7,69,2
52,274,527,475,2
12,82,461,407,2
23,84,61,222,2
72,60,158,127,2
17,104,44,170,2
76,79,103,1,2
65,171,97,23,2
156,189,4,257,2
148,49,398,266,2
55,63,692,1023,2
36,21,58,292,2
44,76,426,446,2
82,34,599,707,2
12,75,140,324,2
75,48,65,86,2
147,80,21,57,2
106,61,506,352,2
0,43,566,367,2
62,23,202,106,2
41,53,217,65,2
5,10,69,12,2
46,139,70,173,2
67,83,44,321,2
13,20,392,264,2
74,19,423,612,2
96,92,78,232,2
63,95,488,297,2
38,61,73,273,2
5,141,206,167,2
63,197,207,106,2
29,17,241,230,2
113,126,308,224,2
62,52,413,526,2
106,42,187,7,2
64,47,299,363,2
9,88,31,27,2
51,36,38,29,2
44,111,21,102,2
185,66,43,67,2
243,328,183,67,2
70,38,267,194,2
39,8,67,23,2
70,19,447,254,2
75,75,190,137,2
121,120,143,89,2
7,24,72,148,2
26,10,167,152,2
87,21,27,79,2
5,85,70,71,2
2,14,63,128,2
58,20,185,85,2
54,29,80,130,2
12,66,224,208,2
52,79,409,577,2
136,163,27,116,2
24,25,461,355,2
164,85,1,157,2
10,64,66,88,2
6,8,158,177,2
118,102,156,205,2
76,57,139,156,2
179,127,108,160,2
221,144,176,165,2
98,21,29,22,2
98,66,20,48,2
9,37,139,21,2
88,15,46,252,2
3,287,222,93,2
5,19,23,16,2
216,211,157,222,2
42,28,329,635,2
29,149,227,96,2
233,170,497,580,2
3,9,31,113,2
58,50,209,108,2
41,29,221,122,2
80,85,185,0,2
35,77,95,18,2
22,140,34,98,2
29,70,224,54,2
173,166,273,391,2
66,6,73,75,2
60,20,2,0,2
57,37,6,71,2
35,139,303,334,2
128,239,99,113,2
1,84,243,466,2
157,10,26,172,2
90,41,11,0,2
58,69,11,146,2
28,37,323,0,2
162,199,272,287,2
42,109,210,341,2
130,232,5,81,2
161,172,41,93,2
92,100,185,241,2
6,27,10,13,2
67,31,209,356,2
27,12,143,108,2
348,269,343,367,2
167,259,39,73,2
86,33,39,40,2
111,77,37,97,2
172,66,63,16,2
198,108,121,53,2
101,157,227,128,2
28,158,277,360,2
7,46,77,40,2
133,35,13,23,2
94,206,79,46,2
199,255,2,73,2
4,22,71,151,2
122,214,335,188,2
26,103,338,57,2
208,152,326,409,2
112,103,405,54,2
319,278,267,270,2
38,67,33,48,2
223,319,62,38,2
216,302,243,258,2
261,348,186,307,2
98,235,218,195,2
44,10,350,440,2
34,60,311,192,2
165,9,303,74,2
264,37,252,233,2
117,181,294,270,2
11,103,72,97,2
55,183,83,142,2
48,22,36,108,2
7,52,233,256,2
139,194,19,160,2
108,121,256,154,2
172,51,168,241,2
126,115,266,340,2
38,6,86,170,2
29,101,15,116,2
59,239,249,204,2
2,53,3,7,2
73,53,41,86,2
155,182,469,522,2
26,91,333,199,2
16,82,483,417,2
21,61,513,171,2
136,299,36,100,2
200,212,217,190,2
90,105,154,31,2
118,76,200,158,2
151,115,23,123,2
404,410,376,183,2
139,131,206,146,2
119,108,365,301,2
8,117,260,275,2
142,202,226,230,2
392,223,165,189,2
126,52,33,173,2
159,136,97,128,2
141,115,62,41,2
3,171,221,395,2
5,49,291,115,2
72,33,274,262,2
47,11,20,83,2
61,40,137,156,2
64,189,84,46,2
122,61,296,275,2
123,59,89,149,2
39,42,152,330,2
21,158,178,124,2
3,40,172,14,2
24,133,297,151,2
9,30,29,111,2
54,90,133,110,2
82,190,25,57,2
254,271,83,36,2
111,59,651,366,2
200,130,93,249,2
136,15,19,3,2
13,75,20,8,2
180,41,12,0,2
12,80,135,52,2
90,68,66,141,2
18,57,441,266,2
205,184,162,34,2
45,36,24,0,2
29,13,244,299,2
67,215,137,189,2
36,20,12,109,2
33,6,97,48,2
106,75,81,50,2
78,97,243,67,2
145,331,8,77,2
461,685,37,182,2
17,17,175,69,2
142,188,38,59,2
13,19,297,212,2
71,39,213,191,2
170,169,178,165,2
168,218,371,386,2
159,142,249,350,2
152,70,173,150,2
186,121,4,59,2
35,59,280,12,2
100,291,351,141,2
24,66,63,182,2
92,289,109,14,2
83,82,238,262,2
109,139,37,22,2
19,185,64,108,2
12,15,331,459,2
38,160,309,256,2
90,139,335,396,2
12,122,159,4,2
1,52,154,182,2
1,35,145,143,2
14,30,42,12,2
35,146,238,0,2
91,84,104,113,2
64,38,21,190,2
21,96,24,49,2
16,26,294,437,2
232,335,420,323,2
180,168,448,444,2
146,115,432,381,2
6,12,36,3,2
79,23,171,300,2
78,59,455,338,2
22,19,53,23,2
33,109,219,83,2
73,57,181,260,2
55,73,223,220,2
88,27,240,132,2
102,204,84,2,2
57,46,283,194,2
42,33,53,18,2
10,6,277,150,2
137,74,28,14,2
164,35,46,42,2
108,112,224,277,2
77,105,180,67,2
145,35,117,9,2
2,51,61,49,2
20,15,356,475,2
207,275,74,6,2
112,99,86,204,2
12,79,281,131,2
16,13,59,184,2
13,102,438,236,2
148,19,91,89,2
50,121,257,226,2
58,35,27,45,2
72,10,196,96,2
65,116,21,0,2
135,69,116,28,2
180,216,20,77,2
99,63,173,235,2
108,109,98,118,2
148,128,530,574,2
76,41,275,106,2
8,59,8,8,2
27,71,402,153,2
167,237,108,27,2
1,24,99,56,2
9,57,49,72,2
75,152,76,43,2
106,148,75,21,2
56,190,148,256,2
280,185,286,261,2
32,38,35,232,2
125,194,614,436,2
232,228,104,0,2
67,82,7,155,2
39,61,46,36,2
49,6,49,184,2
15,71,135,277,2
9,46,89,37,2
183,107,102,174,2
11,13,192,30,2
175,147,14,18,2
25,110,133,22,2
24,176,139,190,2
0,119,269,259,2
97,280,106,53,2
68,114,783,744,2
75,243,271,38,2
289,376,1017,886,2
127,122,347,108,2
230,203,743,672,2
106,190,326,213,2
47,111,165,274,2
25,40,547,363,2
60,11,81,257,2
31,62,511,91,2
143,176,294,305,2
40,7,273,57,2
58,35,494,388,2
30,58,66,124,2
123,163,169,226,2
95,131,371,309,2
7,169,48,29,2
245,395,220,233,2
0,91,197,220,2
62,51,226,223,2
87,362,464,452,2
189,202,410,298,2
36,17,227,189,2
10,11,522,502,2
14,94,75,69,2
0,83,25,44,2
205,124,436,192,2
138,10,87,154,2
4,103,187,88,2
51,88,185,58,2
112,53,247,109,2
27,25,247,210,2
4,8,403,28,2
305,252,264,9,2
294,505,182,234,2
110,22,240,63,2
61,42,387,406,2
60,14,78,54,2
211,145,517,229,2
376,378,183,0,2
45,18,119,18,2
16,252,17,0,2
55,9,7,172,2
14,97,335,284,2
146,101,390,430,2
141,182,617,389,2
455,305,552,458,2
351,251,91,77,2
13,175,397,335,2
285,311,178,267,2
89,274,615,189,2
82,27,697,648,2
273,153,121,301,2
169,171,760,681,2
70,108,558,870,2
215,34,241,73,2
45,21,514,536,2
60,40,260,17,2
86,93,236,206,2
4,123,434,2,2
96,25,228,317,2
213,330,430,29,2
124,163,28,180,2
85,100,230,49,2
59,342,48,38,2
12,9,6,212,2
159,176,85,253,2
79,76,18,332,2
36,63,812,784,2
200,89,278,530,2
166,171,370,540,2
23,118,84,211,2
15,56,126,281,2
317,139,211,68,2
154,218,119,361,2
450,386,589,249,2
35,15,337,521,2
300,334,503,464,2
285,303,279,173,2
129,229,773,423,2
229,151,205,0,2
122,126,627,398,2
76,28,323,531,2
110,283,605,106,2
80,104,1023,1023,2
18,28,204,270,2
33,159,331,375,3
26,151,356,521,3
80,113,344,527,3
71,278,259,133,3
136,48,250,482,3
355,270,45,164,3
388,98,338,307,3
121,179,10,96,3
103,88,234,83,3
60,73,252,19,3
527,779,243,129,3
132,185,291,523,3
26,238,204,139,3
220,179,29,45,3
19,35,138,195,3
168,21,303,107,3
1,109,94,35,3
32,162,121,112,3
413,427,2,48,3
109,316,28,341,3
241,205,394,484,3
408,595,217,156,3
356,493,240,313,3
56,100,195,43,3
2,264,719,461,3
231,52,699,644,3
246,71,771,426,3
162,47,919,885,3
227,78,174,56,3
310,146,432,325,3
514,279,58,0,3
50,115,8,123,3
644,46,331,169,3
180,585,74,152,3
687,488,126,176,3
416,130,76,99,3
353,487,120,233,3
372,431,401,302,3
116,56,148,22,3
110,27,103,170,3
72,49,128,18,3
168,142,453,382,3
58,50,403,198,3
117,122,231,294,3
49,48,203,143,3
71,52,184,214,3
29,120,232,92,3
302,171,235,111,3
55,223,99,213,3
60,40,238,323,3
82,18,62,290,3
744,826,233,316,3
313,441,192,389,3
143,9,320,299,3
22,16,410,118,3
128,95,537,835,3
303,56,719,731,3
125,37,229,498,3
34,107,935,827,3
164,199,353,578,3
72,256,401,247,3
208,142,310,195,3
23,170,95,215,3
177,122,43,42,3
185,296,387,360,3
182,165,45,25,3
24,16,987,724,3
91,76,626,569,3
74,176,222,328,3
229,100,233,178,3
187,20,58,204,3
192,19,36,177,3
151,28,326,439,3
49,14,255,159,3
161,230,375,223,3
259,615,60,41,3
322,693,123,45,3
143,320,199,77,3
688,619,16,90,3
391,380,164,87,3
340,455,143,165,3
183,202,251,23,3
1,6,295,429,3
1,17,375,64,3
242,100,22,14,3
98,62,355,178,3
45,98,38,532,3
16,188,397,178,3
159,57,67,34,3
34,93,36,311,3
438,213,606,447,3
162,66,452,377,3
426,688,689,216,3
41,304,704,599,3
93,85,233,0,3
232,45,1022,1023,3
294,152,18,7,3
137,8,109,98,3
238,162,1023,954,3
426,27,115,425,3
149,109,479,380,3
72,70,112,203,3
69,133,182,406,3
98,114,145,59,3
166,511,674,753,3
545,426,623,591,3
405,253,239,160,3
247,66,553,404,3
620,494,540,176,3
161,225,76,29,3
111,296,277,119,3
31,113,612,700,3
285,50,102,68,3
31,127,95,17,3
15,76,375,381,3
71,31,54,208,3
106,168,568,550,3
307,123,83,29,3
2,227,63,159,3
48,223,225,67,3
96,74,178,219,3
193,19,148,30,3
316,187,177,33,3
559,551,265,163,3
141,166,356,564,3
163,101,255,4,3
365,118,393,580,3
258,97,215,382,3
128,155,377,353,3
20,195,46,0,3
318,49,38,5,3
307,147,232,302,3
32,9,103,302,3
121,190,48,120,3
231,48,135,325,3
129,215,86,86,3
172,155,629,558,3
155,6,223,357,3
85,70,44,63,3
120,11,435,409,3
368,127,219,194,3
14,39,253,98,3
169,48,74,244,3
112,30,64,54,3
271,222,175,13,3
156,87,170,0,3
58,57,601,598,3
439,316,273,313,3
68,57,12,133,3
230,297,419,191,3
65,144,573,874,3
241,266,115,260,3
85,114,276,427,3
59,87,145,0,3
25,12,355,249,3
106,182,156,270,3
297,199,305,477,3
84,32,381,338,3
71,14,81,20,3
6,62,570,652,3
20,52,313,484,3
36,147,143,260,3
9,126,218,200,3
165,165,8,302,3
7,122,252,30,3
7,147,175,151,3
87,98,125,113,3
145,13,173,48,3
162,6,164,251,3
82,17,25,309,3
65,62,131,198,3
212,7,7,220,3
167,11,24,193,3
122,80,51,55,3
111,20,46,39,3
73,124,131,125,3
6,19,404,395,3
79,108,41,271,3
104,145,368,141,3
189,141,600,725,3
57,240,412,525,3
94,139,389,96,3
145,76,732,801,3
133,109,266,88,3
28,13,13,358,3
36,28,162,336,3
10,51,128,382,3
85,14,154,247,3
19,40,120,38,3
31,23,199,93,3
149,86,457,461,3
7,82,11,198,3
58,56,207,206,3
16,71,104,169,3
20,6,21,48,3
54,204,327,489,3
98,49,435,581,3
292,13,55,85,3
103,51,416,167,3
575,78,685,982,3
141,60,527,607,3
30,101,292,159,3
74,8,15,282,3
102,14,97,52,3
113,46,77,27,3
227,273,7,135,3
171,124,292,229,3
5,22,115,119,3
116,82,273,233,3
1,37,67,29,3
108,52,700,676,3
56,6,548,720,3
140,72,324,181,3
101,93,296,583,3
257,68,196,558,3
102,52,368,358,3
23,139,356,474,3
128,149,721,873,3
141,9,30,30,3
321,220,420,343,3
4,106,132,125,3
73,160,361,352,3
68,42,135,99,3
53,86,86,316,3
67,6,131,7,3
97,65,121,211,3
144,125,221,422,3
123,120,297,316,3
266,166,49,0,3
34,59,159,6,3
63,112,206,0,3
72,90,386,341,3
95,21,336,653,3
45,141,442,198,3
85,98,453,553,3
49,31,154,37,3
145,244,210,136,3
42,71,27,0,3
0,58,178,160,3
80,84,88,213,3
18,24,106,167,3
34,51,26,192,3
44,99,39,39,3
15,157,131,50,3
277,41,339,452,3
190,127,226,394,3
4,39,408,359,3
8,13,312,484,3
2,41,20,60,3
220,191,169,197,3
20,46,270,253,3
59,84,498,444,3
48,140,158,210,3
3,56,150,73,3
220,195,82,229,3
122,96,94,111,3
151,27,71,68,3
31,61,121,305,3
4,13,10,0,3
87,8,88,27,3
23,7,230,330,3
96,282,97,100,3
130,116,423,576,3
121,169,5,28,3
2,17,23,156,3
68,186,55,209,3
93,120,25,113,3
145,92,20,47,3
35,114,142,48,3
93,38,9,7,3
153,74,266,117,3
106,105,100,142,3
19,59,80,117,3
0,7,50,110,3
94,229,158,143,3
9,62,23,164,3
15,151,326,302,3
19,31,111,310,3
66,103,396,311,3
9,51,169,368,3
132,169,144,307,3
14,5,138,177,3
88,163,280,319,3
72,246,51,36,3
81,18,127,85,3
53,13,131,30,3
54,52,213,180,3
153,32,95,137,3
60,125,206,168,3
39,156,19,86,3
59,95,331,248,3
15,17,77,293,3
33,16,231,322,3
66,174,160,5,3
65,39,261,361,3
13,36,288,557,3
71,20,10,129,3
5,13,230,193,3
20,23,173,229,3
169,216,227,422,3
143,55,114,12,3
27,79,329,261,3
177,67,165,214,3
76,108,171,149,3
78,111,20,61,3
112,11,5,44,3
153,19,50,39,3
133,171,176,25,3
21,96,209,240,3
18,68,164,207,3
37,34,58,217,3
2,199,56,123,3
149,123,69,328,3
1,75,185,68,3
59,89,81,245,3
62,118,154,91,3
17,8,94,66,3
8,171,51,45,3
19,134,176,17,3
53,32,75,198,3
50,101,40,9,3
11,77,76,137,3
44,55,323,140,3
186,144,17,19,3
48,61,100,2,3
64,79,148,94,3
83,20,120,40,3
74,73,77,0,3
99,162,43,236,3
147,22,301,154,3
28,94,255,223,3
103,33,99,173,3
39,124,194,213,3
5,67,125,323,3
115,240,266,412,3
41,96,362,358,3
2,8,100,102,3
135,177,229,311,3
144,110,180,107,3
116,168,19,113,3
1,12,122,42,3
146,82,105,40,3
11,182,90,115,3
141,57,82,112,3
51,61,226,241,3
61,294,87,0,3
72,233,124,103,3
272,196,182,134,3
115,6,50,137,3
60,116,156,3,3
56,93,7,0,3
128,38,107,0,3
10,15,21,0,3
24,15,18,91,3
35,29,34,13,3
14,114,342,359,3
37,90,20,5,3
66,246,149,268,3
1,88,23,97,3
206,170,127,197,3
35,102,80,92,3
134,212,21,136,3
152,50,91,0,3
21,17,158,104,3
59,14,400,115,3
187,260,839,651,3
126,179,76,18,3
61,100,305,273,3
26,72,140,174,3
63,19,264,80,3
217,238,216,31,3
174,94,26,0,3
117,146,85,44,3
137,34,179,220,3
70,116,415,162,3
46,123,281,426,3
454,735,545,370,3
24,57,166,241,3
119,181,104,137,3
133,149,179,94,3
54,100,182,82,3
84,146,39,104,3
253,234,176,125,3
347,435,102,24,3
2,9,339,143,3
17,127,65,56,3
121,98,23,0,3
261,75,167,140,3
17,52,216,0,3
64,87,45,193,3
209,231,116,126,3
19,45,220,33,3
144,114,20,298,3
182,122,47,112,3
216,306,54,59,3
8,41,22,63,3
19,19,114,135,3
16,60,158,21,3
6,39,3,8,3
76,181,273,92,3
6,71,107,51,3
195,230,205,124,3
20,96,71,76,3
303,204,22,22,3
133,181,129,178,3
107,30,292,159,3
2,32,222,119,3
59,69,46,6,3
98,52,241,102,3
220,223,68,221,3
304,427,135,50,3
105,103,86,74,3
51,93,29,89,3
40,10,265,124,3
11,28,60,0,3
1,59,234,230,3
1,8,7,32,3
190,32,78,143,3
171,244,254,108,3
124,168,168,226,3
105,91,41,3,3
75,133,205,272,3
33,117,408,309,3
4,9,39,230,3
4,21,504,410,3
109,199,45,95,3
6,45,444,317,3
139,162,63,44,3
43,99,16,107,3
21,11,166,108,3
61,103,8,67,3
100,189,102,87,3
93,164,45,127,3
196,274,210,149,3
25,114,63,86,3
50,219,157,10,3
34,51,89,21,3
42,35,26,45,3
81,116,147,225,3
23,29,117,56,3
48,31,309,302,3
39,7,112,29,3
46,47,170,180,3
9,34,40,18,3
46,35,2,89,3
35,67,207,203,3
137,55,3,104,3
98,46,273,276,3
34,41,141,0,3
37,29,167,244,3
56,116,359,160,3
84,305,71,219,3
170,104,530,383,3
3,34,293,379,3
162,162,470,393,3
284,267,212,173,3
88,171,190,196,3
15,87,165,122,3
65,82,480,293,3
155,96,84,0,3
133,50,256,77,3
80,10,241,74,3
0,66,226,230,3
69,74,146,19,3
8,108,530,560,3
99,39,459,321,3
212,192,382,485,3
98,42,457,342,3
16,45,45,243,3
114,146,256,183,3
15,35,59,75,3
25,112,270,11,3
61,8,607,346,3
19,49,257,21,3
9,95,709,527,3
32,23,139,8,3
55,152,128,206,3
93,237,143,63,3
75,182,212,147,3
101,213,463,122,3
116,95,138,223,3
103,10,680,412,3
100,145,206,305,3
148,204,464,497,3
69,42,51,54,3
13,119,112,167,3
3,117,20,82,3
9,35,93,53,3
6,28,19,0,3
64,9,158,176,3
315,507,389,262,3
168,152,21,0,3
107,169,239,256,3
25,83,512,242,3
126,121,414,333,3
156,126,335,105,3
100,65,711,402,3
14,141,458,232,3
1,54,24,168,3
47,53,41,0,3
154,326,2,191,3
143,276,35,129,3
273,301,4,204,3
49,154,97,39,3
292,247,168,61,3
224,223,402,159,3
419,307,6,54,3
19,86,142,132,3
281,400,485,542,3
281,284,173,177,3
49,81,464,433,3
124,167,182,120,3
270,292,602,460,3
57,29,156,147,3
158,89,584,632,3
31,52,57,78,3
1,94,117,62,3
143,205,300,252,3
95,83,376,401,3
144,130,324,349,3
146,63,27,130,3
167,152,386,665,3
14,16,143,39,3
165,8,163,275,3
127,106,367,479,3
59,171,179,120,3
105,105,317,178,3
117,92,179,78,3
33,305,256,216,3
201,434,554,470,3
28,9,11,22,3
24,259,142,67,3
213,437,450,310,3
196,163,613,567,3
15,80,166,359,3
116,17,355,187,3
104,203,208,16,3
37,279,349,441,3
44,32,414,212,3
148,331,534,321,3
133,240,112,71,3
163,96,467,431,3
178,56,286,659,3
186,8,643,269,3
7,56,472,635,3
33,110,150,125,3
301,326,329,552,3
38,76,176,0,3
297,328,216,359,3
176,98,281,185,3
105,144,260,290,3
277,133,327,366,3
154,180,390,729,3
355,21,122,115,3
338,344,290,558,3
144,495,268,306,3
257,314,139,356,3
48,45,527,221,3
119,205,397,330,3
135,231,161,313,3
241,170,144,45,3
516,515,47,148,3
30,143,610,541,3
83,322,385,389,3
62,67,429,407,3
202,38,354,288,3
206,26,115,116,3
57,11,196,195,3
71,14,412,38,3
105,139,612,425,3
90,138,98,6,3
9,148,342,63,3
181,267,284,92,3
35,246,19,261,3
3,102,76,113,3
143,119,257,250,3
31,124,350,278,3
11,11,194,297,3
112,252,6,178,3
5,136,3,112,3
92,218,325,29,3
409,353,75,0,3
120,110,53,25,3
41,178,630,239,3
87,226,131,386,3
375,234,266,67,3
359,141,418,167,3
188,250,322,26,3
142,210,217,260,3
75,38,507,329,3
124,137,80,81,3
132,174,455,255,3
68,31,7,187,3
83,54,456,234,3
149,169,38,122,3
0,98,223,130,3
55,80,2,167,3
3,43,133,271,3
239,467,29,108,3
291,407,278,295,3
173,39,379,65,3
422,272,719,795,3
322,246,485,190,3
61,66,1023,907,3
74,382,141,149,3
48,38,468,756,3
168,412,249,487,3
374,179,388,496,3
359,277,547,1023,3
196,22,153,245,3
171,53,120,210,3
60,223,473,929,3
334,140,337,168,3
144,221,9,76,3
248,71,215,252,3
17,28,40,69,3
41,13,646,958,3
145,305,223,519,3
256,297,555,634,3
7,197,453,457,3
29,176,81,13,3
161,259,564,405,3
276,11,339,116,3
23,119,498,732,3
257,156,648,768,3
2,95,278,68,3
2,27,92,86,3
551,349,40,158,3
327,263,249,76,3
392,99,159,124,3
434,465,198,151,3
601,765,600,327,3
463,325,710,933,3
159,195,53,25,3
398,72,227,696,3
191,106,261,518,3
258,39,465,435,3
207,93,705,759,3
256,39,645,487,3
55,309,541,451,3
98,55,499,345,3
287,146,42,50,3
27,31,421,465,3
685,623,291,207,3
902,888,958,878,3
233,87,177,126,3
514,233,950,964,3
1,303,327,642,3
158,47,78,383,3
132,47,14,146,3
2,88,377,213,3
170,149,3,90,3
0,186,627,838,3
426,53,179,487,3
108,34,780,749,3
65,54,59,188,3
220,58,465,597,3
48,92,237,262,3
136,100,59,3,3
6,44,204,223,3
279,227,126,200,3
18,92,4,219,3
92,189,237,372,3
132,39,150,341,3
381,220,292,332,3
35,70,7,275,3
147,106,45,255,3
94,113,20,127,3
37,42,40,334,3
23,7,288,274,3
32,7,152,110,3
1,120,66,259,3
249,193,141,178,3
819,550,161,30,3
699,554,361,149,3
194,244,97,29,3
80,207,597,370,3
64,53,228,177,3
88,12,427,303,3
549,188,221,316,3
140,312,213,232,3
71,162,394,655,3
30,102,167,166,3
8,234,301,278,3
162,15,231,140,3
320,39,75,84,3
62,31,108,189,3
49,43,395,311,3
8,149,312,442,3
50,18,460,554,3
90,323,111,107,3
44,54,410,580,3
50,179,388,260,3
69,8,327,116,3
15,229,482,826,3
184,127,112,269,3
158,30,356,509,3
57,142,319,423,3
41,18,470,207,3
106,54,323,389,3
164,239,380,121,3
77,93,582,854,3
163,342,129,138,3
20,214,613,886,3
105,120,466,389,3
3,7,361,560,3
33,166,340,191,3
79,25,785,948,3
85,76,28,94,3
76,88,247,226,3
229,87,495,566,3
75,47,513,663,3
6,55,303,321,3
60,55,540,423,3
63,23,38,28,3
163,94,231,248,3
50,94,190,271,3
103,84,50,202,3
75,13,445,541,3
118,34,467,493,3
49,424,343,258,3
153,276,442,539,3
20,18,659,811,3
111,58,541,651,3
242,227,645,790,3
6,191,391,546,3
259,26,323,296,3
77,55,184,125,3
92,36,343,430,3
77,22,248,278,3
154,250,33,23,3
191,7,319,443,3
92,124,47,256,3
140,9,111,129,3
124,63,224,438,3
44,74,71,46,3
34,60,98,51,3
79,77,437,814,3
0,155,324,491,3
74,68,682,918,3
55,170,80,123,3
109,144,673,1023,3
65,24,202,60,3
36,23,428,487,3
107,59,125,333,3
14,95,13,276,3
322,84,176,558,3
253,183,19,73,3
31,131,11,6,3
0,31,143,180,3
108,25,204,315,3
96,162,158,60,3
253,247,385,312,3
62,206,243,224,3
205,225,161,38,3
62,175,78,28,3
96,119,165,100,3
86,114,71,167,3
27,169,130,322,3
24,347,431,554,3
13,175,281,115,3
46,207,14,65,3
3,106,322,471,3
116,233,201,21,3
4,8,341,423,3
111,91,168,76,3
232,228,37,30,3
0,74,269,55,3
36,31,16,55,3
58,59,250,218,3
18,7,239,413,3
9,68,40,28,3
67,120,64,124,3
145,50,119,85,3
36,74,284,202,3
74,116,332,422,3
99,28,139,241,3
93,87,443,461,3
181,48,303,664,3
44,46,495,273,3
156,124,290,427,3
39,11,240,232,3
67,22,149,207,3
38,92,71,66,3
228,205,44,4,3
130,30,94,155,3
138,24,119,122,3
48,30,57,172,3
80,40,203,11,3
175,50,152,18,3
9,8,30,27,3
116,51,59,56,3
11,60,28,19,3
210,152,246,247,3
234,163,235,240,3
46,9,117,71,3
38,10,96,177,3
106,9,57,10,3
6,50,423,436,3
129,125,167,157,3
168,290,295,306,3
21,101,308,181,3
19,117,46,102,3
42,14,121,404,3
167,17,334,265,3
20,77,441,698,3
4,8,63,11,3
81,175,83,150,3
127,89,158,214,3
152,48,233,200,3
97,172,254,357,3
326,421,36,90,3
193,253,79,47,3
66,110,115,43,3
292,226,148,34,3
39,83,72,60,3
27,37,366,334,3
186,152,92,236,3
128,77,511,515,3
100,173,399,572,3
47,92,114,154,3
5,7,127,17,3
39,33,314,395,3
163,100,148,38,3
65,48,93,37,3
96,135,180,154,3
125,179,505,399,3
145,63,20,10,3
31,14,423,441,3
94,158,10,33,3
256,493,360,420,3
32,95,52,105,3
17,54,337,375,3
75,48,291,385,3
148,29,33,22,3
84,146,235,200,3
127,32,59,34,3
72,91,276,133,3
21,35,220,90,3
10,71,16,14,3
51,101,71,82,3
189,259,46,14,3
121,17,207,265,3
50,26,332,239,3
46,29,395,345,3
48,220,44,131,3
2,8,443,437,3
197,267,100,23,3
120,109,312,316,3
68,134,324,442,3
11,83,240,265,3
120,65,166,171,3
79,7,317,139,3
91,22,60,131,3
134,24,39,276,3
33,16,201,114,3
89,144,26,174,3
143,76,149,152,3
211,120,7,117,3
37,91,23,1,3
162,81,13,0,3
79,42,151,333,3
4,13,72,35,3
139,127,8,119,3
23,38,6,88,3
10,97,352,310,3
69,51,39,133,3
76,99,270,208,3
28,89,37,0,3
86,71,5,191,3
171,62,203,346,3
104,69,370,328,3
26,43,135,176,3
215,197,59,111,3
61,73,321,252,3
17,39,20,115,3
51,262,466,449,3
104,209,63,60,3
9,28,334,359,3
30,125,46,0,3
60,40,241,279,3
115,80,216,39,3
0,65,312,354,3
98,48,23,268,3
18,22,251,115,3
32,155,117,203,3
79,55,118,117,3
27,98,116,114,3
57,24,174,85,3
7,217,76,192,3
36,37,169,245,3
37,13,105,45,3
58,15,378,453,3
59,13,69,149,3
108,63,153,0,3
11,21,271,40,3
28,41,56,0,3
119,6,421,267,3
58,81,240,208,3
93,48,444,282,3
20,11,38,14,3
201,319,349,113,3
64,31,184,266,3
187,95,56,61,3
237,231,282,411,3
30,93,100,163,3
86,139,227,278,3
202,266,211,23,3
25,47,353,124,3
193,266,75,31,3
127,261,4,0,3
74,14,229,115,3
57,53,153,119,3
21,78,50,10,3
65,5,156,156,3
191,211,262,38,3
104,55,186,0,3
11,33,41,7,3
30,47,176,0,3
46,14,205,113,3
70,67,169,61,3
31,81,75,43,3
96,14,48,221,3
1,68,298,75,3
22,82,18,140,3
33,85,35,1,3
115,60,250,88,3
9,35,243,150,3
32,6,124,167,3
70,108,276,124,3
76,14,113,189,3
14,89,253,254,3
6,20,186,5,3
114,28,215,238,3
113,213,183,40,3
162,109,229,339,3
187,231,248,8,3
26,97,337,465,3
181,160,397,256,3
5,134,56,98,3
20,9,522,410,3
3,9,27,65,3
60,26,229,190,3
89,84,172,115,3
30,25,68,207,3
100,64,172,138,3
49,48,253,209,3
286,173,324,310,3
202,193,72,229,3
88,45,621,581,3
154,74,53,245,3
171,282,696,447,3
263,266,268,80,3
141,201,60,74,3
46,101,107,52,3
16,162,103,112,3
77,45,336,166,3
26,247,351,281,3
119,142,230,224,3
10,11,109,82,3
85,102,82,54,3
51,76,14,0,3
40,9,14,30,3
27,86,205,111,3
57,26,39,45,3
74,200,7,25,3
41,19,218,176,3
210,281,7,123,3
43,119,104,0,3
276,195,91,7,3
46,269,35,21,3
47,72,311,185,3
108,135,355,282,3
164,60,237,191,3
83,34,60,0,3
50,209,258,117,3
23,25,236,317,3
75,186,396,144,3
137,137,302,416,3
160,180,42,239,3
162,310,134,283,3
70,50,81,251,3
111,95,183,190,3
23,21,96,289,3
95,100,151,179,3
42,125,133,152,3
178,314,192,45,3
64,57,177,235,3
30,90,153,0,3
116,103,201,261,3
135,203,354,308,3
61,25,342,4,3
96,113,246,231,3
101,168,457,10,3
19,108,211,238,3
97,71,143,0,3
14,143,405,299,3
27,32,77,24,3
28,11,314,181,3
50,80,37,69,3
7,138,99,230,3
118,215,251,343,3
2,63,188,271,3
48,16,138,201,3
2,10,116,315,3
11,123,752,373,3
156,97,77,215,3
36,6,374,291,3
57,122,243,196,3
1,75,75,180,3
25,67,326,112,3
142,163,29,197,3
196,290,48,155,3
31,123,526,47,3
173,184,356,516,3
300,55,476,47,3
37,11,289,301,3
205,176,364,10,3
138,8,43,79,3
30,6,193,46,3
35,44,40,287,3
77,104,260,390,3
131,149,80,358,3
379,390,815,680,3
146,50,25,229,3
22,80,126,43,3
143,231,43,101,3
183,96,425,404,3
377,111,40,64,3
19,129,612,534,3
244,78,155,153,3
4,33,461,198,3
78,24,269,51,3
262,43,240,97,3
15,31,101,262,3
91,154,115,40,3
178,159,22,123,3
232,235,213,307,3
163,208,443,177,3
169,30,56,8,3
191,282,366,110,3
94,232,150,0,3
236,75,283,66,3
63,63,477,181,3
257,596,109,29,3
146,601,411,353,3
123,24,126,131,3
1,11,882,575,3
67,60,321,190,3
70,55,637,266,3
98,91,18,23,3
36,81,398,514,3
292,282,7,164,3
343,219,40,311,3
236,247,480,371,3
21,12,252,739,3
20,31,150,7,3
126,88,212,288,3
156,99,175,104,3
296,214,446,318,3
265,320,242,127,3
99,34,137,60,3
75,8,438,412,3
183,121,310,347,3
237,102,263,330,3
12,160,271,274,3
196,207,143,190,3
56,65,291,144,3
326,207,123,268,3
519,484,296,301,3
6,63,235,337,3
114,152,424,586,3
206,98,160,54,3
16,29,246,4,3
206,149,422,270,3
165,85,64,235,3
48,131,962,662,3
319,289,31,345,3
161,35,457,242,3
166,258,222,299,3
142,146,72,115,3
75,73,40,4,3
136,173,428,362,3
7,195,217,0,3
161,133,511,507,3
115,91,314,92,3
55,54,171,70,3
133,172,39,11,3
386,39,417,349,3
50,186,412,482,3
36,99,513,393,3
34,197,56,229,3
20,35,530,435,3
206,362,193,79,4
271,94,224,327,4
249,38,187,306,4
16,51,544,414,4
12,101,340,526,4
93,84,260,295,4
99,19,44,197,4
37,184,69,174,4
14,13,463,379,4
170,77,228,51,4
95,267,467,235,4
238,139,553,422,4
91,81,530,393,4
94,54,800,598,4
87,251,455,404,4
208,115,440,466,4
119,406,728,853,4
340,158,475,591,4
108,366,617,657,4
466,86,329,794,4
20,160,98,317,4
71,86,121,350,4
149,11,229,282,4
94,62,59,407,4
156,20,534,384,4
309,211,628,668,4
358,362,411,420,4
33,69,767,657,4
63,28,565,645,4
411,270,315,342,4
66,256,409,707,4
482,341,42,4,4
502,282,286,489,4
227,127,227,234,4
300,197,42,13,4
60,11,201,148,4
37,108,190,149,4
142,11,449,536,4
83,43,120,124,4
63,97,339,219,4
122,230,312,32,4
711,584,650,272,4
205,187,28,246,4
78,263,540,471,4
33,46,216,185,4
513,579,16,330,4
305,422,470,19,4
74,35,602,341,4
21,127,327,494,4
70,166,237,647,4
335,102,226,16,4
51,73,483,830,4
105,46,257,92,4
223,101,124,357,4
135,211,263,148,4
131,279,338,137,4
110,154,311,169,4
353,494,478,181,4
122,294,420,237,4
285,212,244,225,4
30,87,233,324,4
143,304,462,119,4
182,33,132,504,4
68,125,565,689,4
38,56,470,826,4
126,10,81,27,4
103,133,54,7,4
143,11,70,7,4
72,18,132,28,4
31,217,134,2,4
354,12,256,487,4
282,78,439,24,4
461,406,375,431,4
77,123,304,180,4
103,413,640,535,4
93,369,304,473,4
172,363,625,383,4
341,190,763,1023,4
30,228,426,99,4
180,306,564,770,4
200,274,383,195,4
65,108,182,234,4
143,148,62,27,4
18,92,398,602,4
699,553,159,194,4
449,149,647,452,4
73,67,125,257,4
170,585,805,713,4
18,145,352,342,4
48,90,1023,1023,4
295,240,85,414,4
86,185,155,223,4
161,235,28,80,4
200,65,108,437,4
173,120,72,254,4
40,205,329,811,4
126,224,23,397,4
43,16,362,531,4
108,48,415,196,4
342,40,1023,1023,4
185,182,666,178,4
614,710,1023,1023,4
237,168,194,353,4
190,320,481,843,4
104,35,93,35,4
44,245,212,465,4
171,44,615,535,4
25,54,289,52,4
69,135,529,652,4
67,25,482,184,4
416,37,552,644,4
16,80,54,171,4
123,53,438,59,4
192,67,443,104,4
262,78,278,307,4
546,720,68,89,4
556,569,837,612,4
330,393,150,316,4
89,257,1023,655,4
98,219,74,40,4
112,160,478,272,4
212,484,538,594,4
220,341,518,544,4
551,173,48,508,4
30,77,5,6,4
28,71,449,445,4
270,150,213,138,4
62,19,398,251,4
52,182,186,203,4
86,43,502,522,4
214,159,84,156,4
55,303,240,295,4
172,11,187,2,4
191,167,891,1023,4
41,29,57,383,4
145,80,1023,1022,4
226,128,110,20,4
22,66,646,629,4
151,20,310,193,4
481,19,87,319,4
531,88,227,201,4
93,110,333,185,4
89,87,447,596,4
9,73,283,58,4
9,154,810,907,4
405,360,115,357,4
162,211,346,557,4
88,163,56,221,4
1,48,240,401,4
151,157,45,54,4
272,253,269,68,4
241,29,364,480,4
181,22,71,218,4
381,29,1022,1023,4
85,140,718,1023,4
488,299,480,830,4
379,360,538,387,4
190,121,688,1005,4
41,186,14,54,4
218,89,1023,1023,4
269,50,224,256,4
244,160,277,283,4
168,121,267,483,4
96,126,755,1011,4
309,51,572,825,4
287,197,38,143,4
498,196,20,721,4
11,54,635,847,4
1,60,46,471,4
441,101,926,1023,4
579,52,408,828,4
242,210,761,784,4
159,61,579,758,4
178,38,472,481,4
35,74,668,751,4
200,354,52,41,4
3,44,610,1023,4
155,87,229,509,4
89,138,232,380,4
22,15,181,64,4
214,15,72,334,4
15,134,664,703,4
91,40,427,217,4
64,63,77,20,4
123,219,604,657,4
70,209,666,1023,4
9,131,411,10,4
49,52,892,983,4
142,236,142,513,4
35,249,99,174,4
125,169,234,481,4
107,16,295,631,4
105,25,606,517,4
96,214,166,328,4
258,90,362,334,4
48,48,434,802,4
137,37,260,338,4
401,287,174,73,4
66,47,572,692,4
139,197,428,413,4
80,126,466,638,4
37,179,32,5,4
109,114,342,484,4
7,10,393,484,4
179,77,94,334,4
103,65,297,278,4
197,27,155,19,4
76,170,255,287,4
138,120,177,41,4
117,96,20,183,4
5,20,51,379,4
172,150,43,108,4
150,33,39,113,4
17,49,24,331,4
5,59,248,296,4
15,56,168,59,4
39,37,402,548,4
65,123,287,217,4
259,268,495,701,4
99,229,244,384,4
52,34,164,133,4
96,151,147,111,4
53,140,312,382,4
66,63,110,213,4
231,17,494,709,4
59,60,212,279,4
70,36,330,310,4
28,32,81,0,4
10,188,226,209,4
75,32,16,101,4
176,213,47,3,4
1,137,267,502,4
141,36,231,455,4
7,119,346,396,4
73,65,70,45,4
5,92,124,226,4
68,87,459,712,4
68,44,113,15,4
17,17,848,1023,4
109,135,9,37,4
47,7,280,206,4
74,38,69,55,4
160,149,27,120,4
12,73,173,360,4
34,83,197,373,4
28,18,208,160,4
55,68,181,144,4
0,163,82,84,4
109,86,217,151,4
89,126,159,145,4
120,19,260,314,4
51,174,16,182,4
12,101,346,703,4
71,39,127,252,4
189,88,103,257,4
32,119,588,690,4
47,174,42,152,4
62,235,403,740,4
143,142,206,330,4
81,91,317,428,4
77,158,427,601,4
31,60,226,264,4
79,71,200,0,4
81,285,174,321,4
146,206,206,352,4
106,17,104,194,4
28,39,181,384,4
15,64,304,269,4
122,246,83,19,4
58,56,242,298,4
45,80,23,250,4
205,179,619,785,4
56,167,82,126,4
101,225,3,73,4
108,68,63,41,4
83,11,158,35,4
95,36,13,49,4
269,285,92,174,4
69,187,181,323,4
102,25,254,61,4
43,157,12,117,4
48,173,235,317,4
284,68,353,642,4
100,209,281,407,4
80,119,264,421,4
46,199,397,701,4
15,26,104,584,4
77,18,24,18,4
77,17,467,496,4
271,198,288,310,4
10,45,479,573,4
223,104,320,333,4
280,111,117,308,4
38,38,17,32,4
175,104,100,149,4
26,33,18,0,4
1,56,99,48,4
25,12,81,312,4
213,47,101,256,4
3,38,69,91,4
116,104,165,161,4
74,9,4,0,4
7,74,36,24,4
147,19,371,135,4
2,157,1,51,4
156,204,106,90,4
188,257,422,597,4
61,114,136,3,4
43,21,372,443,4
12,146,43,112,4
27,13,163,149,4
27,39,185,194,4
147,98,176,225,4
469,246,104,185,4
21,81,105,143,4
6,115,30,0,4
84,226,35,110,4
69,119,202,235,4
142,55,13,85,4
102,115,262,203,4
80,41,265,148,4
34,119,56,56,4
192,169,142,221,4
56,102,337,296,4
182,199,83,55,4
94,68,113,1,4
176,231,38,162,4
120,41,177,123,4
6,44,6,97,4
29,82,106,11,4
3,68,19,66,4
110,177,249,301,4
37,55,279,284,4
105,97,252,293,4
262,244,76,90,4
294,285,308,421,4
159,139,227,261,4
184,207,525,500,4
92,231,61,0,4
18,20,142,182,4
45,141,404,391,4
225,116,125,0,4
97,19,140,60,4
80,57,137,97,4
35,30,164,336,4
46,74,422,428,4
111,239,148,251,4
178,129,319,380,4
42,81,82,96,4
131,34,316,502,4
45,138,321,227,4
267,120,252,315,4
40,162,345,264,4
44,49,113,160,4
13,102,443,425,4
145,132,213,399,4
66,125,493,110,4
61,37,404,581,4
32,132,233,453,4
111,100,98,332,4
10,180,12,267,4
30,178,392,360,4
33,86,234,105,4
117,155,117,53,4
2,244,43,135,4
97,300,285,351,4
159,170,295,401,4
72,302,260,235,4
0,188,258,345,4
23,58,59,83,4
149,186,381,434,4
155,32,43,200,4
78,117,182,73,4
91,95,322,256,4
138,32,35,88,4
9,114,387,436,4
14,19,349,297,4
58,29,339,396,4
95,168,546,504,4
58,39,250,257,4
27,9,239,218,4
122,249,325,170,4
9,6,134,176,4
169,122,111,160,4
63,8,37,67,4
36,27,89,197,4
160,134,475,485,4
27,53,381,358,4
61,206,339,432,4
27,78,358,405,4
85,29,102,229,4
127,181,24,94,4
35,137,31,91,4
32,65,4,220,4
42,201,126,21,4
138,204,9,110,4
187,190,123,83,4
35,85,458,314,4
47,18,154,25,4
37,119,186,104,4
7,107,87,156,4
175,273,253,235,4
54,52,14,73,4
171,97,24,202,4
1,106,220,204,4
123,168,14,63,4
77,9,217,263,4
217,111,188,167,4
85,185,41,7,4
24,40,209,205,4
8,133,78,0,4
210,108,208,178,4
50,11,173,0,4
8,134,194,251,4
157,156,363,367,4
73,15,239,189,4
18,39,205,149,4
104,220,122,110,4
34,245,187,134,4
13,73,244,365,4
10,17,49,212,4
252,263,364,388,4
231,75,36,148,4
106,273,181,151,4
228,54,226,32,4
51,71,273,149,4
23,69,249,118,4
39,79,132,0,4
3,14,53,0,4
131,85,370,269,4
84,119,160,89,4
98,81,419,255,4
64,120,38,102,4
125,58,31,0,4
23,77,141,200,4
66,6,130,170,4
48,57,16,236,4
8,60,446,432,4
16,129,67,0,4
110,13,297,397,4
381,325,196,26,4
61,178,4,247,4
245,198,124,226,4
181,100,288,229,4
139,106,150,266,4
56,114,487,249,4
128,47,322,319,4
43,87,322,233,4
51,100,536,416,4
125,88,76,17,4
113,37,472,498,4
94,128,467,451,4
204,9,271,345,4
162,159,206,315,4
40,330,147,63,4
25,30,286,360,4
114,172,509,328,4
413,260,293,184,4
83,113,422,247,4
14,83,39,234,4
34,11,177,171,4
9,69,289,306,4
10,83,130,69,4
11,21,57,205,4
39,140,871,800,4
12,122,72,288,4
74,71,1023,972,4
418,38,10,11,4
340,279,427,280,4
85,86,237,221,4
466,244,164,374,4
341,163,122,0,4
185,407,39,314,4
65,185,23,69,4
240,104,56,350,4
370,236,229,337,4
291,384,15,191,4
148,529,289,408,4
59,199,120,79,4
360,124,155,179,4
279,322,218,274,4
143,71,254,163,4
119,352,76,69,4
136,60,6,41,4
128,397,213,124,4
241,382,153,108,4
336,134,361,120,4
116,291,339,155,4
499,256,461,567,4
122,113,477,165,4
71,249,331,254,4
175,100,448,388,4
118,209,7,132,4
232,92,501,450,4
120,133,155,185,4
49,128,591,558,4
319,412,146,234,4
453,799,44,213,4
66,47,407,276,4
112,271,14,216,4
447,329,328,221,4
135,43,27,19,4
219,12,3,57,4
76,321,228,23,4
275,335,460,114,4
91,39,72,246,4
277,419,440,479,4
192,155,357,622,4
45,38,514,271,4
350,443,859,789,4
98,157,423,294,4
241,394,928,758,4
67,20,22,165,4
143,9,917,561,4
386,452,537,592,4
413,472,18,74,4
124,300,346,264,4
3,302,251,340,4
14,77,321,341,4
26,176,116,261,4
300,210,103,159,4
118,208,120,205,4
105,21,71,81,4
195,58,267,14,4
97,140,184,199,4
74,132,362,458,4
338,182,196,291,4
849,1023,706,648,4
398,260,106,210,4
25,236,748,824,4
230,544,397,450,4
149,135,322,399,4
373,286,156,40,4
43,203,157,312,4
404,53,110,4,4
345,510,280,255,4
434,282,466,305,4
56,167,105,55,4
209,67,4,325,4
230,61,121,95,4
95,172,317,329,4
208,154,286,253,4
125,231,62,5,4
129,125,431,434,4
428,463,356,279,4
99,22,266,398,4
287,498,565,479,4
532,711,223,250,4
210,241,495,295,4
136,241,158,16,4
106,91,612,412,4
203,213,44,0,4
368,364,199,88,4
378,357,271,177,4
369,682,115,61,4
113,304,135,2,4
10,90,313,205,4
22,169,123,180,4
222,235,453,344,4
420,195,55,227,4
444,739,180,54,4
28,85,187,123,4
32,184,404,26,4
92,167,459,650,4
125,12,77,587,4
110,343,323,345,4
38,121,162,89,4
49,19,501,454,4
153,204,342,306,4
277,173,307,154,4
26,131,203,38,4
65,147,140,166,4
450,270,37,175,4
21,35,160,51,4
95,367,223,443,4
241,376,20,216,4
446,541,397,336,4
328,464,140,66,4
91,50,443,187,4
50,174,270,230,4
212,71,207,12,4
69,340,69,288,4
111,194,83,298,4
494,447,109,281,4
258,143,281,201,4
150,251,78,171,4
141,284,6,170,4
147,237,88,84,4
168,119,384,540,4
85,190,373,235,4
127,44,170,314,4
109,165,388,266,4
281,134,348,342,4
198,230,319,257,4
208,257,35,0,4
12,79,327,388,4
342,644,277,508,4
38,341,182,451,4
163,53,47,52,4
422,37,404,291,4
101,133,158,366,4
38,171,181,177,4
334,674,44,153,4
20,67,58,42,4
118,272,169,78,4
196,11,586,380,4
291,329,61,74,4
156,30,120,334,4
554,204,140,21,4
486,41,102,235,4
232,150,550,534,4
37,150,211,162,4
162,66,653,792,4
9,57,112,71,4
306,17,702,842,4
151,104,178,316,4
381,729,400,422,4
722,571,50,106,4
190,70,448,428,4
201,317,162,126,4
40,156,281,455,4
212,92,100,143,4
166,96,541,636,4
178,297,255,159,4
216,304,83,19,4
391,85,326,607,4
224,117,173,378,4
196,21,257,255,4
256,193,61,257,4
95,12,52,895,4
30,121,162,21,4
381,241,145,74,4
106,36,15,112,4
105,173,145,423,4
198,142,213,228,4
43,95,137,7,4
142,159,17,491,4
108,97,68,34,4
215,79,191,13,4
362,306,33,27,4
429,117,1023,1023,4
302,68,293,447,4
159,31,790,582,4
194,38,311,462,4
564,215,711,585,4
398,217,362,757,4
8,69,683,431,4
53,226,167,285,4
49,218,325,426,4
463,487,407,89,4
222,404,419,382,4
80,56,23,356,4
246,250,264,399,4
75,38,134,123,4
4,70,85,110,4
30,8,243,374,4
320,33,574,392,4
90,41,334,253,4
281,681,390,291,4
186,176,197,153,4
199,37,52,248,4
233,476,249,263,4
309,442,106,16,4
89,286,51,33,4
360,404,281,5,4
137,229,47,48,4
339,112,303,157,4
144,157,455,312,4
300,128,76,387,4
61,207,328,234,4
80,243,124,512,4
115,84,355,647,4
171,137,607,615,4
814,466,169,141,4
270,378,181,214,4
307,315,106,21,4
36,219,72,0,4
278,43,76,55,4
206,18,86,169,4
123,52,63,64,4
10,28,26,23,4
214,168,339,398,4
71,107,656,1023,4
199,204,615,620,4
131,29,11,27,4
195,19,750,862,4
110,267,238,402,4
72,249,695,684,4
32,287,397,229,4
30,137,99,201,4
335,344,44,144,4
311,253,38,179,4
129,341,640,811,4
78,514,202,299,4
94,90,284,162,4
167,446,299,215,4
356,166,96,28,4
360,65,603,497,4
302,52,51,449,4
301,327,190,0,4
59,59,340,34,4
377,195,450,182,4
299,870,152,5,4
1023,1023,636,598,4
508,587,28,56,4
170,185,592,66,4
203,414,366,520,4
80,116,254,123,4
423,195,271,161,4
356,38,51,10,4
96,165,261,484,4
118,92,439,332,4
266,241,335,532,4
263,19,67,223,4
369,42,207,356,4
55,37,58,1,4
212,281,485,231,4
58,16,182,7,4
413,391,732,528,4
205,112,55,350,4
106,94,296,94,4
245,372,4,6,4
119,178,457,1023,4
3,313,177,220,4
45,35,209,436,4
7,262,689,826,4
26,19,58,7,4
145,249,239,494,4
13,262,160,117,4
362,302,141,186,4
336,605,475,87,4
140,489,236,249,4
96,135,431,15,4
273,125,370,391,4
282,455,164,29,4
251,74,111,17,4
52,9,350,269,4
457,560,74,27,4
429,115,60,176,4
380,490,446,560,4
68,225,64,273,4
2,350,500,599,4
96,579,202,620,4
218,320,15,141,4
8,59,212,234,4
128,324,104,279,4
415,344,481,292,4
144,37,146,223,4
94,314,225,120,4
22,91,166,175,4
302,366,64,158,4
55,183,197,344,4
95,336,437,148,4
162,31,256,104,4
14,144,364,808,4
151,21,13,0,4
25,86,255,101,4
54,102,493,789,4
116,123,46,416,4
286,161,163,492,4
36,351,394,334,4
14,169,273,46,4
291,459,487,402,4
344,223,104,35,4
25,101,727,664,4
277,276,116,11,4
106,191,455,272,4
321,44,274,232,4
16,25,245,81,4
220,426,147,424,4
293,96,321,481,4
152,61,482,178,4
266,43,86,120,4
48,71,639,521,4
473,552,357,474,4
265,196,295,367,4
286,548,537,560,4
712,744,289,62,4
140,85,500,429,4
191,345,1,36,4
20,57,174,181,4
274,261,20,336,4
432,310,504,907,4
54,201,538,827,4
48,109,272,351,4
271,11,210,264,4
25,441,242,495,4
146,28,155,295,4
128,230,45,281,4
48,48,320,139,4
560,441,298,29,4
139,17,104,156,4
448,475,1,28,4
360,220,149,123,4
248,419,117,146,4
62,203,669,231,4
191,18,63,0,4
67,165,580,298,4
146,328,74,169,4
43,59,203,32,4
21,65,12,180,4
231,165,220,312,4
388,811,435,657,4
37,525,32,218,4
286,362,761,742,4
139,21,321,362,4
94,130,466,783,4
121,16,146,275,4
170,137,573,602,4
106,508,460,894,4
4,90,769,588,4
62,347,10,207,4
295,47,439,380,4
65,104,176,158,4
176,21,313,405,4
30,99,188,206,4
9,26,220,88,4
207,166,181,183,4
206,175,38,10,4
30,7,55,26,4
272,377,58,128,4
445,504,22,229,4
15,78,243,88,4
461,238,476,530,4
319,52,141,92,4
122,304,364,352,4
33,84,13,40,4
264,19,162,171,4
270,11,124,0,4
51,192,284,622,4
340,197,623,725,4
297,187,441,531,4
175,190,80,3,4
132,127,146,109,4
164,178,447,531,4
136,51,254,352,4
137,252,366,259,4
165,201,30,258,4
596,41,213,183,4
302,19,19,143,4
282,11,400,545,4
46,292,395,351,4
63,32,222,149,4
138,339,61,321,4
47,79,402,428,4
299,83,769,908,4
80,129,490,327,4
338,276,710,442,4
120,118,557,355,4
185,147,322,54,4
262,297,657,474,4
122,14,513,730,4
56,208,156,41,4
161,105,281,244,4
70,26,345,304,4
261,35,471,740,4
117,40,202,650,4
70,30,427,430,4
20,189,202,266,4
289,344,284,4,4
40,54,236,712,4
350,563,79,143,4
183,27,144,124,4
89,301,339,67,4
267,409,211,353,4
145,279,165,6,4
158,84,145,24,4
130,48,145,48,4
12,128,437,579,4
27,169,84,48,4
103,26,99,17,4
285,117,384,702,4
15,12,51,228,4
71,69,143,345,4
198,32,608,953,4
214,461,214,338,4
163,380,225,359,4
196,30,57,288,4
53,138,237,240,4
376,168,187,147,4
235,146,130,205,4
94,17,112,5,4
442,231,611,1023,4
782,152,175,524,4
83,21,91,59,4
1,236,185,13,4
91,371,270,343,4
50,101,95,0,4
13,137,11,528,4
185,102,223,378,4
47,75,336,107,4
374,211,261,259,4
403,240,246,42,4
39,118,498,431,4
156,279,131,290,4
3,148,451,264,4
52,58,304,310,4
14,63,458,626,4
80,34,141,155,4
226,31,202,274,4
60,153,428,1023,4
262,73,265,176,4
262,19,158,0,4
26,64,608,912,4
55,95,105,73,4
168,80,154,30,4
31,31,85,343,4
257,243,117,0,4
400,257,63,183,4
156,228,109,88,4
123,56,40,129,4
82,94,55,346,4
135,46,234,288,4
63,147,301,524,4
319,65,100,160,4
207,168,40,46,4
10,8,724,655,4
351,82,193,19,4
305,228,910,798,4
38,123,141,312,4
55,194,59,223,4
136,91,7,92,4
263,359,197,355,4
228,198,492,396,4
484,317,235,426,4
14,314,481,777,4
379,469,597,423,4
385,434,339,625,4
77,8,548,574,4
73,104,225,574,4
111,72,860,862,4
120,31,168,95,4
7,60,395,651,4
132,92,722,802,4
104,68,226,428,4
205,118,84,0,4
78,130,145,301,4
71,20,15,129,4
221,39,300,434,4
36,16,420,256,4
274,233,109,247,4
450,500,8,254,4
267,417,680,761,4
300,84,59,343,4
439,403,372,145,4
514,241,741,746,4
20,285,564,1023,4
184,124,394,89,4
632,175,133,105,4
557,257,72,203,4
19,9,25,223,4
62,97,92,201,4
3,143,536,846,4
498,37,756,1023,4
89,124,72,11,4
439,234,609,1023,4
362,606,286,792,4
310,275,670,677,4
38,198,42,492,4
401,60,509,785,4
307,13,323,432,4
171,134,468,841,4
24,8,771,576,4
199,51,187,698,4
226,46,1023,1023,4
93,263,237,735,4
59,95,569,307,4
85,42,262,45,4
13,9,225,241,4
233,53,306,28,4
215,94,6,400,4
218,128,669,1023,4
24,28,121,57,4
72,16,469,864,4
227,144,65,178,4
109,125,76,290,4
488,215,752,1023,4
329,158,350,651,4
75,24,988,1023,4
194,68,88,309,4
506,29,685,395,4
66,152,436,330,4
93,35,685,469,4
204,178,37,4,4
125,82,312,566,4
186,113,138,249,4
9,61,16,0,4
88,18,119,313,4
39,99,592,1023,4
138,205,1,17,4
180,461,604,707,4
188,173,104,435,4
383,27,295,270,4
153,346,320,624,4
131,267,195,188,4
485,99,67,31,4
149,199,55,63,4
79,141,224,134,4
131,130,58,9,4
146,37,342,594,4
88,32,648,773,4
197,41,558,785,4
127,143,229,359,4
73,136,367,372,4
177,85,265,240,4
165,75,956,1023,4
305,34,71,514,4
272,10,1023,1023,4
32,38,37,531,4
7,121,621,590,4
182,28,362,272,4
58,201,197,184,4
49,85,536,294,4
140,28,34,111,4
80,66,127,120,4
202,37,41,38,4
389,178,9,89,4
142,15,265,584,4
118,26,183,319,4
43,14,8,86,4
36,116,738,744,4
137,34,722,806,4
2,130,17,62,4
74,213,314,600,4
161,12,422,653,4
423,78,830,1023,4
175,14,986,1023,4
321,174,348,245,4
123,110,664,1023,4
124,12,248,261,4
282,127,232,605,4
58,6,775,947,4
56,79,61,290,4
211,33,779,1023,4
343,104,559,675,4
9,102,463,796,4
25,6,8,7,4
3,23,218,389,4
273,33,555,1012,4
132,52,49,358,4
87,7,288,474,4
61,241,20,71,4
166,149,106,175,4
153,89,793,860,4
396,91,432,576,4
103,164,236,536,4
134,6,375,477,4
286,33,555,628,4
50,20,622,881,4
266,190,133,348,4
95,74,660,558,4
142,113,42,338,4
49,68,188,186,4
26,62,156,194,4
45,55,114,306,4
69,134,61,325,4
132,83,191,190,4
123,100,113,202,4
7,243,746,989,4
56,147,394,413,4
96,67,294,444,4
73,20,104,9,4
169,158,72,60,4
77,20,66,311,4
36,100,63,4,4
62,58,170,366,4
63,139,27,15,4
162,28,123,110,4
17,14,87,252,4
154,152,161,577,4
133,143,422,430,4
272,127,429,799,4
163,84,62,152,4
74,7,181,244,4
86,7,176,292,4
4,97,44,111,4
20,148,495,659,4
19,113,180,513,4
76,67,267,167,4
4,32,98,176,4
9,56,397,297,4
170,118,74,72,4
21,105,466,226,4
158,129,214,531,4
215,39,181,110,4
9,83,448,580,4
44,165,189,443,4
506,149,106,2,4
337,117,493,578,4
85,168,265,204,4
433,110,90,81,4
250,90,360,416,4
2,175,162,10,4
146,66,690,760,4
40,103,166,8,4
294,303,349,493,4
319,317,13,54,4
54,35,141,33,4
6,85,148,357,4
1,24,39,155,4
69,7,66,15,4
99,143,126,336,4
258,138,292,675,4
60,50,11,83,4
23,55,788,654,4
190,220,620,623,4
66,115,320,212,4
220,22,161,163,4
201,113,338,337,4
103,59,172,41,4
129,132,265,309,4
170,209,96,191,4
17,47,53,33,4
43,31,377,281,4
3,132,746,867,4
18,274,576,906,4
71,159,419,318,4
6,221,472,436,4
4,67,155,146,4
20,55,309,329,4
132,33,289,196,4
54,58,499,475,4
69,29,300,316,4
17,85,61,248,4
212,133,536,355,4
386,186,516,599,4
47,79,398,347,4
171,73,636,725,4
71,10,10,9,4
144,124,539,489,4
239,99,793,1023,4
426,136,342,638,4
65,130,513,597,4
8,96,349,362,4
85,58,428,440,4
31,29,162,55,4
49,99,67,37,4
100,87,163,470,4
75,106,38,27,4
27,181,44,95,4
45,17,3,108,4
73,11,330,299,4
246,265,20,102,4
161,7,417,553,4
80,51,51,99,4
312,28,185,196,4
116,201,112,194,4
81,215,57,200,4
169,15,312,322,4
152,140,140,7,4
2,41,276,298,4
49,86,378,317,4
149,131,328,344,4
91,46,464,659,4
129,165,287,106,4
230,251,159,63,4
73,47,86,32,4
283,291,275,203,4
99,53,4,61,4
143,237,299,399,4
102,68,168,33,4
147,12,91,349,4
22,97,265,34,4
30,29,189,302,4
5,89,40,22,4
91,54,195,281,4
60,127,91,188,4
25,47,208,159,4
146,288,117,34,4
143,147,111,2,4
72,194,217,347,4
74,75,105,16,4
8,23,256,140,4
178,47,63,60,4
78,50,145,337,4
162,409,44,50,4
194,272,123,268,4
27,22,52,307,4
9,34,255,501,4
159,81,140,385,4
113,10,265,244,4
223,244,158,170,4
300,82,53,139,4
356,451,103,91,4
62,21,284,160,4
42,226,83,7,4
73,228,181,2,4
57,10,90,133,4
17,127,102,115,4
363,8,178,237,4
237,56,240,328,4
166,8,398,249,4
65,37,378,514,4
4,6,562,426,4
95,24,137,362,4
31,44,599,507,4
25,76,134,270,4
234,17,209,350,4
144,17,363,270,4
104,116,31,29,4
213,234,156,153,4
35,60,98,35,4
36,12,196,118,4
33,133,398,364,4
132,144,355,434,4
146,224,81,235,4
1,116,455,471,4
173,128,51,140,4
168,100,149,145,4
66,35,13,197,4
64,33,4,46,4
123,70,209,223,4
168,50,60,0,4
59,120,327,376,4
263,186,116,126,4
157,138,348,289,4
46,63,60,131,4
198,111,132,79,4
199,33,179,442,4
273,70,19,181,4
207,237,185,187,4
129,127,89,37,4
38,37,151,16,4
6,45,19,117,4
62,192,143,280,4
185,9,37,64,4
41,173,743,669,4
55,176,60,138,4
93,35,573,415,4
168,152,214,163,4
14,38,7,101,4
109,249,67,441,4
96,40,114,76,4
194,247,359,590,4
211,220,177,36,4
64,9,274,415,4
22,53,163,272,4
21,8,142,30,4
18,37,164,199,4
45,30,1,75,4
86,63,214,196,4
47,151,36,142,4
210,351,19,84,4
114,178,65,17,4
102,70,246,266,4
96,167,165,276,4
73,204,283,275,4
97,55,65,178,4
145,94,102,0,4
2,206,170,263,4
145,38,281,240,4
222,86,214,262,4
309,406,41,268,4
224,179,183,133,4
19,201,252,121,4
58,111,138,185,4
31,51,537,523,4
302,188,46,70,4
102,27,204,243,4
119,277,43,40,4
34,13,6,90,4
14,216,124,116,4
17,103,110,86,4
62,139,162,77,4
25,76,170,169,4
186,18,172,133,4
1,16,165,210,4
188,164,329,209,4
62,143,60,194,4
135,191,285,271,4
122,145,328,236,4
2,56,137,93,4
18,147,213,215,4
151,312,38,56,4
131,81,58,9,4
82,40,8,21,4
57,22,97,4,4
121,16,99,51,4
198,46,98,228,4
18,197,113,107,4
159,257,3,131,4
179,21,11,162,4
79,46,239,142,4
22,202,187,9,4
108,12,144,251,4
141,257,83,66,4
14,58,22,1,4
77,137,159,80,4
219,331,135,330,4
170,22,384,219,4
155,57,297,381,4
25,198,609,351,4
180,188,307,221,4
138,15,251,162,4
76,276,246,291,4
13,6,284,274,4
48,69,88,0,4
142,48,107,198,4
50,52,47,6,4
34,118,74,57,4
40,45,136,47,4
188,411,24,12,4
229,248,53,0,4
341,377,59,8,4
109,101,197,173,4
161,309,13,0,4
116,251,343,132,4
179,137,70,8,4
11,98,81,0,4
195,130,194,20,4
28,31,211,221,4
31,42,342,133,4
71,141,248,355,4
43,6,149,180,4
107,121,17,78,4
297,337,119,26,4
150,220,42,236,4
51,221,184,70,4
11,9,75,31,4
93,38,75,88,4
37,25,177,87,4
300,398,15,44,4
196,139,17,62,4
139,262,322,66,4
121,202,28,74,4
120,281,174,147,4
39,27,26,137,4
215,163,356,269,4
121,134,13,153,4
46,45,219,158,4
97,163,146,163,4
24,46,41,142,4
149,58,475,554,4
34,98,92,70,4
345,531,110,263,4
85,102,360,282,4
28,60,369,205,4
46,117,200,99,4
58,83,195,233,4
48,38,81,67,4
167,185,53,26,4
90,83,82,21,4
24,39,66,133,4
210,201,83,42,4
83,17,323,396,4
86,101,524,442,4
16,9,93,84,4
30,36,281,302,4
355,402,185,0,4
514,421,187,168,4
134,90,391,479,4
121,35,155,121,4
214,344,2,12,4
58,113,71,10,4
55,6,154,290,4
17,161,402,343,4
113,73,412,240,4
206,302,31,49,4
20,7,158,286,4
59,10,170,0,4
104,15,603,616,4
68,82,990,829,4
102,58,207,139,4
186,214,472,435,4
220,203,559,575,4
88,126,188,36,4
17,160,158,198,4
213,232,89,324,4
49,64,1015,722,4
333,446,137,38,4
319,382,1023,777,4
85,167,17,37,4
291,443,186,118,4
281,325,695,760,4
192,94,435,245,4
119,98,338,574,4
118,143,846,1012,4
58,23,299,26,4
164,184,543,681,4
67,95,266,84,4
50,84,550,498,4
14,13,82,31,4
63,161,531,356,4
255,82,528,230,4
178,66,631,744,4
167,168,746,534,4
74,127,294,615,4
194,53,521,437,4
320,328,395,525,4
62,145,231,323,4
51,110,894,1006,4
169,128,403,211,4
23,71,911,606,4
53,28,680,91,4
322,269,633,570,4
49,236,765,196,4
165,65,270,366,4
103,179,480,460,4
248,459,124,100,4
24,192,219,355,4
50,202,580,537,4
45,195,380,635,4
120,73,1023,788,4
185,121,41,122,4
202,298,885,406,4
388,415,438,74,4
109,9,453,382,4
30,29,848,527,4
219,117,47,0,4
21,179,588,571,4
403,23,55,96,4
38,8,291,100,4
132,153,653,619,4
174,118,445,349,4
49,92,399,480,4
5,229,275,127,4
128,257,115,211,4
232,278,139,206,4
330,329,616,763,4
85,36,168,91,4
88,189,309,469,4
3,52,368,215,4
89,55,312,304,4
177,19,458,251,4
41,129,512,671,4
123,244,533,510,4
104,51,436,376,4
416,387,495,480,4
16,189,223,26,4
3,7,217,343,4
80,47,179,86,4
109,53,242,308,4
150,52,77,298,4
521,29,178,363,4
274,198,284,160,4
434,460,473,551,4
208,35,24,2,4
96,291,804,715,4
633,339,94,43,4
362,149,704,928,4
230,128,159,224,4
140,41,423,481,4
223,345,191,84,4
16,238,267,237,4
14,6,330,375,4
41,66,23,28,4
15,238,523,672,4
44,76,276,265,4
11,55,279,398,4
20,73,172,87,4
318,106,234,52,4
112,184,533,436,4
80,104,319,38,4
5,213,772,450,4
240,321,341,414,4
488,382,1023,1023,4
212,203,423,665,4
127,79,816,914,4
77,207,366,413,4
26,147,20,364,4
114,78,432,453,4
6,53,121,217,4
48,135,225,85,4
137,298,305,542,4
132,228,610,548,4
521,159,12,5,4
359,386,451,327,4
129,310,271,151,4
371,41,93,287,4
85,44,556,789,4
37,117,421,331,4
162,175,263,199,4
317,93,516,364,4
244,161,645,319,4
243,186,479,230,4
62,154,369,428,4
164,241,87,158,4
67,21,71,156,4
205,229,43,54,4
104,232,102,110,4
130,76,69,201,4
33,160,303,250,4
213,105,258,139,4
14,40,105,194,4
71,44,8,197,4
159,264,42,153,4
44,141,110,56,4
155,212,48,1,4
67,223,44,249,4
198,65,21,110,4
120,98,85,88,4
137,122,18,6,4
74,7,6,179,4
7,56,38,11,4
281,406,31,30,4
272,311,278,331,4
87,36,299,269,4
1,56,62,66,4
151,152,97,231,4
314,365,428,310,4
354,364,102,17,4
25,33,341,389,4
506,415,84,86,4
71,10,451,435,4
351,221,57,7,4
288,44,359,434,4
182,35,70,32,4
146,167,110,3,4
45,57,79,86,4
10,24,277,256,4
126,112,95,73,4
74,165,111,200,4
23,156,26,222,4
548,307,154,76,4
20,86,54,193,4
725,783,290,141,4
224,307,102,5,4
23,106,16,82,4
197,263,113,251,4
234,157,284,232,4
9,41,153,225,4
67,11,246,237,4
37,14,54,143,4
110,58,151,85,4
107,7,14,163,4
24,163,231,0,4
61,116,20,109,4
269,292,256,3,4
214,17,249,276,4
199,121,232,125,4
144,241,608,503,4
52,47,34,202,4
46,138,195,61,4
38,74,108,264,4
195,532,19,11,4
81,212,12,49,4
7,192,10,6,4
76,104,234,456,4
43,63,369,431,4
19,179,128,265,4
469,411,168,124,4
231,531,201,350,4
484,331,38,81,4
439,83,194,422,4
338,481,70,71,4
114,116,18,253,4
363,477,113,17,4
86,204,182,65,4
122,252,218,67,4
151,114,356,695,4
86,31,113,222,4
71,19,469,692,4
58,181,129,238,4
248,319,80,5,4
332,142,149,0,4
42,67,371,384,4
252,258,129,379,4
169,247,16,204,4
35,92,7,11,4
33,73,23,180,4
95,93,342,220,4
10,116,126,135,4
327,272,353,240,4
86,90,282,367,4
228,198,361,264,4
18,73,404,428,4
48,63,55,99,4
38,20,520,538,4
133,189,13,233,4
128,100,539,639,4
144,55,116,3,4
240,40,254,416,4
75,290,216,372,4
344,215,219,399,4
349,449,225,31,4
107,59,218,103,4
333,599,441,223,4
235,371,124,55,4
377,512,176,4,4
226,274,594,260,4
120,159,85,31,4
180,134,651,762,4
481,344,337,195,4
22,160,390,488,4
76,178,84,66,4
249,268,237,386,4
21,469,9,52,4
420,588,154,281,4
157,6,41,35,4
39,57,206,146,4
63,269,1,73,4
208,385,150,190,4
12,228,297,454,4
15,23,244,276,4
58,57,333,536,4
141,8,304,413,4
384,139,597,331,4
29,88,106,70,4
264,156,818,730,4
112,132,197,117,4
406,480,488,373,4
407,489,264,326,4
18,150,102,190,4
139,122,56,53,4
26,43,40,52,4
82,158,156,136,4
58,266,269,132,4
228,112,697,745,4
279,85,174,387,4
97,60,1023,1023,4
120,94,563,464,4
97,10,767,983,4
109,272,749,494,4
60,105,646,910,4
81,129,254,45,4
7,11,395,387,4
66,98,664,671,4
128,59,70,6,4
345,225,226,113,4
250,620,96,310,4
459,626,105,0,4
173,6,220,191,4
206,419,199,42,4
179,241,311,85,4
90,10,231,37,4
159,117,212,92,4
171,295,324,405,5
125,163,36,162,5
215,23,194,212,5
225,124,246,188,5
20,36,85,81,5
45,25,248,294,5
187,255,208,10,5
29,130,344,293,5
139,366,38,104,5
89,127,410,361,5
259,178,273,39,5
65,123,115,52,5
59,401,39,272,5
144,37,74,3,5
3,135,453,466,5
33,55,885,951,5
11,24,30,235,5
6,89,665,759,5
108,76,605,473,5
47,25,157,0,5
2,6,163,11,5
13,213,143,174,5
50,244,8,0,5
203,324,306,172,5
492,269,394,110,5
84,330,329,222,5
78,84,188,292,5
34,11,160,9,5
325,447,135,407,5
618,551,174,9,5
43,60,284,699,5
303,211,292,186,5
149,21,478,716,5
52,10,113,125,5
52,29,421,580,5
144,39,840,757,5
70,79,74,113,5
3,145,524,585,5
390,256,660,501,5
304,110,101,355,5
299,177,190,201,5
192,245,336,252,5
88,65,282,198,5
121,241,225,67,5
195,152,355,210,5
54,63,148,3,5
34,17,422,233,5
54,8,205,115,5
252,208,121,120,5
80,10,10,57,5
92,23,272,48,5
93,105,338,110,5
150,237,162,184,5
34,114,505,618,5
255,78,107,116,5
103,57,60,106,5
3,237,342,260,5
352,467,47,84,5
27,42,111,86,5
18,241,315,621,5
52,86,131,61,5
85,84,218,330,5
189,243,93,242,5
51,9,260,500,5
241,250,15,19,5
124,35,318,25,5
20,35,208,186,5
288,98,619,657,5
252,181,153,248,5
37,45,45,0,5
156,278,128,26,5
323,511,241,266,5
229,141,184,39,5
78,58,13,174,5
19,53,82,16,5
194,178,154,106,5
84,97,344,264,5
27,49,338,260,5
165,71,116,43,5
14,107,111,206,5
49,139,43,3,5
437,443,725,759,5
228,29,107,0,5
376,546,724,527,5
419,549,258,224,5
24,38,993,1011,5
175,253,499,401,5
391,463,419,434,5
270,270,605,570,5
198,79,197,138,5
64,19,57,17,5
119,35,460,400,5
116,213,45,44,5
244,249,170,120,5
20,49,132,242,5
160,26,178,242,5
228,346,200,298,5
97,252,84,108,5
147,70,163,77,5
27,240,361,520,5
653,603,232,277,5
89,46,151,206,5
51,53,18,126,5
171,28,226,235,5
182,192,80,226,5
47,15,343,520,5
230,134,127,232,5
29,227,9,65,5
185,54,188,459,5
155,55,36,148,5
9,55,78,121,5
202,510,226,83,5
208,271,10,343,5
264,192,88,190,5
80,34,261,83,5
3,115,591,477,5
184,249,469,453,5
188,376,37,201,5
72,51,757,700,5
201,332,345,340,5
473,402,500,412,5
125,137,153,174,5
4,17,166,44,5
166,242,49,11,5
29,270,362,407,5
29,15,363,360,5
36,179,517,408,5
118,122,579,595,5
2,93,707,499,5
18,29,192,86,5
88,32,376,266,5
65,132,204,207,5
3,33,138,194,5
183,10,29,71,5
3,42,231,132,5
41,10,250,150,5
112,84,205,343,5
151,14,323,247,5
223,14,175,252,5
12,68,73,3,5
94,11,269,303,5
1,34,138,297,5
191,214,97,73,5
183,107,151,215,5
54,70,190,182,5
16,51,176,58,5
148,161,139,109,5
264,309,26,50,5
274,364,169,312,5
74,93,374,259,5
9,74,263,161,5
195,170,407,448,5
11,9,550,528,5
36,158,126,28,5
151,51,358,202,5
25,17,59,0,5
16,15,55,56,5
6,15,187,193,5
48,21,87,264,5
44,173,405,499,5
49,64,65,234,5
78,98,410,348,5
2,102,329,291,5
39,40,193,264,5
5,36,378,230,5
53,120,37,207,5
52,163,131,109,5
3,7,149,49,5
29,39,5,9,5
43,212,105,158,5
129,73,132,134,5
11,15,405,349,5
70,105,477,464,5
190,6,519,422,5
25,95,299,291,5
54,113,7,58,5
59,133,209,304,5
34,92,178,244,5
24,67,144,157,5
11,89,249,298,5
32,105,418,197,5
146,54,390,317,5
26,97,203,8,5
4,51,160,69,5
79,13,201,198,5
17,23,80,0,5
17,183,278,399,5
133,123,120,138,5
27,29,227,331,5
77,173,230,216,5
191,122,478,587,5
78,214,6,8,5
153,176,220,253,5
74,203,6,18,5
26,144,193,222,5
124,119,414,381,5
123,57,72,47,5
40,37,448,489,5
136,17,236,295,5
149,188,92,114,5
3,82,208,124,5
43,13,56,80,5
1,64,419,347,5
125,13,36,56,5
75,70,337,444,5
125,73,419,282,5
0,28,213,208,5
27,27,340,360,5
46,243,272,230,5
229,371,226,279,5
10,107,28,49,5
251,266,195,137,5
54,134,37,18,5
48,21,160,30,5
37,36,13,0,5
84,40,68,11,5
74,187,129,136,5
53,91,170,247,5
90,42,59,177,5
87,108,24,121,5
97,23,143,113,5
92,84,235,208,5
120,125,27,79,5
25,57,7,0,5
187,401,11,29,5
25,148,69,79,5
40,101,143,171,5
87,143,47,98,5
216,372,124,98,5
8,96,28,53,5
67,119,270,384,5
57,103,271,138,5
43,52,272,309,5
0,134,328,203,5
35,52,2,60,5
104,6,152,106,5
38,18,27,82,5
313,475,9,0,5
164,119,82,46,5
99,213,85,42,5
214,148,34,14,5
4,11,35,47,5
48,56,58,32,5
83,39,15,9,5
30,112,79,106,5
199,228,342,182,5
162,87,141,98,5
6,11,565,549,5
186,183,115,158,5
204,101,189,127,5
189,132,253,201,5
163,172,129,109,5
267,255,23,22,5
152,287,37,30,5
23,105,1,5,5
132,210,52,89,5
106,214,65,16,5
23,11,78,0,5
7,85,13,44,5
7,52,5,0,5
46,6,23,11,5
0,7,136,193,5
70,86,48,35,5
35,6,123,101,5
2,52,149,50,5
80,130,6,35,5
34,24,81,50,5
126,264,26,23,5
162,50,21,0,5
182,298,9,15,5
10,15,14,97,5
53,87,39,20,5
120,122,51,0,5
146,140,29,19,5
32,13,63,34,5
84,74,79,53,5
9,83,4,13,5
100,148,45,0,5
11,81,58,37,5
48,27,71,122,5
41,59,3,12,5
101,125,148,120,5
8,45,4,27,5
21,111,115,152,5
3,27,24,3,5
5,168,57,60,5
70,143,1,13,5
63,163,9,21,5
27,32,10,14,5
48,11,27,35,5
24,53,125,19,5
12,66,89,128,5
236,276,123,22,5
44,9,3,3,5
158,151,82,67,5
6,70,33,28,5
4,59,5,8,5
65,90,84,56,5
3,10,107,67,5
27,9,37,3,5
41,156,70,38,5
194,255,61,24,5
101,77,4,0,5
37,172,13,9,5
256,446,1,0,5
90,18,6,23,5
28,190,4,0,5
89,9,23,84,5
91,65,73,46,5
2,58,4,21,5
85,36,35,9,5
9,52,26,0,5
42,33,49,8,5
61,198,32,40,5
20,59,77,9,5
47,27,70,31,5
44,91,138,50,5
107,167,14,0,5
62,7,103,79,5
28,81,24,0,5
134,253,2,23,5
122,162,15,16,5
18,54,1,2,5
25,125,21,24,5
117,136,43,6,5
