Ch1,Ch2,Ch3,Ch4,label
383,65,81,132,1
1,17,32,60,1
273,61,156,205,1
66,13,23,145,1
108,97,79,105,1
394,124,112,141,1
25,47,0,26,1
345,97,82,141,1
71,88,67,4,1
81,22,48,105,1
286,129,179,21,1
22,7,60,105,1
293,32,69,106,1
63,36,0,36,1
68,13,12,39,1
268,52,159,119,1
63,18,27,46,1
192,71,106,82,1
108,20,61,110,1
4,23,61,98,1
438,101,162,56,1
69,44,108,20,1
202,52,139,104,1
147,35,117,142,1
129,6,62,44,1
394,90,96,153,1
44,39,93,48,1
292,53,46,131,1
75,25,47,185,1
19,16,0,57,1
409,118,122,135,1
115,89,10,60,1
330,148,181,162,1
153,85,0,55,1
53,7,80,26,1
410,138,150,149,1
147,111,50,24,1
304,39,173,80,1
34,65,0,122,1
42,33,65,16,1
329,9,206,217,1
16,39,0,8,1
231,17,218,162,1
106,9,1,70,1
125,34,154,83,1
334,50,176,173,1
19,9,0,9,1
310,75,99,109,1
48,46,0,166,1
81,16,37,55,1
349,7,98,56,1
83,55,24,3,1
209,52,98,52,1
127,14,0,55,1
106,57,13,20,1
318,32,236,160,1
20,13,57,45,1
293,23,192,75,1
108,37,8,29,1
47,65,116,71,1
423,114,41,217,1
36,20,27,43,1
281,57,47,117,1
134,58,0,115,1
67,13,0,14,1
388,49,219,243,1
70,38,25,99,1
232,35,248,187,1
44,7,0,67,1
119,20,160,174,1
442,139,84,55,1
12,53,47,115,1
261,15,125,107,1
42,8,9,75,1
15,122,12,39,1
342,42,220,318,1
62,35,16,121,1
301,64,217,169,1
186,65,1,15,1
20,31,16,29,1
431,107,39,50,1
0,63,78,52,1
216,25,27,23,1
75,73,24,154,1
104,5,63,42,1
420,87,197,117,1
76,16,5,75,1
279,73,191,100,1
190,127,36,4,1
11,97,49,31,1
444,163,46,121,1
119,43,0,24,1
236,9,235,282,1
96,13,36,245,1
118,43,167,160,1
407,75,69,139,1
34,65,176,106,1
261,42,2,40,1
40,98,0,308,1
32,58,0,225,1
396,38,132,124,1
11,92,0,91,1
388,245,83,76,1
245,185,68,26,1
53,116,31,169,1
453,95,28,91,1
15,161,34,6,1
403,156,103,111,1
80,105,13,67,1
116,56,23,98,1
283,23,213,6,1
42,39,43,55,1
292,27,321,136,1
47,39,16,26,1
38,153,38,68,1
333,27,60,112,1
76,114,17,78,1
359,134,238,292,1
50,33,25,49,1
62,13,8,2,1
413,160,11,69,1
78,36,255,397,1
201,23,140,75,1
156,37,138,5,1
83,41,138,47,1
290,55,108,93,1
25,86,105,238,1
292,37,209,365,1
3,148,156,4,1
144,10,83,57,1
352,30,204,58,1
59,44,54,152,1
301,7,62,23,1
58,23,115,270,1
38,52,14,66,1
305,45,19,103,1
15,105,86,41,1
268,153,12,54,1
101,7,42,244,1
46,21,61,35,1
463,197,31,6,1
18,190,81,134,1
222,65,0,4,1
39,200,98,54,1
197,258,113,61,1
311,125,101,138,1
13,93,79,465,1
389,213,13,63,1
203,209,83,3,1
35,82,54,58,1
408,55,111,236,1
0,216,80,116,1
245,145,107,210,1
250,111,48,50,1
166,143,2,74,1
439,240,200,21,1
61,18,55,198,1
336,128,211,57,1
73,51,230,148,1
31,55,61,189,1
633,299,8,313,1
107,171,32,297,1
422,129,119,483,1
170,43,68,333,1
145,53,39,80,1
363,170,53,11,1
125,312,105,103,1
412,110,126,231,1
80,45,42,102,1
161,101,117,255,1
407,52,130,374,1
91,98,112,348,1
292,42,259,322,1
36,298,159,606,1
143,135,205,188,1
422,284,69,157,1
51,66,250,93,1
466,403,8,219,1
213,100,145,281,1
50,69,16,96,1
642,426,13,101,1
85,120,160,216,1
532,214,199,238,1
171,181,41,196,1
229,317,47,300,1
438,263,36,215,1
124,229,0,159,1
353,56,152,365,1
212,75,275,44,1
53,109,102,125,1
500,320,239,185,1
58,48,268,435,1
260,245,183,37,1
31,21,214,838,1
136,247,147,138,1
323,227,111,624,1
49,67,112,192,1
420,88,29,323,1
116,44,170,462,1
54,13,72,3,1
599,510,402,257,1
107,126,41,235,1
396,311,82,222,1
140,28,24,55,1
130,157,68,7,1
610,548,104,286,1
29,42,45,91,1
381,136,82,543,1
65,35,148,101,1
77,62,355,190,1
568,320,194,139,1
39,9,70,742,1
501,263,140,191,1
139,62,122,524,1
89,112,321,473,1
662,235,4,379,1
44,142,213,340,1
615,257,437,440,1
246,128,188,349,1
22,109,125,155,1
530,172,190,561,1
66,21,210,800,1
384,239,379,64,1
233,156,291,567,1
94,112,179,363,1
696,481,432,433,1
28,22,196,2,1
626,414,521,300,1
202,170,6,181,1
125,99,503,407,1
735,470,314,168,1
140,157,328,292,1
530,413,383,573,1
138,18,267,15,1
249,171,385,642,1
771,474,25,330,1
93,99,123,515,1
618,344,104,25,1
235,87,76,139,1
159,86,201,468,1
657,266,83,342,1
136,170,36,287,1
503,113,65,145,1
230,17,5,381,1
48,115,177,521,1
726,407,145,323,1
130,6,194,428,1
607,548,216,451,1
0,57,14,483,1
204,60,0,281,1
845,637,46,99,1
19,31,297,30,1
834,451,8,114,1
351,376,182,115,1
191,196,92,994,1
670,510,339,937,1
298,85,14,95,1
293,287,48,25,1
189,39,440,42,1
244,279,161,237,1
692,604,201,232,1
138,23,328,92,1
475,292,270,242,1
69,105,28,225,1
284,119,211,621,1
626,489,207,242,1
40,123,231,261,1
476,396,0,60,1
386,15,41,308,1
43,88,55,111,1
977,821,208,37,1
401,45,52,117,1
559,95,101,1,1
233,27,139,469,1
79,75,251,214,1
661,388,68,92,1
110,40,137,260,1
482,542,87,36,1
165,193,176,164,1
45,154,84,106,1
565,344,257,117,1
14,145,63,176,1
731,532,74,315,1
108,157,24,271,1
62,232,78,221,1
386,275,157,142,1
22,200,127,122,1
493,228,66,66,1
256,141,41,11,1
37,460,131,325,1
757,109,265,41,1
152,213,197,15,1
683,384,264,84,1
300,364,59,667,1
113,374,415,297,1
582,586,381,339,1
29,29,338,298,1
525,445,250,508,1
8,256,304,416,1
43,177,57,308,1
526,241,350,312,1
34,137,34,17,1
214,258,43,132,1
217,54,0,60,1
40,132,303,171,1
700,334,581,461,1
181,161,349,27,1
758,671,97,47,1
261,244,236,3,1
4,101,297,147,1
629,429,904,573,1
199,91,55,45,1
539,308,209,96,1
49,76,0,61,1
236,218,22,116,1
498,307,139,223,1
40,21,181,61,1
454,299,4,8,1
4,5,26,101,1
123,8,247,240,1
905,429,345,17,1
319,375,98,360,1
447,315,85,84,1
168,113,328,262,1
139,225,169,133,1
511,373,246,43,1
74,97,213,159,1
520,172,146,157,1
60,6,10,146,1
110,77,102,65,1
659,411,12,47,1
13,102,153,157,1
505,365,10,272,1
187,72,22,85,1
21,47,255,84,1
410,69,83,45,1
22,81,70,27,1
397,247,113,139,1
147,90,158,84,1
219,129,0,195,1
749,452,21,23,1
99,54,255,147,1
436,271,173,67,1
210,79,22,50,1
147,89,72,206,1
546,207,171,167,1
33,47,119,57,1
501,407,144,399,1
136,31,109,31,1
94,117,15,67,1
578,375,288,154,1
73,102,34,52,1
574,306,213,255,1
258,226,2,23,1
178,91,12,89,1
633,339,37,46,1
135,145,9,2,1
484,430,260,48,1
217,158,99,132,1
48,39,136,23,1
675,361,237,93,1
116,199,10,86,1
587,389,197,230,1
130,178,123,25,1
268,146,0,75,1
623,379,166,177,1
149,90,50,74,1
517,259,208,65,1
271,262,132,184,1
38,10,14,4,1
551,216,296,130,1
3,20,15,3,1
510,329,169,185,1
197,103,8,203,1
118,67,149,101,1
508,231,255,164,1
55,70,68,35,1
483,209,291,212,1
149,54,166,270,1
100,25,60,216,1
616,465,234,152,1
82,122,0,185,1
562,337,163,111,1
208,30,79,28,1
133,40,0,167,1
667,376,114,40,1
134,27,0,29,1
504,364,303,259,1
150,8,17,24,1
67,30,0,24,1
665,357,190,121,1
28,23,16,80,1
544,303,44,116,1
111,14,47,38,1
129,87,13,52,1
653,360,179,202,1
72,7,169,7,1
602,379,191,49,1
165,79,48,165,1
164,172,53,131,1
771,372,206,47,1
59,13,43,70,1
569,356,114,18,1
288,187,125,102,1
109,131,83,24,1
587,415,127,226,1
85,130,101,94,1
583,372,232,132,1
170,127,60,1,1
193,24,115,60,1
740,478,273,266,1
120,106,0,59,1
477,344,133,79,1
146,64,0,5,1
232,152,161,132,1
740,368,87,21,1
151,40,0,44,1
638,391,284,135,1
189,83,65,60,1
157,24,30,89,1
732,338,390,264,1
108,43,6,46,1
537,327,273,90,1
307,175,0,7,1
111,5,227,231,1
704,381,177,75,1
152,92,62,259,1
477,490,228,148,1
91,43,51,65,1
190,214,56,141,1
734,531,341,265,1
73,115,43,150,1
575,300,251,83,1
85,5,128,62,1
208,125,157,105,1
741,439,146,147,1
156,47,49,68,1
519,249,257,163,1
152,25,156,384,1
20,118,23,46,1
635,290,522,473,1
163,207,20,23,1
587,380,346,110,1
177,170,0,79,1
135,30,72,5,1
803,436,157,41,1
119,13,51,3,1
636,480,39,25,1
96,37,188,315,1
247,235,13,45,1
658,425,273,194,1
154,169,74,131,1
499,379,255,267,1
178,232,66,47,1
55,73,60,93,1
689,360,128,9,1
31,101,76,60,1
655,484,74,114,1
285,199,118,31,1
150,11,9,16,1
743,642,125,16,1
213,5,24,77,1
470,439,0,88,1
146,121,12,20,1
305,93,82,81,1
824,654,66,13,1
76,133,43,76,1
496,247,121,33,1
244,96,62,139,1
79,59,71,45,1
779,449,352,50,1
7,78,5,2,1
597,366,182,361,1
170,172,43,36,1
196,32,43,4,1
759,565,94,73,1
134,130,114,100,1
561,388,13,85,1
143,7,212,6,1
132,58,44,132,1
865,573,57,125,1
40,22,281,12,1
697,449,0,9,1
222,45,171,106,1
276,377,144,348,1
892,886,18,56,1
162,44,73,186,1
677,467,112,55,1
222,7,33,25,1
284,205,221,65,1
543,195,0,370,1
11,204,74,11,1
524,321,6,253,1
103,105,156,66,1
60,77,51,64,1
652,173,189,310,1
175,23,161,473,1
587,331,118,84,1
191,6,271,360,1
135,8,163,10,1
661,350,183,28,1
175,250,58,153,1
498,129,250,48,1
199,265,111,59,1
186,121,23,169,1
663,407,160,2,1
11,25,90,129,1
611,458,49,86,1
223,305,99,3,1
167,59,123,51,1
745,508,0,98,1
2,47,185,222,1
683,515,20,155,1
133,158,73,89,1
243,182,12,67,1
589,213,260,194,1
14,98,90,97,1
506,214,107,199,1
90,43,246,7,1
27,136,164,301,1
625,408,217,175,1
54,32,172,157,1
648,393,172,120,1
122,72,182,130,1
268,385,141,86,1
697,641,99,192,1
170,37,106,68,1
572,387,0,91,1
106,30,201,34,1
193,53,260,321,1
645,314,263,69,1
10,30,187,277,1
464,333,66,68,1
341,92,191,32,1
275,219,44,5,1
577,339,169,145,1
52,218,81,80,1
542,402,145,34,1
201,31,106,50,1
143,21,269,215,1
587,365,101,102,1
18,111,54,145,1
676,433,196,127,1
93,112,55,41,1
287,188,0,86,1
608,375,0,63,1
5,12,104,68,1
466,173,294,285,1
194,39,98,99,1
10,76,265,119,1
622,336,0,168,1
27,40,310,182,1
625,277,161,41,1
138,8,146,199,1
292,204,73,11,1
703,544,54,163,1
186,152,134,13,1
463,296,0,49,1
162,13,344,93,1
176,91,0,64,1
760,449,540,277,1
129,196,54,48,1
622,197,360,29,1
142,173,204,429,1
239,31,9,197,1
692,424,14,136,1
27,42,28,89,1
664,456,97,81,1
190,80,25,76,1
235,131,9,29,1
692,407,211,106,1
21,15,184,76,1
579,293,549,417,1
135,17,34,25,1
167,10,492,484,1
656,393,15,75,1
63,130,184,60,1
643,428,48,16,1
185,20,64,68,1
182,186,41,90,1
680,373,39,11,1
57,70,222,51,1
514,161,63,1,1
109,25,7,29,1
174,80,15,74,1
665,338,129,0,1
19,42,31,49,1
587,345,72,61,1
43,12,259,204,1
170,148,151,5,1
598,318,502,239,1
25,87,11,91,1
648,290,376,205,1
207,59,85,8,1
336,371,44,19,1
672,458,136,74,1
53,125,0,62,1
571,293,89,43,1
112,24,188,185,1
226,221,88,76,1
735,357,145,162,1
26,6,39,17,1
536,214,306,179,1
184,129,55,18,1
209,92,112,129,1
689,383,378,103,1
139,148,33,77,1
449,268,98,79,1
190,112,154,143,1
193,135,121,109,1
692,385,874,301,1
48,6,45,39,1
543,266,251,139,1
79,76,98,33,1
175,68,0,103,1
584,297,3,156,1
36,13,223,58,1
552,344,15,70,1
165,34,89,40,1
196,152,30,59,1
638,345,49,12,1
70,58,54,72,1
594,453,147,3,1
119,51,32,108,1
218,162,41,16,1
572,218,344,235,1
62,58,252,98,1
494,133,286,256,1
53,15,0,19,1
92,69,319,163,1
527,227,252,42,1
109,90,407,283,1
431,179,212,159,1
146,71,135,32,1
181,155,75,34,1
524,226,90,118,1
81,52,112,11,1
364,147,0,114,1
132,130,0,6,1
80,66,200,295,1
624,181,321,197,1
93,49,0,31,1
539,320,117,205,1
0,47,70,13,1
162,74,139,161,1
505,202,95,168,1
68,121,13,53,1
486,218,51,10,1
194,114,103,14,1
119,14,70,257,1
590,372,1,13,1
47,13,139,8,1
460,243,41,107,1
97,6,18,61,1
242,177,22,21,1
594,313,339,229,1
47,35,140,2,1
507,270,72,31,1
227,29,221,120,1
109,31,137,195,1
485,225,135,81,1
119,86,104,90,1
344,117,21,108,1
116,10,40,92,1
116,68,138,284,1
525,146,178,96,1
24,36,90,51,1
437,195,63,34,1
92,109,6,773,1
127,7,402,227,1
473,194,180,471,1
2,19,290,363,1
459,250,88,167,1
139,184,0,221,1
155,8,107,293,1
455,158,351,256,1
55,158,57,214,1
514,155,279,101,1
152,75,152,174,1
192,38,174,396,1
611,247,243,268,1
6,8,248,197,1
460,211,136,85,1
75,134,37,20,1
169,141,155,64,1
624,386,205,293,1
131,190,0,160,1
438,99,221,9,1
210,205,0,337,1
66,41,114,75,1
562,409,137,77,1
41,77,83,77,1
469,269,217,175,1
29,6,179,228,1
191,136,184,35,1
480,247,57,70,1
157,194,19,167,1
442,122,4,252,1
154,151,100,440,1
172,52,268,301,1
627,355,135,192,1
43,143,127,300,1
444,195,67,155,1
188,211,0,39,1
37,13,0,42,1
548,158,93,4,1
13,6,73,232,1
579,361,126,178,1
134,127,129,304,1
186,82,70,43,1
509,196,211,212,1
39,55,106,69,1
512,167,85,30,1
263,303,177,8,1
134,12,51,103,1
500,230,85,71,1
111,250,50,34,1
468,127,98,167,1
111,22,116,492,1
34,101,115,149,1
479,153,202,428,1
81,91,277,200,1
474,67,292,444,1
136,108,121,139,1
151,108,351,108,1
560,170,17,94,1
20,78,225,360,1
479,41,154,49,1
108,9,40,323,1
66,32,65,233,1
612,353,94,138,1
22,39,63,86,1
490,167,128,138,1
58,42,0,197,1
281,213,29,82,1
526,85,195,21,1
27,120,16,253,1
499,204,265,173,1
142,70,40,174,1
253,251,493,60,1
744,423,5,403,1
38,97,186,147,1
515,348,212,176,1
178,224,76,61,1
75,33,229,458,1
620,198,57,536,1
67,11,297,362,1
485,242,265,530,1
91,73,55,58,1
257,306,348,112,1
688,286,45,179,1
88,101,13,182,1
542,293,52,411,1
100,32,0,216,1
162,145,44,12,1
598,158,278,228,1
27,174,214,110,1
503,284,51,361,1
158,155,138,146,1
143,16,26,564,1
494,238,52,25,1
2,28,134,27,1
463,99,124,87,1
172,80,125,13,1
495,212,296,378,1
723,341,23,516,1
110,100,49,144,1
440,373,145,69,1
121,83,49,201,1
343,83,191,13,1
659,417,65,104,1
75,233,90,191,1
530,399,4,423,1
60,16,11,182,1
204,327,61,23,1
798,577,74,28,1
60,68,11,80,1
565,399,89,546,1
63,13,45,344,1
265,358,115,384,1
779,600,147,291,1
105,5,0,209,1
745,367,342,448,1
158,206,363,260,1
286,103,301,792,1
521,362,51,136,1
22,19,295,360,1
641,502,83,405,1
192,205,146,77,1
233,156,54,79,1
720,440,101,138,1
16,241,206,7,1
701,343,34,354,1
340,79,7,330,1
220,151,162,75,1
732,648,232,321,1
95,61,124,85,1
801,643,36,438,1
35,27,156,72,1
258,314,76,336,1
662,556,2,383,1
1,38,109,643,1
567,361,131,644,1
90,6,302,441,1
199,167,0,139,1
882,604,614,382,1
106,101,349,372,1
866,650,202,260,1
2,178,273,310,1
340,8,280,645,1
767,672,476,342,1
5,39,268,257,1
817,616,466,53,1
259,236,343,76,1
466,179,37,104,1
942,359,399,327,1
111,31,127,514,1
680,309,301,1023,1
350,149,107,78,1
185,51,29,73,1
923,508,24,73,1
201,93,6,159,1
709,237,225,82,1
112,305,60,29,1
404,428,62,11,1
634,532,43,134,1
83,62,164,34,1
708,575,259,365,1
215,99,77,233,1
182,54,103,36,1
624,698,69,212,1
64,26,25,232,1
512,214,208,302,1
60,94,102,203,1
337,140,160,5,1
759,666,259,109,1
29,64,289,248,1
611,521,379,317,1
26,63,16,557,1
300,171,45,220,1
645,407,10,119,1
28,51,104,126,1
692,573,326,98,1
114,38,170,318,1
213,82,520,403,1
834,581,132,282,1
138,146,464,566,1
819,203,130,160,1
273,9,326,252,1
102,63,0,197,1
371,195,135,380,1
79,7,145,99,1
684,560,124,447,1
6,41,51,302,1
266,388,91,144,1
681,513,197,363,1
63,19,444,470,1
701,307,216,333,1
261,175,27,59,1
322,78,9,26,1
717,562,87,56,1
37,96,149,96,1
719,313,385,351,1
265,45,81,16,1
247,64,318,359,1
618,26,199,236,1
155,94,468,400,1
716,410,195,7,1
341,197,71,136,1
163,120,40,35,1
764,588,48,209,1
123,54,285,379,1
720,470,67,94,1
8,307,590,215,1
272,43,300,312,1
556,482,553,629,1
25,29,134,71,1
604,395,790,427,1
19,17,60,194,1
239,136,291,430,1
540,591,55,331,1
82,100,161,157,1
521,462,146,277,1
77,57,303,8,1
211,212,182,0,1
562,302,276,72,1
172,12,352,84,1
471,296,555,281,1
85,18,97,124,1
333,273,230,114,1
581,361,299,120,1
140,134,58,46,1
694,505,251,422,1
124,114,31,166,1
114,290,36,481,1
690,570,0,216,1
223,307,467,573,1
418,193,248,36,1
289,318,445,651,1
147,109,44,285,1
603,394,395,615,1
76,112,99,178,1
579,403,241,216,1
0,79,116,210,1
153,209,80,37,1
454,286,166,188,1
25,22,143,243,1
552,358,33,17,1
144,51,2,98,1
420,71,19,29,1
482,217,358,217,1
56,48,116,183,1
430,327,206,54,1
162,82,13,24,1
183,75,29,34,1
526,300,464,427,1
0,44,191,120,1
440,262,476,88,1
59,10,237,167,1
209,199,336,81,1
669,420,20,64,1
5,67,90,106,1
548,338,278,385,1
89,12,139,146,1
187,34,204,99,1
504,271,159,204,1
176,209,277,254,1
505,247,550,293,1
89,119,2,164,1
265,111,67,64,1
557,349,42,78,1
28,32,86,67,1
584,321,228,212,1
150,119,0,41,1
277,213,120,46,1
657,455,298,169,1
32,25,63,163,1
653,353,350,71,1
30,55,62,26,1
297,215,102,163,1
599,489,195,210,1
68,195,129,280,1
565,302,214,129,1
155,134,3,106,1
154,123,111,14,1
506,234,289,238,1
4,46,38,11,1
653,325,170,86,1
190,114,154,128,1
217,152,38,36,1
635,394,311,12,1
30,17,111,77,1
565,406,154,116,1
235,154,0,158,1
202,132,16,108,1
600,338,123,81,1
65,67,0,13,1
505,288,341,150,1
99,95,63,49,1
158,95,283,159,1
642,375,213,43,1
33,12,275,377,1
595,358,300,232,1
124,34,1,29,1
143,41,33,40,1
496,208,18,56,1
29,83,6,5,1
635,449,180,52,1
135,50,55,91,1
179,122,209,2,1
499,215,226,41,1
107,79,227,142,1
607,321,366,243,1
102,34,182,220,1
242,97,64,26,1
597,326,302,207,1
118,44,49,100,1
672,367,184,105,1
119,9,99,52,1
261,199,250,14,1
663,373,265,46,1
122,60,80,67,1
645,382,219,185,1
187,26,7,105,1
134,79,56,9,1
538,321,126,79,1
92,124,21,149,1
691,370,290,102,1
166,59,91,222,1
319,80,211,153,1
677,384,146,94,1
150,142,10,5,1
672,400,90,100,1
230,108,95,127,1
183,43,217,48,1
572,229,258,121,1
20,48,146,28,1
532,210,271,142,1
81,75,17,60,1
249,31,17,53,1
787,455,285,50,1
115,70,59,17,1
588,301,254,110,1
271,173,55,35,1
158,155,46,84,1
739,549,9,28,1
114,102,139,96,1
675,364,251,59,1
300,188,207,204,1
200,53,115,195,1
689,475,440,260,1
120,100,112,97,1
669,452,75,113,1
81,20,62,23,1
277,196,97,12,1
722,436,377,187,1
73,170,51,87,1
726,445,344,128,1
348,133,50,43,1
235,9,51,7,1
746,440,27,7,1
53,52,168,119,1
501,427,84,39,1
213,90,176,131,1
200,203,149,184,1
651,422,357,245,1
0,63,52,8,1
684,415,118,49,1
212,245,67,118,1
258,26,218,244,1
583,322,252,242,1
115,23,49,123,1
625,415,208,212,1
368,163,5,5,1
329,220,210,232,1
694,352,148,60,1
31,11,3,97,1
658,477,202,234,1
105,106,0,14,1
226,245,65,161,1
416,246,282,215,1
13,59,149,12,1
579,259,304,361,1
212,119,27,111,1
251,100,209,58,1
618,408,111,47,1
53,15,122,207,1
724,559,204,81,1
319,52,68,123,1
250,182,62,35,1
606,370,137,140,1
5,123,142,54,1
729,583,210,55,1
224,137,156,48,1
341,324,54,3,1
786,464,273,60,1
58,131,16,93,1
607,283,323,216,1
219,52,6,36,1
242,230,14,8,1
598,501,192,145,1
47,36,17,2,1
618,323,115,90,1
219,90,122,92,1
325,202,140,74,1
720,536,247,146,1
3,107,0,96,1
620,387,320,105,1
101,136,55,37,1
251,124,331,157,1
690,477,87,285,1
177,340,159,98,1
839,576,14,266,1
118,28,0,362,1
342,247,32,33,1
674,504,190,103,1
114,158,60,2,1
667,423,274,157,1
157,114,101,12,1
344,360,66,120,1
594,373,72,29,1
34,91,184,144,1
633,336,214,379,1
84,17,104,137,1
348,244,273,198,1
757,448,341,237,1
54,92,340,491,1
590,503,136,260,1
102,131,87,157,1
277,143,29,51,1
660,488,97,40,1
33,17,193,197,1
705,325,395,135,1
208,66,126,104,1
337,319,193,27,1
676,438,262,54,1
55,109,270,209,1
620,390,25,164,1
179,121,218,187,1
167,15,0,39,1
752,577,48,64,1
89,17,101,13,1
549,292,479,259,1
13,16,133,189,1
321,133,63,173,1
566,323,152,62,1
67,73,212,23,1
637,381,145,160,1
75,51,79,98,1
296,184,0,137,1
650,427,0,13,1
121,153,167,76,1
648,502,91,115,1
84,50,0,168,1
278,197,109,27,1
538,289,234,139,1
55,118,150,281,1
555,237,270,268,1
106,23,15,118,1
234,33,251,125,1
608,398,24,9,1
15,122,53,10,1
593,351,73,135,1
181,107,5,43,1
194,238,320,434,1
618,406,308,247,1
24,71,340,436,1
634,405,348,300,1
78,14,97,100,1
188,80,375,571,1
512,251,3,285,1
5,28,130,49,1
613,342,42,55,1
203,62,108,54,1
228,108,147,48,1
556,189,219,265,1
42,99,81,158,1
667,279,337,163,1
272,283,91,9,1
208,29,220,248,1
643,489,164,187,1
47,40,96,107,1
669,354,2,237,1
196,97,73,219,1
320,266,79,442,1
580,355,290,65,1
20,86,151,319,1
613,433,234,248,1
236,307,34,16,1
284,119,380,190,1
637,429,150,180,1
98,85,86,161,1
635,322,107,141,1
255,162,202,82,1
172,41,6,49,1
631,258,97,63,1
23,134,0,58,1
627,329,248,231,1
17,115,70,49,1
360,321,242,69,1
594,349,57,23,1
53,110,0,223,1
648,526,68,121,1
77,215,235,146,1
255,167,73,77,1
585,247,377,327,1
74,90,251,72,1
552,291,444,246,1
105,74,80,7,1
281,205,126,40,1
573,367,1,5,1
24,6,0,1,1
673,396,125,119,1
180,137,71,102,1
261,49,0,127,1
539,285,176,57,1
72,56,20,7,1
525,216,110,10,1
101,45,197,26,1
188,35,154,175,1
624,290,134,9,1
2,31,197,50,1
622,365,226,80,1
114,34,111,124,1
258,180,156,140,1
589,373,207,64,1
56,40,261,143,1
628,399,14,23,1
162,11,251,255,1
212,177,171,188,1
503,286,557,164,1
3,21,89,4,1
611,340,268,361,1
201,52,110,128,1
313,194,36,41,1
497,326,47,168,1
0,26,33,127,1
548,347,29,149,1
75,58,96,24,1
178,30,0,45,1
556,274,332,210,1
96,77,125,177,1
610,228,375,402,1
154,115,115,358,1
216,65,350,497,1
545,290,12,71,1
6,29,135,142,1
641,391,246,3,1
152,35,222,265,1
249,194,146,72,1
481,250,499,217,1
5,47,67,22,1
531,267,267,300,1
84,15,163,106,1
260,56,30,156,1
512,252,247,225,1
3,107,26,181,1
591,336,49,155,1
49,21,50,95,1
247,44,590,157,1
486,299,81,153,1
24,10,91,180,1
599,386,203,6,1
188,86,27,30,1
272,226,24,4,1
508,270,245,177,1
6,7,222,47,1
561,232,245,252,1
92,24,19,109,1
203,45,200,73,1
472,182,20,29,1
0,5,88,132,1
485,155,136,88,1
82,59,381,120,1
236,133,193,18,1
487,183,203,162,1
26,46,169,152,1
545,262,50,3,1
103,93,220,40,1
236,133,25,7,1
485,203,6,18,1
17,51,29,60,1
455,200,52,7,1
97,79,224,142,1
242,96,103,79,1
476,190,290,93,1
25,18,11,35,1
525,307,302,50,1
119,93,174,155,1
153,6,68,49,1
442,76,105,77,1
21,123,249,332,1
445,241,309,144,1
230,165,273,276,1
220,77,317,281,1
507,280,29,26,1
80,8,127,83,1
456,256,15,26,1
60,36,28,86,1
209,34,220,151,1
493,149,204,56,1
58,194,36,182,1
544,174,420,356,1
85,84,49,161,1
220,22,285,4,1
395,163,118,198,1
3,44,2,125,1
555,215,222,155,1
79,23,0,3,1
175,47,54,12,1
554,328,28,146,1
41,22,89,238,1
517,243,154,14,1
103,32,67,72,1
285,150,71,138,1
429,155,169,92,1
64,28,237,75,1
454,253,95,14,1
120,5,54,18,1
125,30,91,16,1
384,9,188,81,1
1,24,14,2,1
491,159,225,97,1
142,126,98,2,1
207,89,78,37,1
458,133,139,199,1
0,47,49,27,1
467,178,218,70,1
13,33,184,337,1
272,213,284,166,1
511,337,0,54,1
25,94,67,3,1
407,29,143,87,1
50,145,143,135,1
315,173,0,293,1
399,210,264,136,1
14,27,31,20,1
557,389,130,144,1
26,14,12,21,1
195,127,86,100,1
421,166,69,284,1
129,207,107,167,1
499,223,409,72,1
15,9,0,352,1
228,167,123,1,1
453,319,47,209,1
117,214,215,245,1
321,68,125,153,1
157,95,102,75,1
146,106,157,402,1
463,60,312,32,1
153,264,36,66,1
524,357,413,294,1
30,148,45,65,1
312,160,247,131,1
344,57,90,94,1
47,29,55,94,1
600,221,281,6,1
125,20,104,248,1
208,93,267,262,1
431,131,82,106,1
119,96,127,61,1
603,169,197,179,1
267,149,124,262,1
188,52,149,448,1
426,170,124,29,1
70,83,322,303,1
639,97,21,464,1
159,136,271,314,1
154,26,10,201,1
435,153,369,109,1
54,84,0,34,1
686,522,310,378,1
1,26,62,109,1
155,277,105,431,1
408,187,103,122,1
16,424,272,85,1
506,213,111,430,1
63,97,138,57,1
269,191,3,30,1
502,355,205,80,1
116,76,15,601,1
688,464,154,165,1
159,76,158,131,1
391,249,112,327,1
581,510,140,398,1
4,59,0,26,1
495,402,331,98,1
139,214,53,293,1
162,18,19,70,1
540,302,155,194,1
19,248,126,217,1
594,348,54,314,1
24,187,425,463,1
266,335,27,45,1
761,594,376,731,1
105,11,3,224,1
545,443,173,241,1
185,309,26,336,1
273,307,53,450,1
648,462,0,298,1
43,262,68,15,1
469,246,23,200,1
191,201,7,5,1
102,78,274,126,1
561,332,62,217,1
2,18,301,235,1
558,101,27,454,1
155,17,95,62,1
286,205,75,38,1
643,298,454,534,1
35,36,287,503,1
700,351,245,15,1
130,132,240,274,1
455,80,46,449,1
578,108,215,800,1
88,301,0,227,1
816,594,100,389,1
10,158,43,97,1
527,447,49,89,1
755,499,0,17,1
133,164,220,12,1
592,473,90,112,1
97,199,168,70,1
291,139,35,198,1
643,417,52,196,1
222,174,85,3,1
622,485,69,1,1
72,42,92,273,1
257,366,0,120,1
750,538,192,415,1
113,66,35,389,1
886,562,88,31,1
199,25,168,149,1
324,162,63,583,1
591,362,597,540,1
18,91,28,5,1
820,548,339,39,1
83,222,118,23,1
286,156,416,133,1
445,284,31,308,1
112,21,94,181,1
702,586,195,140,1
76,70,0,196,1
494,418,226,87,1
651,458,312,185,1
5,26,108,255,1
762,577,529,475,1
154,42,194,738,1
484,362,196,770,1
740,557,222,75,1
180,216,347,17,1
927,725,216,388,1
55,132,126,108,1
220,76,157,372,1
568,248,408,229,1
1,29,263,220,1
821,326,177,390,1
209,97,126,420,1
417,161,315,450,1
659,478,45,25,1
25,162,146,289,1
473,300,250,107,1
163,87,187,315,1
55,76,3,30,1
676,414,488,327,1
63,256,139,223,1
812,366,517,611,1
60,59,201,209,1
249,62,93,411,1
598,278,161,463,1
53,191,145,4,1
732,514,36,199,1
347,223,0,10,1
251,412,46,141,1
787,410,39,115,1
210,310,59,14,1
847,461,187,153,1
166,10,121,255,1
585,230,116,260,1
793,498,196,293,1
77,13,0,202,1
514,470,155,40,1
125,253,357,300,1
338,330,105,154,1
666,493,247,2,1
0,33,20,276,1
816,526,210,305,1
181,240,61,245,1
346,374,197,88,1
839,363,182,316,1
139,51,326,161,1
337,491,254,38,1
231,103,283,440,1
54,61,522,291,1
703,416,234,174,1
34,88,326,282,1
724,503,247,177,1
216,97,486,709,1
291,230,155,199,1
703,473,215,158,1
207,141,204,139,1
731,652,296,271,1
85,92,124,196,1
342,340,48,16,1
678,11,107,113,1
122,141,45,153,1
788,474,310,522,1
267,97,89,415,1
254,121,32,4,1
526,348,23,41,1
65,105,127,112,1
721,530,170,292,1
191,63,31,46,1
229,233,16,214,1
634,418,387,58,1
7,118,181,283,1
670,335,501,22,1
67,106,217,209,1
530,353,438,422,1
688,411,480,251,1
170,42,9,20,1
736,487,262,441,1
51,152,148,120,1
202,130,290,37,1
428,319,337,207,1
65,11,0,146,1
486,328,324,149,1
21,9,0,47,1
376,156,156,19,1
534,328,49,34,1
87,105,217,254,1
723,388,239,85,1
116,21,26,63,1
321,196,95,79,1
482,298,44,40,1
24,29,172,149,1
640,541,0,24,1
101,94,186,251,1
265,178,0,190,1
560,304,214,65,1
58,32,32,41,1
674,485,224,185,1
249,136,205,165,1
256,233,137,132,1
670,519,21,182,1
115,90,27,62,1
636,324,231,8,1
253,212,14,66,1
180,85,69,13,1
572,361,193,141,1
57,86,118,36,1
696,438,303,383,1
156,205,0,2,1
273,142,91,59,1
554,328,208,131,1
74,112,0,116,1
513,371,311,190,1
146,226,103,11,1
266,128,105,141,1
627,416,229,53,1
34,43,5,124,1
528,358,47,33,1
128,56,133,170,1
264,104,0,21,1
411,202,260,141,1
79,114,90,111,1
672,520,244,86,1
125,58,0,21,1
302,275,247,147,1
615,288,236,211,1
96,24,134,125,1
586,389,220,104,1
216,74,115,96,1
331,393,117,127,1
601,359,354,147,1
18,19,137,179,1
742,433,368,48,1
166,101,0,137,1
374,268,231,30,1
654,505,226,73,1
16,6,124,99,1
766,610,335,140,1
264,252,78,113,1
218,218,87,36,1
605,425,180,152,1
23,65,196,77,1
782,406,230,156,1
605,388,88,29,1
155,113,167,157,1
623,386,49,10,1
6,76,42,1,1
639,305,77,225,1
174,33,70,21,1
299,191,24,38,1
551,364,136,132,1
11,61,49,6,1
708,475,352,148,1
168,186,0,19,1
326,292,158,41,1
563,538,243,166,1
31,66,40,8,1
724,543,96,56,1
204,224,57,140,1
264,123,175,181,1
510,261,273,288,1
153,82,57,102,1
591,396,316,231,1
173,9,38,18,1
311,253,196,50,1
536,369,203,19,1
77,15,98,109,1
728,513,385,41,1
187,115,82,291,1
547,522,219,36,1
727,547,102,144,1
2,83,37,69,1
675,333,79,3,1
159,19,65,4,1
175,43,0,153,1
599,311,222,27,1
13,25,18,47,1
659,298,230,227,1
163,207,28,167,1
501,336,191,24,1
558,342,123,33,1
96,79,27,56,1
543,286,201,17,1
16,100,3,162,1
272,217,129,146,1
503,380,346,318,1
7,7,111,73,1
801,483,261,59,1
271,75,8,15,1
387,268,221,122,1
607,390,157,226,1
12,42,9,99,1
701,467,96,53,1
48,14,60,51,1
252,200,101,47,1
572,361,105,116,1
21,18,73,155,1
819,515,175,8,1
293,189,27,98,1
447,194,120,121,1
813,339,166,137,1
23,59,19,196,1
857,604,155,41,1
252,86,51,70,1
336,320,77,84,1
616,390,234,108,1
19,8,0,88,1
622,493,401,232,1
85,66,130,115,1
416,222,32,73,1
568,281,198,397,1
23,41,144,474,1
775,587,103,113,1
268,123,129,16,1
274,142,0,236,1
662,349,291,295,1
80,140,8,133,1
867,756,392,291,1
218,380,6,80,1
198,197,135,129,1
670,365,200,297,1
37,21,82,69,1
697,485,145,129,1
71,158,217,247,1
356,265,111,32,1
511,162,256,174,1
21,93,117,44,1
612,153,319,109,1
26,27,24,78,1
325,126,150,211,1
486,320,172,17,1
108,120,10,31,1
656,483,48,112,1
125,96,2,18,1
301,353,125,211,1
596,379,185,38,1
12,68,62,19,1
765,313,459,157,1
162,23,0,11,1
309,19,148,149,1
574,537,169,83,1
3,19,66,127,1
539,275,309,186,1
126,204,251,259,1
267,23,214,179,1
636,378,347,325,1
24,105,222,74,1
624,408,356,385,1
131,78,0,106,1
324,162,241,118,1
494,288,252,231,1
15,16,95,68,1
626,365,223,134,1
162,178,97,197,1
311,178,416,98,1
740,557,143,129,1
73,88,141,171,1
725,626,341,48,1
102,41,81,2,1
376,247,20,149,1
689,494,181,254,1
61,12,155,169,1
658,347,130,186,1
151,8,176,162,1
282,157,288,242,1
514,313,42,171,1
21,5,56,95,1
666,390,339,93,1
133,15,98,26,1
388,296,178,150,1
506,285,238,2,1
48,31,133,93,1
764,453,222,167,1
39,20,103,110,1
342,110,379,23,1
591,269,145,119,1
174,59,60,158,1
571,305,390,109,1
161,8,204,1,1
482,426,7,14,1
501,279,21,10,1
41,32,52,84,1
696,380,29,196,1
165,87,33,83,1
253,111,34,154,1
620,360,193,140,1
46,184,105,155,1
740,416,396,161,1
209,204,56,61,1
341,199,0,112,1
546,309,383,228,1
83,41,56,282,1
596,140,281,196,1
124,27,274,480,1
328,159,232,192,1
492,210,286,486,1
66,28,77,6,1
608,366,219,47,1
262,204,266,15,1
290,150,179,112,1
627,457,11,53,1
29,40,0,33,1
769,440,175,78,1
295,181,39,106,1
335,102,235,168,1
569,338,78,25,1
3,75,72,89,1
751,325,204,337,1
132,32,230,4,1
296,135,214,233,1
451,364,85,63,1
28,7,201,82,1
635,325,244,66,1
178,11,149,37,1
312,197,0,125,1
621,403,1,150,1
71,53,61,69,1
702,248,87,10,1
35,61,31,223,1
395,265,89,144,1
429,64,150,2,1
21,55,79,72,1
650,318,83,38,1
130,26,16,46,1
238,11,195,196,1
472,28,36,108,1
2,53,44,29,1
584,306,258,22,1
4,45,193,29,1
349,243,189,166,1
518,243,179,196,1
16,36,85,138,1
601,272,356,408,1
84,86,44,51,1
300,133,4,30,1
617,362,8,41,1
10,44,37,27,1
632,382,365,338,1
99,46,201,181,1
265,61,26,105,1
512,254,129,59,1
12,35,166,18,1
622,240,250,256,1
146,77,120,275,1
245,90,242,132,1
576,281,10,213,1
47,85,63,80,1
573,304,178,216,1
69,185,55,117,1
337,318,9,61,1
568,379,177,173,1
125,148,79,146,1
737,435,4,90,1
129,30,213,1,1
274,141,164,13,1
521,251,44,86,1
2,32,5,21,1
601,261,142,64,1
78,43,75,253,1
310,207,138,62,1
499,273,308,96,1
45,16,11,70,1
587,222,111,76,1
161,79,114,29,1
314,174,113,3,1
504,285,164,33,1
103,187,104,47,1
619,326,51,48,1
68,9,92,152,1
275,120,44,12,1
392,168,190,142,1
36,126,0,153,1
568,186,36,161,1
176,36,179,109,1
248,88,113,109,1
504,190,121,138,1
1,25,14,2,1
618,314,195,9,1
182,50,15,12,1
297,161,0,20,1
513,235,416,159,1
19,15,158,10,1
596,238,126,120,1
145,107,26,124,1
248,80,104,77,1
506,287,21,63,1
52,8,0,11,1
609,367,212,163,1
105,87,26,29,1
285,70,139,112,1
424,147,200,236,1
4,7,38,17,1
536,203,132,94,1
36,10,99,106,1
238,119,15,4,1
472,133,0,86,1
52,106,212,83,1
530,168,96,113,1
101,7,150,1,1
356,158,191,98,1
454,200,157,119,1
29,11,21,31,1
612,311,191,135,1
247,291,80,129,1
234,42,102,151,1
415,178,179,5,1
1,27,92,130,1
601,232,444,75,1
43,49,48,97,1
368,103,60,83,1
425,135,313,260,1
21,13,41,21,1
568,221,300,70,1
22,15,143,32,1
255,53,217,59,1
417,246,193,86,1
2,54,62,22,1
566,331,223,141,1
44,15,78,214,1
269,193,8,24,1
412,235,153,18,1
84,103,77,118,1
570,251,144,52,1
102,9,28,26,1
141,34,36,30,1
471,144,11,40,1
13,9,1,125,1
605,252,89,166,1
4,58,200,47,1
299,6,19,23,1
446,108,244,168,1
62,78,138,34,1
582,202,217,8,1
5,168,64,121,1
230,6,78,146,1
475,39,328,226,1
9,62,23,23,1
533,163,356,383,1
164,164,28,37,1
288,30,226,187,1
380,139,131,15,1
1,154,117,115,1
364,63,215,114,1
17,97,0,26,1
168,69,25,21,1
487,183,97,20,1
55,33,0,10,1
644,277,60,29,1
30,6,166,164,1
378,248,2,97,1
425,198,47,10,1
4,10,253,16,1
519,303,126,195,1
60,5,112,111,1
175,13,214,397,1
348,118,26,4,1
56,8,22,154,1
486,190,355,610,1
120,145,98,3,1
232,54,183,371,1
537,87,52,93,1
10,101,66,110,1
622,137,85,106,1
131,63,0,88,1
217,58,96,148,1
363,84,0,60,1
19,24,74,123,1
417,44,167,22,1
15,134,290,491,1
254,135,176,227,1
180,86,111,1,1
47,10,340,224,1
366,7,278,25,1
19,117,134,134,1
142,29,150,163,1
374,73,524,317,1
1,74,134,760,1
712,212,524,60,1
53,175,331,429,1
476,180,318,238,1
344,244,311,91,1
139,36,150,413,1
168,53,218,330,1
100,30,1,375,1
175,12,167,129,1
480,327,264,498,1
53,38,46,114,1
383,190,331,402,1
40,149,3,28,1
235,5,184,80,1
400,48,377,268,1
84,26,226,107,1
569,173,260,143,1
124,131,25,37,1
306,180,182,137,1
305,128,132,218,1
7,65,201,234,1
603,174,311,65,1
60,13,277,384,1
173,17,378,102,1
602,190,9,42,1
92,194,131,104,1
519,245,27,97,1
109,18,10,422,1
354,41,94,6,1
532,333,63,91,1
50,201,22,45,1
823,425,162,283,1
214,255,158,369,1
317,145,0,203,1
411,157,1,127,1
45,37,34,91,1
650,239,16,90,1
82,49,82,156,1
378,200,77,73,1
833,530,133,320,1
88,19,133,24,1
763,360,187,231,1
140,164,162,23,1
369,345,107,11,1
527,371,16,119,1
19,30,333,301,1
508,327,64,136,1
63,127,528,713,1
428,167,37,238,1
617,150,343,861,1
254,145,125,49,1
890,566,327,363,1
184,150,219,109,1
553,456,170,75,1
700,564,58,179,1
122,31,133,27,1
716,257,26,168,1
59,222,122,26,1
245,180,46,20,1
408,28,295,423,1
259,295,17,108,1
651,458,344,341,1
234,155,253,295,1
157,107,378,441,1
622,514,0,190,1
227,107,69,37,1
886,385,91,256,1
158,155,120,202,1
313,9,359,73,1
608,577,200,29,1
167,146,546,242,1
615,529,168,133,1
103,118,264,76,1
223,356,26,316,1
362,358,12,143,1
73,25,117,170,1
673,479,0,130,1
88,116,140,198,1
344,225,321,843,1
785,590,19,325,1
20,130,500,237,1
624,430,57,47,1
61,67,77,41,1
594,246,193,224,1
701,422,170,138,1
83,138,279,99,1
779,591,67,111,1
123,40,46,254,1
369,361,12,54,1
615,563,25,197,1
156,135,478,178,1
796,651,259,134,1
38,27,127,60,1
541,542,89,65,1
529,396,0,216,1
385,31,71,335,1
947,663,59,215,1
232,186,10,366,1
241,207,274,61,1
888,169,309,258,1
87,18,162,32,1
925,402,135,677,1
260,102,188,251,1
252,216,318,222,1
559,463,209,202,1
125,26,142,39,1
827,882,338,133,1
117,101,135,57,1
420,327,99,1,1
617,580,278,80,1
79,30,0,136,1
775,466,284,288,1
186,144,47,360,1
307,336,175,312,1
859,556,111,194,1
7,174,122,210,1
949,839,326,198,1
308,73,327,224,1
305,29,130,119,1
570,558,467,376,1
136,108,186,320,1
805,433,232,8,1
122,23,16,76,1
290,232,108,28,1
520,472,13,52,1
77,86,104,44,1
903,759,17,65,1
155,120,366,141,1
630,11,223,222,1
605,210,161,325,1
24,45,22,159,1
675,332,6,141,1
421,19,79,73,1
118,185,354,171,1
712,428,55,116,1
26,88,27,6,1
884,486,112,106,1
185,98,65,157,1
430,389,75,48,1
749,448,207,227,1
214,18,378,320,1
692,557,176,344,1
47,38,3,7,1
258,101,8,420,1
487,294,72,394,1
34,20,54,6,1
587,261,0,4,1
216,95,246,406,1
285,99,245,181,1
605,269,0,145,1
29,159,195,10,1
744,444,96,47,1
281,111,88,37,1
393,106,118,59,1
884,332,585,390,1
122,91,0,174,1
881,488,610,349,1
99,108,197,87,1
124,210,294,42,1
467,361,49,19,1
7,68,15,255,1
662,406,151,37,1
100,18,34,41,1
313,187,119,162,1
642,318,0,131,1
247,48,59,408,1
543,459,398,62,1
195,141,103,11,1
524,292,339,285,1
563,312,134,29,1
14,45,318,116,1
648,339,361,311,1
133,89,87,45,1
530,347,378,62,1
524,326,182,30,1
5,202,61,177,1
637,417,81,62,1
130,13,91,87,1
496,238,148,62,1
737,473,31,116,1
62,49,33,36,1
836,465,151,50,1
249,101,451,99,1
375,192,408,31,1
638,320,8,175,1
201,15,30,3,1
455,420,503,11,1
209,124,229,29,1
451,330,233,1,1
680,359,91,14,1
46,35,94,7,1
852,655,26,3,1
89,89,5,156,1
370,113,132,18,1
606,425,143,100,1
66,70,23,341,1
749,416,453,366,1
216,220,149,206,1
331,135,188,33,1
435,334,353,79,1
84,28,140,183,1
724,398,283,59,1
183,100,60,144,1
277,150,128,71,1
516,299,343,169,1
33,21,130,77,1
665,532,718,408,1
97,135,26,109,1
204,166,235,187,1
504,359,289,149,1
50,50,6,84,1
611,390,260,72,1
90,196,113,53,1
284,83,245,10,1
511,265,194,177,1
41,9,195,116,1
769,573,427,194,1
242,177,0,39,1
273,233,21,2,1
464,289,263,176,1
29,15,34,9,1
670,383,378,297,1
271,308,25,78,1
346,179,294,205,1
535,268,224,148,1
22,29,0,26,1
654,334,326,145,1
68,13,119,84,1
407,177,0,36,1
517,188,333,386,1
18,105,23,20,1
707,572,250,168,1
244,217,1,87,1
249,63,93,19,1
451,124,95,33,1
57,163,0,17,1
636,370,308,174,1
18,142,37,203,1
206,124,189,59,1
424,273,138,20,1
75,7,135,53,1
469,288,175,71,1
45,29,15,46,1
385,227,108,185,1
448,196,121,60,1
31,75,7,47,1
661,428,220,53,1
54,104,64,176,1
266,107,60,11,1
487,287,230,37,1
55,75,11,140,1
776,320,251,78,1
189,9,0,32,1
469,333,176,72,1
438,307,197,161,1
9,27,27,83,1
702,465,205,167,1
120,17,73,42,1
360,281,145,93,1
467,187,286,246,1
6,19,71,100,1
591,319,164,139,1
43,30,0,264,1
348,198,38,118,1
485,234,173,142,1
22,39,75,3,1
693,453,456,184,1
34,41,41,60,1
348,223,270,203,1
561,391,196,98,1
21,28,0,112,1
708,404,333,97,1
124,174,136,120,1
506,303,191,52,1
560,330,225,79,1
3,17,208,75,1
781,459,215,127,1
137,7,0,47,1
402,279,75,53,1
569,328,159,69,1
72,135,67,76,1
796,531,224,141,1
162,108,14,91,1
420,208,68,62,1
669,339,17,69,1
69,171,22,51,1
596,128,308,219,1
121,50,107,39,1
411,300,55,270,1
587,242,54,56,1
73,10,0,2,1
724,378,94,118,1
124,95,20,11,1
327,191,69,110,1
585,320,51,87,1
72,16,115,49,1
720,411,307,42,1
128,36,20,2,1
419,205,287,123,1
492,300,90,149,1
63,105,99,105,1
634,445,220,61,1
113,43,19,6,1
243,169,157,49,1
491,208,143,128,1
8,47,173,104,1
775,455,266,39,1
161,22,29,19,1
290,122,70,6,1
519,222,58,126,1
17,71,15,10,1
736,464,163,305,1
178,168,41,126,1
455,216,164,153,1
517,331,134,13,1
36,35,0,65,1
703,494,166,113,1
37,162,45,17,1
485,344,77,73,1
535,303,114,70,1
32,84,0,28,1
603,314,298,43,1
58,27,5,177,1
421,249,201,144,1
578,221,262,269,1
45,50,120,9,1
746,397,449,52,1
199,162,67,36,1
231,65,193,279,1
585,340,264,296,1
12,132,27,40,1
777,519,333,295,1
79,17,0,150,1
419,172,269,85,1
517,176,239,126,1
98,67,82,126,1
711,498,268,65,1
92,119,0,87,1
328,229,64,15,1
600,519,60,86,1
3,8,26,284,1
691,408,290,106,1
178,85,140,323,1
403,236,143,87,1
539,210,297,105,1
48,50,0,117,1
744,460,524,189,1
1,109,63,11,1
396,116,230,148,1
415,145,71,71,1
38,121,78,53,1
702,490,257,27,1
185,138,55,102,1
355,150,0,40,1
458,183,365,105,1
82,135,0,29,1
803,496,231,190,1
14,21,0,90,1
337,222,266,116,1
487,534,143,53,1
7,64,9,135,1
637,398,158,225,1
237,125,0,21,1
500,291,5,68,1
640,228,545,136,1
55,75,92,61,1
700,145,395,54,1
21,10,23,114,1
332,271,231,21,1
535,241,15,90,1
6,27,175,62,1
755,450,326,58,1
189,105,60,10,1
350,169,30,6,1
368,88,302,466,1
194,306,51,31,1
686,385,165,144,1
46,70,30,35,1
374,168,434,6,1
475,243,112,171,1
70,42,93,107,1
685,387,243,104,1
134,153,121,120,1
413,306,58,117,1
446,246,15,24,1
20,55,68,129,1
732,342,154,237,1
281,180,245,274,1
219,36,340,274,1
577,397,325,211,1
9,150,121,343,1
515,333,221,67,1
20,96,51,38,1
290,263,112,36,1
522,364,33,99,1
6,36,39,22,1
660,448,65,57,1
175,66,3,2,1
326,239,45,152,1
488,173,249,335,1
16,48,71,94,1
712,370,344,187,1
65,28,92,128,1
456,345,8,39,1
452,214,191,102,1
66,12,4,42,1
753,433,173,16,1
238,202,154,5,1
336,174,74,3,1
595,500,152,154,1
19,73,46,119,1
701,375,157,94,1
94,152,0,198,1
342,149,32,49,1
387,165,88,202,1
78,105,15,73,1
602,251,73,27,1
117,28,0,53,1
371,199,101,15,1
503,246,106,103,1
25,52,76,12,1
651,335,477,103,1
151,93,266,137,1
245,108,119,112,1
471,317,84,10,1
6,33,16,181,1
730,370,125,89,1
61,5,17,54,1
445,253,287,109,1
487,250,74,61,1
33,35,0,85,1
624,362,293,99,1
95,61,3,56,1
287,63,34,241,1
472,242,232,173,1
87,163,0,5,1
645,213,237,26,1
101,107,0,82,1
354,159,93,102,1
447,217,151,3,1
34,108,91,35,1
676,358,52,90,1
198,70,72,124,1
364,195,89,4,1
519,262,150,10,1
2,34,96,138,1
701,359,23,2,1
141,55,0,7,1
315,254,26,141,1
488,201,27,56,1
73,16,26,1,1
704,347,205,132,1
130,58,28,123,1
417,255,0,131,1
502,292,75,99,1
70,65,0,64,1
705,357,111,78,1
105,66,222,58,1
307,89,0,139,1
469,287,199,163,1
62,67,101,1,1
737,305,238,96,1
90,10,67,65,1
395,124,161,137,1
445,145,86,4,1
38,26,146,2,1
594,221,392,36,1
138,109,0,24,1
337,134,195,55,1
488,297,51,46,1
46,64,137,13,1
649,338,16,211,1
116,8,2,18,1
418,218,19,21,1
462,168,116,70,1
119,126,101,143,1
686,309,131,2,1
150,62,252,99,1
256,59,21,5,1
475,197,190,112,1
38,51,5,102,1
613,235,178,26,1
23,17,54,60,1
308,69,14,74,1
380,88,309,5,1
57,39,386,99,1
624,254,100,56,1
98,10,73,16,1
281,97,392,205,1
437,165,50,14,1
78,63,273,223,1
576,242,15,2,1
130,38,194,131,1
326,158,96,114,1
385,126,190,131,1
23,13,134,17,1
637,287,528,166,1
74,10,59,52,1
344,182,321,130,1
404,227,39,166,1
150,96,103,65,1
761,413,292,58,1
119,21,4,52,1
301,132,36,39,1
419,196,109,32,1
1,62,156,152,1
674,296,223,60,1
142,63,89,177,1
306,168,100,46,1
421,202,261,41,1
58,26,43,81,1
658,345,297,180,1
83,8,48,56,1
429,214,240,22,1
432,222,174,233,1
55,39,273,91,1
605,288,9,119,1
0,101,183,231,1
355,207,0,98,1
428,167,0,186,1
26,98,130,98,1
587,232,187,252,1
75,23,22,13,1
405,98,215,90,1
472,196,98,14,1
43,8,311,43,1
653,251,45,77,1
113,31,223,239,1
365,184,16,70,1
505,337,171,214,1
27,140,16,3,1
507,97,31,125,1
114,39,37,72,1
346,45,17,123,1
405,163,62,100,1
95,22,3,246,1
614,258,31,81,1
43,13,141,6,1
299,22,227,172,1
413,263,0,132,1
68,15,211,38,1
511,151,98,36,1
104,14,152,19,1
220,6,164,580,1
472,113,59,26,1
26,108,62,3,1
654,223,79,43,1
124,97,63,49,1
344,87,92,88,1
415,49,150,109,1
197,102,76,267,1
625,185,628,263,1
11,86,72,274,1
387,117,543,152,1
417,191,76,71,1
139,60,236,123,1
522,81,191,218,1
88,37,23,44,1
189,36,133,238,1
459,256,77,23,1
61,98,109,89,1
696,368,25,106,1
105,89,57,28,1
309,178,70,69,1
501,266,46,216,1
36,5,16,9,1
777,403,98,139,1
56,7,153,70,1
433,269,117,257,1
384,220,149,45,1
11,60,39,346,1
566,321,93,42,1
289,165,255,106,1
349,206,160,14,1
445,255,18,10,1
74,55,142,54,1
673,112,386,513,1
95,45,68,14,1
250,28,117,259,1
453,165,41,161,1
5,51,42,158,1
446,281,256,128,1
3,120,119,196,1
321,210,117,337,1
379,169,282,174,1
3,91,32,6,1
696,255,252,66,1
51,57,0,45,1
451,196,187,189,1
393,208,154,330,1
11,65,161,49,1
594,207,31,292,1
22,19,42,140,1
447,178,154,290,1
365,130,79,135,1
41,74,53,83,1
696,300,26,205,1
99,35,292,64,1
430,53,336,89,1
574,164,259,186,1
36,36,124,256,1
624,263,205,62,1
15,124,24,297,1
270,164,52,98,1
206,87,196,371,1
36,286,0,101,1
667,222,187,10,1
126,130,35,59,1
203,192,285,16,1
657,528,82,305,1
154,113,60,405,1
981,727,124,50,1
220,126,39,406,1
499,132,54,176,1
349,100,204,74,1
2,60,63,190,1
709,513,153,102,1
145,24,54,153,1
312,171,0,309,1
452,353,7,97,1
190,108,317,117,1
781,524,90,83,1
279,252,142,423,1
419,186,27,405,1
264,308,93,235,1
244,313,258,19,1
793,716,36,403,1
129,139,416,340,1
553,485,444,825,1
447,242,70,158,1
42,17,272,223,1
648,574,288,251,1
409,165,41,44,1
292,129,142,364,1
658,385,358,119,1
61,210,275,188,1
657,407,244,20,1
159,176,296,249,1
140,53,105,301,1
307,188,182,206,1
212,99,119,354,1
852,379,420,223,1
32,217,214,90,1
580,249,274,345,1
421,361,301,179,1
179,180,131,106,1
765,419,294,281,1
63,100,19,247,1
662,456,235,299,1
581,124,187,172,1
31,6,398,328,1
756,360,267,351,1
67,66,308,80,1
659,125,92,213,1
357,350,149,362,1
195,8,116,482,1
652,483,216,120,1
46,40,289,270,1
370,237,177,315,1
483,253,383,76,1
116,288,8,56,1
627,437,315,37,1
88,151,387,78,1
472,251,308,184,1
420,102,34,106,1
186,107,163,3,1
826,280,34,410,1
404,70,65,76,1
411,223,4,230,1
524,261,449,742,1
6,70,123,334,1
808,377,98,6,1
126,11,39,2,1
456,339,139,198,1
547,246,13,96,1
210,154,181,30,1
734,439,92,132,1
520,36,5,137,1
256,136,61,199,1
559,246,75,89,1
54,81,53,95,1
872,420,263,1,1
235,32,77,337,1
494,546,132,562,1
412,111,176,49,1
75,139,361,67,1
776,766,479,456,1
270,26,466,488,1
241,117,83,244,1
752,393,657,450,1
362,204,59,95,1
1023,505,421,305,1
185,130,33,109,1
535,390,522,252,1
486,163,9,181,1
35,33,400,576,1
745,354,108,26,1
146,317,225,456,1
424,354,487,240,1
537,299,190,138,1
52,39,396,203,1
553,346,188,309,1
98,12,148,136,1
194,89,74,244,1
528,657,4,130,1
83,247,172,62,1
648,441,641,331,1
37,160,30,352,1
434,167,7,252,1
403,220,347,3,1
62,78,2,34,1
755,530,564,242,1
174,34,246,136,1
308,331,432,286,1
372,346,154,146,1
2,35,288,264,1
584,427,387,131,1
147,131,0,273,1
249,431,0,30,1
501,471,0,183,1
172,275,346,338,1
569,278,0,296,1
38,191,678,390,1
365,25,96,70,1
613,245,863,367,1
11,69,86,158,1
899,481,843,419,1
160,167,46,56,1
525,156,445,194,1
498,331,122,19,1
73,90,19,198,1
811,349,238,289,1
126,102,185,404,1
627,178,124,159,1
684,620,272,250,1
9,32,299,296,1
667,466,171,20,1
57,39,268,212,1
429,344,462,359,1
510,288,115,126,1
25,49,390,346,1
658,344,405,320,1
102,126,161,28,1
383,210,280,174,1
262,349,280,239,1
184,41,77,6,1
575,346,478,549,1
91,93,306,423,1
169,54,233,102,1
314,470,203,401,1
38,173,322,20,1
607,472,414,180,1
129,80,129,65,1
364,235,0,11,1
304,285,241,365,1
31,12,57,133,1
614,344,181,168,1
23,24,14,207,1
462,290,128,73,1
345,160,29,270,1
95,165,165,212,1
718,432,184,140,1
216,31,78,53,1
456,148,261,176,1
409,237,29,235,1
54,9,265,268,1
634,442,442,28,1
143,164,7,113,1
389,194,382,213,1
408,262,253,109,1
41,98,18,59,1
590,360,312,61,1
122,91,172,105,1
426,192,178,68,1
396,169,337,228,1
120,94,110,16,1
696,515,303,213,1
30,48,160,228,1
453,206,61,84,1
279,238,265,160,1
2,71,8,40,1
605,311,208,171,1
208,140,102,90,1
332,134,254,76,1
438,239,97,46,1
15,19,43,66,1
628,342,230,60,1
127,86,0,2,1
403,263,130,120,1
623,388,77,36,1
39,55,0,85,1
637,343,152,36,1
101,13,1,58,1
469,290,63,26,1
383,246,0,124,1
84,8,19,2,1
628,259,132,46,1
31,112,10,72,1
406,64,1,8,1
356,54,154,115,1
32,35,31,5,1
588,486,225,392,1
154,305,156,91,1
346,190,167,8,1
439,216,295,280,1
34,34,139,132,1
707,420,381,365,1
141,152,43,5,1
419,182,318,322,1
394,136,22,85,1
94,64,284,328,1
675,294,223,99,1
129,105,10,24,1
421,90,218,216,1
321,131,130,128,1
84,45,30,43,1
710,445,207,93,1
74,53,5,3,1
413,129,161,180,1
418,254,254,193,1
159,26,35,42,1
628,255,295,110,1
47,9,27,60,1
531,252,190,9,1
511,333,175,9,1
56,48,0,14,1
783,482,286,143,1
142,79,17,183,1
352,320,263,213,1
457,347,278,219,1
31,193,79,85,1
643,447,278,125,1
127,119,0,82,1
429,264,161,30,1
297,244,162,143,1
30,21,59,52,1
656,353,118,23,1
206,100,0,85,1
387,250,34,113,1
455,81,179,261,1
60,131,26,31,1
597,464,309,112,1
225,145,0,156,1
305,247,165,240,1
470,259,133,11,1
57,8,6,385,1
757,409,281,293,1
115,157,103,88,1
233,39,194,19,1
260,190,104,35,1
133,78,9,20,1
759,346,116,206,1
86,26,0,47,1
270,103,133,40,1
195,133,164,347,1
129,219,0,61,1
692,618,403,287,1
142,129,127,154,1
234,140,204,238,1
329,125,147,245,1
11,6,96,93,1
596,311,273,125,1
111,7,80,49,1
514,199,38,8,1
550,302,5,158,1
33,209,15,34,1
840,571,272,142,1
111,175,0,87,1
508,151,130,173,1
496,467,164,221,1
254,117,7,66,1
806,584,190,110,1
156,252,63,39,1
377,285,245,7,1
487,282,267,12,1
34,99,187,68,1
816,496,429,239,1
238,246,125,4,1
395,370,173,116,1
475,175,46,75,1
270,272,48,80,1
904,649,227,130,1
158,139,0,37,1
511,382,274,158,1
650,528,193,21,1
158,64,83,109,1
914,657,148,224,1
102,79,63,67,1
401,176,90,29,1
436,252,225,77,1
54,33,24,140,1
743,382,209,137,1
94,102,16,15,1
426,205,207,172,1
348,207,50,178,1
90,29,15,91,1
755,431,265,30,1
160,123,115,23,1
460,301,130,13,1
509,481,131,40,1
5,53,159,255,1
955,613,402,169,1
185,39,9,63,1
441,360,188,119,1
419,105,145,41,1
6,22,0,138,1
504,303,334,126,1
46,145,80,78,1
406,193,282,158,1
526,334,157,66,1
296,389,81,4,1
896,613,291,154,1
71,7,118,65,1
376,247,108,130,1
252,145,217,174,1
74,61,5,24,1
782,548,429,278,1
92,19,107,152,1
517,355,41,158,1
504,476,63,99,1
87,13,0,30,1
801,515,220,303,1
240,134,77,197,1
434,168,166,185,1
427,119,267,106,1
46,44,184,183,1
660,291,228,206,1
91,101,108,156,1
340,197,30,133,1
458,263,259,146,1
27,21,47,139,1
676,469,406,43,1
157,163,4,53,1
335,142,143,39,1
599,505,118,94,1
19,91,49,7,1
941,741,235,203,1
134,165,18,37,1
445,172,324,225,1
477,186,3,7,1
78,246,0,15,1
767,508,159,62,1
263,237,0,86,1
622,565,139,85,1
426,163,318,158,1
79,134,77,31,1
713,397,352,248,1
46,5,156,23,1
472,166,400,67,1
438,242,141,5,1
120,41,86,88,1
734,603,357,7,1
94,44,53,108,1
458,327,143,19,1
373,308,243,79,1
31,42,122,83,1
733,315,19,70,1
79,232,117,555,1
451,335,63,311,1
431,403,115,131,1
50,78,146,5,1
694,319,278,432,1
174,132,78,59,1
447,229,180,266,1
470,291,176,73,1
6,120,331,123,1
827,376,256,99,1
119,72,54,18,1
307,202,393,145,1
497,193,137,91,1
62,33,51,189,1
672,303,108,4,1
43,43,0,90,1
475,272,119,32,1
415,232,251,136,1
64,20,247,144,1
723,418,320,40,1
153,188,27,110,1
381,291,138,32,1
472,373,5,7,1
69,12,147,444,1
706,455,22,283,1
165,90,240,279,1
445,281,46,36,1
413,222,302,334,1
63,67,73,3,1
709,526,164,137,1
4,110,37,7,1
417,250,59,178,1
419,294,0,4,1
58,54,43,142,1
623,174,77,195,1
112,25,25,1,1
464,243,151,242,1
390,136,33,79,1
50,35,69,52,1
741,472,96,54,1
164,41,285,270,1
441,275,167,231,1
535,323,511,338,1
74,12,33,241,1
719,383,438,335,1
154,61,98,49,1
471,345,39,23,1
425,243,235,165,1
2,10,134,127,1
697,355,0,221,1
167,144,68,105,1
272,69,44,31,1
454,285,66,81,1
23,20,102,136,1
720,479,82,195,1
111,30,0,111,1
444,250,34,36,1
452,388,40,177,1
7,42,25,28,1
725,476,259,152,1
122,83,171,90,1
386,261,245,79,1
390,214,81,52,1
1,39,123,173,1
625,291,79,337,1
40,8,118,1,1
372,139,0,105,1
455,238,78,55,1
25,12,0,80,1
637,331,101,25,1
113,126,179,175,1
294,65,144,60,1
422,299,34,123,1
153,69,257,6,1
750,498,288,10,1
115,98,72,1,1
416,165,79,29,1
339,193,185,23,1
15,23,156,142,1
554,238,656,318,1
68,22,232,82,1
405,216,319,214,1
316,167,52,112,1
109,108,143,386,1
695,409,117,35,1
106,81,103,46,1
451,318,9,42,1
382,235,24,123,1
135,86,0,3,1
604,356,54,96,1
22,39,193,76,1
322,70,5,10,1
430,199,173,187,1
31,47,94,20,1
620,295,414,245,1
187,176,6,53,1
359,25,0,3,1
393,211,307,106,1
38,34,103,5,1
656,355,49,41,1
52,7,0,15,1
335,142,426,143,1
357,177,112,57,1
2,22,252,56,1
602,303,343,29,1
133,180,0,202,1
355,144,57,165,1
356,190,57,1,1
35,15,177,121,1
592,244,22,80,1
18,23,224,37,1
393,143,95,23,1
338,153,92,111,1
71,29,0,9,1
505,135,194,22,1
7,12,38,29,1
323,83,0,125,1
346,144,105,66,1
2,83,40,191,1
640,322,173,232,1
16,10,103,85,1
283,207,189,27,1
339,157,76,96,1
33,14,197,306,1
546,218,261,36,1
106,61,179,24,1
251,61,304,267,1
354,176,65,205,1
24,39,119,5,1
536,148,49,77,1
124,50,134,114,1
289,56,7,97,1
347,273,144,124,1
14,93,19,89,1
514,201,47,124,1
122,46,48,61,1
400,188,71,3,1
242,50,546,234,1
170,89,377,155,1
540,125,54,111,1
21,68,59,45,1
313,79,35,35,1
297,51,85,58,1
41,44,27,1,1
516,265,331,446,1
70,7,90,21,1
285,63,301,143,1
308,78,225,172,1
12,27,277,229,1
551,241,0,67,1
100,26,104,172,1
291,160,281,14,1
331,236,404,176,1
6,149,523,80,1
560,241,944,418,1
127,108,327,205,1
319,120,785,320,1
280,168,398,193,1
10,51,321,190,1
491,220,27,32,1
150,51,33,62,1
242,64,85,259,1
303,39,20,50,1
62,106,1,200,1
456,184,1,86,1
129,69,54,27,1
262,52,26,54,1
316,44,250,285,1
71,51,132,22,1
637,317,71,94,1
84,59,8,115,1
287,87,63,163,1
293,91,115,15,1
106,96,3,157,1
528,178,267,160,1
62,47,185,146,1
312,141,168,115,1
269,60,0,159,1
95,73,113,117,1
492,177,189,204,1
31,36,160,83,1
180,18,53,192,1
364,235,70,6,1
156,184,97,89,1
552,152,2,107,1
155,136,340,308,1
173,145,12,243,1
277,160,0,41,1
3,99,16,23,1
528,207,211,9,1
30,49,80,177,1
378,144,342,327,1
369,335,58,121,1
29,45,194,52,1
387,212,81,151,1
180,50,44,362,1
256,146,210,322,1
325,234,425,217,1
5,125,143,1,1
343,111,291,46,1
39,112,164,135,1
333,342,160,123,1
418,220,0,223,1
85,48,41,465,1
469,64,72,169,1
24,138,117,80,1
221,13,57,216,1
239,75,392,186,1
56,144,218,256,1
538,127,359,508,1
109,19,431,194,1
461,237,170,136,1
342,359,330,461,1
29,42,0,362,1
572,330,205,87,1
93,71,52,408,1
247,166,282,194,1
166,18,44,317,1
57,195,188,235,1
592,423,160,87,1
9,71,361,67,1
295,188,122,46,1
399,289,55,198,1
48,25,22,44,1
613,297,321,153,1
172,180,0,52,1
454,304,291,110,1
353,214,276,339,1
69,90,84,136,1
694,515,430,449,1
24,147,200,184,1
386,59,29,20,1
359,57,60,102,1
14,186,58,63,1
529,282,229,276,1
18,323,204,142,1
328,178,106,405,1
412,184,85,197,1
5,47,58,231,1
936,440,0,85,1
214,137,181,213,1
517,246,104,83,1
344,556,191,1,1
19,303,131,104,1
588,360,187,51,1
194,274,113,149,1
414,40,89,146,1
277,254,173,126,1
112,33,197,47,1
660,379,191,202,1
25,223,16,50,1
365,291,95,311,1
426,397,59,58,1
38,139,0,10,1
642,220,17,181,1
66,256,269,98,1
457,189,44,27,1
374,264,83,185,1
38,102,103,70,1
912,449,253,9,1
7,36,105,197,1
584,544,65,599,1
425,494,89,112,1
76,114,147,219,1
698,513,313,569,1
63,21,53,224,1
598,308,441,197,1
292,119,31,5,1
69,105,95,317,1
603,108,23,330,1
37,87,430,256,1
368,87,109,141,1
678,386,384,148,1
74,64,182,312,1
552,348,162,342,1
93,26,195,320,1
401,263,170,33,1
582,287,165,123,1
109,121,33,343,1
1023,503,122,39,1
179,136,170,204,1
323,197,53,328,1
341,51,82,377,1
46,100,225,117,1
854,429,349,116,1
93,8,47,69,1
392,256,46,103,1
503,470,252,56,1
85,139,61,10,1
694,626,228,292,1
226,422,161,404,1
494,147,88,42,1
548,315,15,297,1
150,109,370,1,1
780,433,3,346,1
177,25,0,259,1
448,867,287,70,1
371,375,31,34,1
293,19,25,223,1
800,480,0,178,1
167,241,180,96,1
301,213,268,143,1
635,479,98,454,1
136,174,82,175,1
838,485,0,414,1
24,187,107,103,1
453,270,164,235,1
428,127,142,452,1
154,16,213,27,1
646,507,220,49,1
150,215,333,153,1
503,323,331,290,1
338,264,53,9,1
279,396,377,325,1
449,452,363,465,1
256,69,277,58,1
374,591,686,215,1
365,42,147,156,1
10,65,27,24,1
922,307,89,128,1
167,161,261,326,1
379,230,107,108,1
410,348,174,305,1
175,40,63,63,1
873,728,422,386,1
254,243,147,110,1
461,94,428,92,1
643,467,175,243,1
108,40,41,268,1
1023,330,165,264,1
214,129,195,356,1
497,333,1,65,1
388,234,9,14,1
26,7,51,129,1
649,537,185,84,1
282,239,17,68,1
416,363,261,237,1
468,423,267,47,1
112,74,0,21,1
802,255,259,50,1
67,90,428,43,1
450,245,74,350,1
212,82,7,115,1
81,25,100,359,1
637,325,396,3,1
106,138,206,188,1
484,154,133,30,1
622,305,179,292,1
297,28,12,172,1
874,771,216,113,1
269,298,204,70,1
289,109,286,135,1
375,293,44,190,1
217,203,147,175,1
644,440,285,341,1
108,8,190,256,1
465,283,449,267,1
175,214,54,115,1
183,181,202,42,1
587,219,299,109,1
345,270,332,124,1
160,197,94,149,1
314,398,491,167,1
30,54,276,290,1
602,308,193,245,1
401,133,329,203,1
412,257,113,182,1
524,289,258,344,1
58,26,146,128,1
729,448,408,339,1
110,6,164,218,1
504,304,450,401,1
363,208,50,50,1
57,59,195,359,1
611,293,149,204,1
125,127,267,82,1
435,225,117,80,1
405,172,244,160,1
87,65,209,370,1
649,354,254,47,1
286,190,72,17,1
263,21,96,75,1
485,381,146,4,1
51,16,31,20,1
765,403,367,195,1
66,118,227,10,1
396,87,567,265,1
174,251,209,96,1
226,116,113,80,1
524,269,279,69,1
6,143,138,188,1
457,307,191,153,1
487,348,96,46,1
41,137,132,128,1
649,313,124,39,1
2,60,51,8,1
439,338,44,255,1
444,314,15,163,1
96,70,101,31,1
652,394,113,8,1
39,17,28,51,1
381,169,67,4,1
387,176,179,75,1
59,36,77,6,1
685,368,283,81,1
108,26,94,8,1
417,264,281,118,1
427,228,104,211,1
10,30,50,54,1
677,441,313,172,1
99,49,29,17,1
237,94,209,131,1
323,201,142,92,1
68,110,5,29,1
575,244,354,278,1
10,154,36,35,1
439,322,70,64,1
337,184,15,58,1
33,30,126,134,1
718,489,175,13,1
155,140,44,108,1
349,53,174,192,1
482,335,233,173,1
83,91,73,37,1
714,420,213,66,1
125,10,53,166,1
454,330,138,78,1
273,233,217,131,1
105,70,106,26,1
699,371,288,139,1
157,61,109,72,1
250,139,202,26,1
436,231,112,2,1
62,102,50,48,1
626,343,225,215,1
117,57,156,228,1
460,223,216,56,1
340,291,221,151,1
155,104,40,124,1
753,459,275,78,1
73,49,0,70,1
420,249,100,17,1
433,148,94,76,1
115,6,29,170,1
691,329,223,3,1
98,97,35,5,1
396,146,298,87,1
397,152,199,259,1
38,20,21,142,1
699,331,288,173,1
99,93,14,127,1
383,130,146,7,1
440,329,259,147,1
14,52,71,99,1
735,456,432,167,1
145,74,17,68,1
342,245,343,155,1
335,262,78,51,1
108,211,74,55,1
749,421,76,55,1
13,143,0,29,1
443,456,7,35,1
424,226,158,32,1
66,31,37,10,1
688,249,262,230,1
1,8,139,103,1
441,244,236,153,1
458,341,318,143,1
17,32,0,54,1
718,557,543,268,1
140,82,119,87,1
467,215,202,105,1
480,148,205,117,1
137,254,213,19,1
632,380,292,275,1
1,101,120,144,1
456,257,139,49,1
330,214,193,256,1
14,19,11,75,1
735,521,423,197,1
6,21,48,17,1
246,190,216,139,1
395,228,65,50,1
57,59,35,157,1
762,518,268,40,1
83,34,65,59,1
429,251,199,54,1
302,90,133,210,1
61,68,0,45,1
801,363,261,7,1
215,107,48,51,1
355,254,243,198,1
516,296,91,35,1
71,151,107,8,1
880,673,152,2,1
259,179,0,69,1
303,39,88,211,1
359,304,175,438,1
6,28,85,62,1
850,585,287,205,1
334,457,79,3,1
404,238,187,182,1
398,266,28,15,1
3,43,81,3,1
796,441,76,13,1
255,63,4,132,1
534,424,33,304,1
478,377,118,34,1
63,39,33,27,1
733,476,354,215,1
129,55,86,124,1
330,189,175,59,1
419,146,208,153,1
11,24,76,85,1
734,426,439,129,1
0,131,51,54,1
469,268,327,16,1
481,352,208,18,1
9,69,137,31,1
774,425,325,438,1
126,7,17,60,1
379,119,283,148,1
295,83,1,192,1
53,75,87,79,1
688,274,217,90,1
26,33,63,311,1
409,105,84,134,1
421,309,264,242,1
34,133,139,76,1
701,393,363,234,1
51,59,106,198,1
566,342,119,12,1
393,239,67,280,1
74,95,58,113,1
665,500,193,297,1
186,102,46,61,1
392,217,282,71,1
340,40,111,138,1
201,175,12,25,1
768,518,293,5,1
80,140,141,124,1
440,249,272,261,1
423,379,207,3,1
77,110,64,75,1
707,378,261,115,1
28,29,0,3,1
467,189,39,46,1
398,149,222,70,1
72,96,43,30,1
876,685,170,30,1
191,243,224,143,1
441,97,368,357,1
416,221,82,43,1
174,60,56,77,1
607,284,305,22,1
86,45,53,58,1
480,282,111,1,1
363,247,52,19,1
19,35,200,214,1
665,274,129,142,1
150,92,0,217,1
339,121,152,63,1
303,120,38,49,1
102,95,139,367,1
728,414,182,91,1
3,166,109,197,1
522,330,96,76,1
326,169,197,108,1
14,22,247,20,1
647,311,115,74,1
57,29,50,23,1
353,228,99,108,1
400,205,2,66,1
145,58,11,72,1
845,601,301,202,1
102,33,16,65,1
428,150,146,120,1
321,30,328,203,1
95,41,0,17,1
766,466,289,98,1
143,144,32,78,1
553,432,387,82,1
355,154,0,159,1
155,270,45,55,1
664,396,99,114,1
159,189,38,237,1
340,91,128,401,1
310,157,257,175,1
124,162,165,243,1
778,392,381,230,1
107,120,42,20,1
441,248,352,202,1
376,224,21,138,1
14,60,41,4,1
647,222,100,112,1
171,42,268,284,1
521,330,101,163,1
385,366,39,235,1
69,44,14,86,1
672,343,0,53,1
25,192,265,119,1
491,357,1,87,1
375,204,340,245,1
54,27,15,76,1
734,324,368,252,1
49,55,204,460,1
427,336,200,413,1
306,131,67,339,1
53,50,12,100,1
685,418,70,63,1
116,156,7,28,1
457,162,113,18,1
414,119,68,146,1
32,11,38,7,1
744,298,245,109,1
126,28,50,83,1
342,101,71,133,1
306,230,147,468,1
11,200,262,184,1
716,409,284,389,1
76,170,64,193,1
379,184,237,94,1
317,180,59,136,1
66,81,0,8,1
615,354,157,10,1
162,23,8,163,1
369,142,46,351,1
417,188,231,164,1
102,9,0,167,1
636,278,217,176,1
47,19,98,57,1
384,187,194,64,1
361,196,19,9,1
101,52,23,265,1
723,451,121,150,1
126,42,42,282,1
518,318,133,148,1
378,263,80,204,1
108,115,138,74,1
726,401,134,182,1
70,63,21,106,1
365,154,186,50,1
420,255,10,23,1
37,70,73,24,1
662,312,232,14,1
0,61,0,45,1
480,294,67,108,1
293,33,222,241,1
116,109,75,236,1
745,509,257,53,1
150,121,36,5,1
404,149,202,68,1
422,322,4,125,1
10,49,0,31,1
628,196,153,206,1
103,27,24,7,1
460,219,43,67,1
372,231,18,30,1
118,71,197,44,1
648,352,237,128,1
35,39,67,20,1
356,149,432,316,1
325,95,180,142,1
32,19,366,332,1
665,310,172,22,1
120,110,100,70,1
427,252,0,128,1
307,116,21,60,1
29,14,2,83,1
661,356,242,220,1
106,45,290,39,1
398,237,7,149,1
406,235,114,152,1
105,26,119,310,1
683,344,73,90,1
63,14,0,317,1
431,180,254,268,1
305,153,178,94,1
65,9,153,83,1
664,356,534,86,1
62,7,37,16,1
419,242,198,51,1
403,214,137,130,1
94,88,11,52,1
688,423,129,116,1
88,43,33,50,1
399,190,3,90,1
321,193,35,43,1
78,6,173,19,1
627,230,105,25,1
65,11,159,130,1
331,109,252,11,1
316,116,114,346,1
57,84,58,314,1
644,278,210,96,1
43,38,22,154,1
466,221,26,172,1
351,209,131,41,1
55,29,6,36,1
752,360,160,25,1
71,6,65,60,1
424,224,48,29,1
314,139,61,119,1
104,82,33,22,1
620,258,152,108,1
66,59,106,138,1
375,110,117,28,1
312,167,2,20,1
61,34,0,69,1
660,284,23,21,1
42,10,18,24,1
319,92,189,7,1
401,205,6,89,1
85,48,412,14,1
619,268,415,109,1
133,29,83,44,1
346,116,0,58,1
307,74,203,134,1
130,71,74,109,1
546,217,188,151,1
87,24,259,348,1
385,166,128,10,1
301,146,155,130,1
76,39,0,71,1
548,220,109,109,1
98,27,40,160,1
314,165,202,98,1
267,110,240,26,1
46,35,88,13,1
621,266,127,76,1
68,12,192,46,1
317,87,166,94,1
301,260,32,4,1
37,129,35,61,1
581,301,46,53,1
31,36,19,14,1
355,86,19,248,1
273,114,108,113,1
47,36,3,104,1
620,247,62,84,1
127,106,7,101,1
330,89,112,103,1
378,165,67,55,1
87,119,23,81,1
601,226,139,322,1
71,88,156,465,1
339,61,32,47,1
251,183,90,255,1
41,78,122,32,1
568,124,81,194,1
81,6,140,15,1
305,25,87,85,1
349,180,0,73,1
34,74,55,228,1
650,369,243,197,1
54,90,53,132,1
364,220,30,8,1
280,151,0,83,1
57,15,261,146,1
583,281,12,101,1
81,21,191,203,1
377,89,97,80,1
357,108,218,21,1
95,7,29,78,1
640,133,154,78,1
91,7,87,172,1
433,229,85,139,1
290,202,101,5,1
181,63,107,37,1
631,187,0,86,1
22,10,168,4,1
329,161,66,189,1
249,104,142,403,1
33,10,161,64,1
566,236,84,182,1
100,159,0,107,1
350,45,55,106,1
403,186,18,332,1
81,6,0,238,1
596,171,40,134,1
112,21,33,319,1
351,126,26,104,1
189,36,0,13,1
170,42,95,62,1
594,273,12,333,1
105,154,67,41,1
310,168,88,27,1
284,247,68,239,1
124,238,134,6,1
600,221,2,181,1
142,126,0,155,1
389,171,9,245,1
395,241,3,24,1
3,122,212,225,1
578,377,77,681,1
132,269,101,246,1
363,64,107,447,1
279,28,126,19,1
56,22,58,176,1
577,113,69,86,1
43,14,47,134,1
241,87,65,170,1
240,68,0,14,1
22,72,205,256,1
544,105,123,104,1
69,199,190,18,1
500,289,70,243,1
362,111,150,4,1
85,34,61,161,1
644,296,0,228,1
18,65,176,39,1
314,193,22,499,1
326,214,77,347,1
33,117,155,203,1
663,233,490,619,1
90,82,145,366,1
590,294,413,707,1
90,273,142,365,1
295,18,262,208,1
641,203,236,102,1
117,70,4,126,1
340,204,16,64,1
358,284,396,466,1
83,251,145,8,1
540,352,172,238,1
140,253,127,198,1
416,148,179,1,1
337,264,53,256,1
100,119,3,113,1
774,402,62,119,1
6,5,242,94,1
457,174,257,267,1
311,158,161,230,1
25,36,59,269,1
641,232,282,93,1
123,94,176,10,1
277,211,169,77,1
154,26,19,35,1
173,275,12,10,1
739,347,110,112,1
73,74,173,313,1
521,172,203,78,1
406,170,35,317,1
4,87,71,308,1
563,354,317,175,1
76,95,143,376,1
375,276,238,411,1
337,87,568,648,1
210,472,159,21,1
1023,859,390,572,1
68,67,49,203,1
702,278,45,32,1
325,84,277,438,1
235,429,142,26,1
874,671,499,514,1
43,222,98,45,1
661,528,247,608,1
28,55,296,32,1
106,305,146,265,1
579,215,309,174,1
207,114,68,177,1
531,227,224,336,1
463,105,200,239,1
382,13,2,25,1
1023,648,139,61,1
150,118,217,107,1
429,210,0,287,1
366,27,0,278,1
50,26,149,25,1
725,265,259,332,1
76,301,0,220,1
348,466,0,103,1
388,212,101,8,1
24,109,222,211,1
669,326,258,104,1
178,39,210,546,1
626,584,199,174,1
720,669,81,18,1
108,110,110,165,1
917,667,218,179,1
8,113,201,452,1
563,360,0,319,1
530,443,144,261,1
85,57,93,204,1
878,497,243,29,1
397,249,0,494,1
391,11,57,349,1
523,369,126,266,1
190,9,574,809,1
813,711,767,366,1
277,155,191,486,1
617,502,74,488,1
493,337,24,195,1
30,359,77,328,1
921,711,0,50,1
25,79,55,186,1
629,360,377,482,1
368,216,174,6,1
40,11,354,189,1
783,467,270,223,1
207,143,271,111,1
688,304,138,211,1
325,336,317,18,1
185,102,23,286,1
816,465,769,607,1
481,210,49,436,1
541,381,771,781,1
530,325,104,111,1
155,34,197,131,1
548,584,230,33,1
297,98,55,99,1
440,229,96,221,1
543,266,83,8,1
17,199,56,39,1
733,673,221,73,1
89,102,122,11,1
637,228,0,88,1
539,142,267,171,1
80,9,145,316,1
939,564,288,397,1
82,89,87,320,1
432,225,141,358,1
53,215,141,302,1
112,487,304,443,1
477,398,163,272,1
121,77,36,235,1
428,542,30,341,1
617,670,41,43,1
103,69,125,321,1
883,433,184,254,1
206,372,106,105,1
697,308,15,60,1
482,138,172,133,1
241,240,98,129,1
645,450,1,151,1
30,201,195,230,1
384,569,253,26,1
290,314,366,128,1
96,94,38,46,1
630,299,177,170,1
180,63,21,32,1
372,275,108,162,1
542,463,145,178,1
132,28,151,347,1
714,325,292,296,1
7,271,1,109,1
681,377,135,236,1
468,348,84,166,1
98,50,169,28,1
886,531,215,185,1
155,134,73,78,1
213,197,55,146,1
362,304,144,175,1
15,77,283,175,1
819,581,206,82,1
51,198,70,174,1
911,253,53,118,1
596,379,0,135,1
122,53,243,51,1
667,393,272,224,1
87,10,247,291,1
366,250,267,156,1
379,222,252,364,1
98,19,89,251,1
768,451,260,138,1
155,244,168,286,1
703,266,369,97,1
520,56,157,231,1
258,236,208,251,1
745,604,326,3,1
178,16,59,33,1
441,269,433,294,1
367,228,90,61,1
6,63,424,25,1
754,453,230,117,1
150,20,55,53,1
551,347,426,154,1
73,138,225,135,1
255,82,7,39,1
627,527,203,110,1
77,85,0,41,1
313,329,407,29,1
197,94,11,8,1
68,49,64,135,1
627,351,0,30,1
424,199,62,65,1
41,26,376,256,1
175,57,324,78,1
239,24,683,555,1
500,300,244,182,1
135,84,255,122,1
493,264,256,84,1
307,181,1,60,1
128,99,149,129,1
601,389,360,261,1
106,22,70,128,1
449,264,1,148,1
301,104,309,370,1
22,68,36,39,1
545,245,14,74,1
10,22,90,69,1
326,165,211,220,1
284,54,349,416,1
90,194,189,107,1
615,178,356,233,1
127,149,129,118,1
483,320,72,79,1
413,317,43,29,1
66,176,103,11,1
586,337,423,165,1
46,6,32,222,1
320,62,318,292,1
274,140,223,80,1
36,11,171,22,1
661,413,370,228,1
57,6,258,370,1
352,286,299,14,1
157,75,14,67,1
95,73,9,8,1
684,390,345,51,1
92,83,78,16,1
424,374,249,193,1
363,232,182,30,1
42,117,0,100,1
594,286,536,286,1
48,151,196,140,1
454,215,230,67,1
163,68,271,222,1
40,101,0,21,1
602,401,533,317,1
181,157,72,145,1
475,260,154,43,1
431,336,136,15,1
50,16,3,148,1
533,227,448,333,1
27,9,144,148,1
541,422,208,276,1
285,219,67,8,1
11,11,75,45,1
555,203,274,93,1
90,42,72,9,1
340,322,245,149,1
269,215,37,19,1
94,100,109,62,1
786,480,192,84,1
240,169,13,112,1
451,333,4,176,1
222,33,49,29,1
104,46,156,240,1
729,350,308,60,1
98,9,89,131,1
480,344,219,143,1
321,245,77,69,1
200,118,111,26,1
657,326,344,18,1
66,27,43,166,1
420,138,458,199,1
155,46,91,28,1
17,24,191,195,1
556,318,445,286,1
195,115,39,109,1
410,177,445,224,1
350,207,37,226,1
144,96,264,186,1
707,362,217,97,1
61,132,45,117,1
534,340,53,18,1
261,225,114,158,1
95,84,32,5,1
666,305,244,141,1
7,11,13,162,1
426,299,253,227,1
235,201,212,82,1
147,150,0,18,1
654,357,335,137,1
4,130,99,72,1
513,285,219,75,1
252,105,191,88,1
114,30,13,2,1
654,258,191,188,1
53,39,8,44,1
378,213,191,7,1
279,59,29,19,1
44,98,61,214,1
641,370,350,109,1
185,119,10,105,1
445,188,307,119,1
293,155,53,82,1
115,82,186,28,1
676,462,297,248,1
11,186,0,27,1
472,198,124,12,1
288,235,83,90,1
228,119,0,85,1
720,229,326,158,1
36,211,17,24,1
665,245,300,152,1
300,27,100,53,1
107,174,135,5,1
686,369,222,92,1
38,57,23,173,1
444,218,211,111,1
408,217,195,131,1
34,46,206,34,1
609,218,529,320,1
140,77,40,57,1
474,240,350,68,1
61,46,261,110,1
114,53,72,28,1
589,41,82,120,1
257,106,200,91,1
357,158,142,139,1
436,17,252,229,1
51,105,105,2,1
766,436,364,245,1
3,31,190,37,1
535,346,229,33,1
149,110,109,232,1
175,139,23,86,1
748,565,336,16,1
55,59,21,21,1
482,277,211,65,1
228,242,101,105,1
139,27,87,18,1
758,493,163,109,1
72,113,36,3,1
396,117,59,54,1
159,107,172,177,1
44,23,257,311,1
494,347,315,151,1
83,161,1,17,1
393,232,293,40,1
300,384,43,52,1
30,174,155,53,1
601,239,342,144,1
6,126,20,75,1
470,316,155,105,1
296,131,60,26,1
53,36,1,1,1
837,519,392,216,1
271,141,58,91,1
542,367,323,175,1
312,305,184,115,1
163,251,184,6,1
771,611,285,7,1
72,23,35,109,1
538,282,313,106,1
214,34,61,100,1
104,46,167,23,1
872,624,381,166,1
106,73,71,15,1
589,413,164,38,1
316,144,4,60,1
18,103,179,30,1
687,351,280,97,1
193,199,31,31,1
470,177,260,74,1
212,146,91,30,1
113,75,55,62,1
857,662,434,379,1
11,15,1,66,1
467,140,221,282,1
213,131,50,111,1
146,220,105,81,1
816,515,194,48,1
128,17,7,46,1
480,364,247,147,1
270,48,274,183,1
33,38,23,143,1
638,409,676,242,1
54,85,65,1,1
419,293,111,161,1
210,149,6,77,1
17,81,49,273,1
749,444,461,285,1
33,42,1,212,1
481,196,166,155,1
429,178,234,55,1
144,188,11,18,1
797,370,266,68,1
112,60,179,12,1
541,278,214,56,1
344,169,70,123,1
221,167,3,91,1
805,443,256,1,1
25,15,14,65,1
603,378,126,69,1
201,58,227,332,1
94,187,19,230,1
708,354,535,232,1
132,63,12,51,1
502,290,386,134,1
322,320,46,114,1
137,110,71,65,1
618,418,212,14,1
164,158,22,123,1
221,114,113,93,1
193,59,231,150,1
131,186,55,38,1
757,386,293,83,1
60,13,57,112,1
431,199,210,113,1
238,224,1,60,1
14,7,153,5,1
770,522,220,164,1
96,119,0,185,1
592,355,190,162,1
249,44,252,153,1
15,6,219,169,1
718,356,306,193,1
109,44,15,17,1
528,354,313,214,1
240,84,106,29,1
280,290,18,15,1
655,398,104,2,1
42,69,21,24,1
380,212,165,112,1
200,74,327,210,1
59,71,353,288,1
661,370,174,117,1
141,12,0,66,1
383,292,220,2,1
245,118,152,29,1
76,12,12,22,1
745,393,295,55,1
100,99,117,73,1
576,234,228,89,1
200,138,124,15,1
69,91,324,13,1
551,227,279,237,1
44,43,23,69,1
502,304,319,190,1
339,265,0,4,1
73,54,0,131,1
716,431,314,195,1
124,71,13,15,1
486,241,153,101,1
247,248,118,9,1
49,20,125,4,1
779,444,331,117,1
150,177,22,65,1
400,287,299,146,1
245,132,174,14,1
115,81,189,78,1
673,424,73,5,1
136,28,56,26,1
570,341,62,101,1
174,59,107,107,1
149,229,0,173,1
661,254,279,270,1
49,50,33,110,1
450,197,355,127,1
238,201,25,22,1
85,29,214,101,1
590,285,201,92,1
87,116,134,51,1
445,289,106,137,1
190,146,10,13,1
14,30,146,318,1
661,347,13,98,1
19,32,71,166,1
493,274,64,8,1
219,23,1,12,1
160,180,172,187,1
689,420,294,66,1
120,69,184,76,1
459,395,281,136,1
256,265,271,153,1
50,8,70,13,1
670,330,397,194,1
129,143,5,41,1
423,163,372,232,1
185,93,20,207,1
158,87,194,48,1
650,298,186,138,1
60,88,233,9,1
430,210,98,27,1
230,42,57,75,1
116,11,33,61,1
601,300,85,58,1
45,22,239,191,1
502,153,59,33,1
187,165,96,130,1
93,15,82,139,1
677,380,264,105,1
51,93,82,87,1
466,342,61,143,1
215,140,59,87,1
96,63,70,42,1
567,250,141,86,1
118,59,44,119,1
437,173,317,83,1
250,147,10,20,1
45,21,57,3,1
567,257,158,75,1
34,11,16,24,1
440,188,95,178,1
174,23,93,89,1
153,111,79,3,1
570,287,238,321,1
66,46,33,85,1
400,163,214,56,1
203,145,77,52,1
4,95,36,151,1
564,254,124,15,1
165,75,88,216,1
494,203,164,95,1
197,60,132,394,1
105,26,112,64,1
565,252,133,191,1
32,26,104,45,1
396,190,110,104,1
181,87,13,33,1
103,62,27,12,1
554,238,381,226,1
86,20,38,125,1
402,194,289,165,1
158,45,61,178,1
96,31,158,68,1
568,251,54,78,1
45,34,142,94,1
399,140,161,168,1
161,74,64,73,1
114,7,43,134,1
571,249,234,96,1
75,65,14,36,1
398,209,141,129,1
161,85,3,169,1
134,129,60,106,1
497,238,70,169,1
1,162,48,75,1
502,294,111,6,1
138,22,81,67,1
89,15,0,22,1
556,246,165,5,1
62,103,107,190,1
390,164,113,163,1
199,68,61,78,1
77,25,39,32,1
539,201,181,4,1
93,40,0,29,1
363,54,307,183,1
164,145,16,71,1
13,163,115,100,1
474,148,42,47,1
6,12,43,128,1
248,28,27,11,1
137,55,17,58,1
104,158,100,109,1
512,218,0,33,1
44,90,70,181,1
411,279,192,106,1
126,59,79,76,1
105,20,83,72,1
438,28,356,62,1
151,140,68,336,1
381,146,238,139,1
95,193,34,118,1
135,123,6,48,1
461,295,2,67,1
22,12,93,330,1
298,19,132,160,1
203,48,0,82,1
100,13,0,12,1
387,179,136,53,1
115,118,25,503,1
206,270,196,26,1
80,20,114,45,1
51,69,239,361,1
628,322,14,89,1
100,234,366,27,1
364,158,38,33,1
263,167,193,181,1
148,98,84,15,1
399,54,105,365,1
17,89,4,28,1
207,49,102,51,1
47,47,83,228,1
4,79,211,104,1
404,43,355,360,1
70,96,93,383,1
368,195,204,214,1
200,276,0,254,1
67,262,109,5,1
396,32,115,269,1
27,81,14,32,1
186,26,40,107,1
95,117,179,192,1
6,34,69,70,1
332,48,397,183,1
190,373,49,234,1
450,195,321,670,1
193,315,0,14,1
125,189,201,477,1
813,237,220,452,1
6,63,113,71,1
202,51,347,152,1
212,41,84,18,1
53,36,306,40,1
489,171,360,36,1
200,534,88,2,1
161,81,244,364,1
90,76,177,186,1
166,338,19,46,1
422,239,124,45,1
224,25,93,138,1
436,73,69,292,1
7,113,254,231,1
108,227,6,179,1
777,380,70,115,1
11,56,125,73,1
347,125,216,66,1
311,38,274,74,1
94,133,212,507,1
590,337,635,457,1
9,115,205,408,1
578,567,377,302,1
37,285,11,391,1
8,54,138,196,1
364,102,176,40,1
5,15,13,27,1
273,68,300,50,1
306,224,243,237,1
262,81,283,231,1
632,337,540,352,1
1,374,51,208,1
463,120,237,7,1
387,457,86,124,1
26,132,296,530,1
584,491,4,219,1
89,300,188,281,1
339,158,9,334,1
201,188,137,158,1
25,129,291,136,1
452,336,174,108,1
241,27,116,37,1
373,219,300,218,1
272,50,74,142,1
225,104,319,105,1
613,361,148,194,1
44,122,264,120,1
423,266,420,197,1
234,133,161,257,1
78,63,386,618,1
577,739,0,16,1
146,171,397,399,1
429,319,175,44,1
10,198,231,182,1
198,47,91,141,1
418,246,0,18,1
175,82,17,61,1
269,83,68,246,1
102,233,145,499,1
133,175,93,33,1
655,454,79,333,1
157,87,132,57,1
505,351,206,361,1
193,55,14,151,1
11,293,31,120,1
588,50,339,371,1
107,177,137,7,1
539,87,522,438,1
49,105,84,121,1
273,284,276,92,1
622,567,92,268,1
146,112,526,696,1
634,372,113,138,1
387,76,118,369,1
352,468,138,114,1
728,438,40,37,1
30,6,277,44,1
339,65,192,622,1
130,83,483,483,1
82,58,17,591,1
682,515,366,358,1
188,171,43,17,1
704,330,320,265,1
45,96,307,155,1
165,103,12,48,1
456,167,427,263,1
100,114,253,236,1
697,373,160,747,1
468,239,398,414,1
213,85,91,379,1
706,379,427,289,1
107,102,22,229,1
759,557,445,40,1
38,25,256,239,1
219,84,83,104,1
657,461,157,293,1
1,27,34,808,1
603,362,247,407,1
217,326,57,49,1
157,15,178,595,1
422,496,168,174,1
451,137,129,299,1
590,394,91,232,1
189,136,334,136,1
9,75,56,83,1
825,349,0,200,1
60,147,218,53,1
544,476,145,21,1
109,180,125,4,1
82,357,291,115,1
608,249,464,375,1
24,116,540,301,1
794,512,175,275,1
341,9,33,110,1
86,9,83,108,1
689,527,43,106,1
177,108,110,90,1
700,189,276,202,1
92,58,135,242,1
408,238,101,235,1
853,631,87,64,1
58,147,96,28,1
627,467,74,95,1
77,219,169,250,1
278,207,105,361,1
646,419,123,177,1
89,22,44,36,1
347,196,67,12,1
232,31,83,313,1
66,5,50,375,1
697,279,241,46,1
183,35,251,30,1
510,270,389,120,1
108,71,379,304,1
486,314,0,31,1
628,391,461,147,1
78,60,179,240,1
713,257,301,134,1
244,28,199,353,1
352,50,308,323,1
919,309,131,536,1
54,24,171,196,1
498,372,254,156,1
133,156,0,87,1
131,40,66,364,1
865,373,80,349,1
136,78,37,170,1
647,397,228,58,1
247,131,346,247,1
175,214,157,144,1
492,583,312,362,1
98,12,151,124,1
533,325,0,250,1
85,39,60,244,1
18,72,169,429,1
672,426,205,186,1
221,10,185,199,1
616,231,62,163,1
289,65,32,364,1
110,84,145,127,1
597,420,330,66,1
175,171,0,4,1
594,439,290,99,1
445,236,108,201,1
28,34,0,152,1
402,289,497,56,1
109,16,77,13,1
478,200,477,122,1
247,304,6,255,1
217,97,325,337,1
565,382,276,255,1
86,28,103,35,1
539,334,193,59,1
118,88,124,198,1
5,7,233,118,1
644,349,498,136,1
108,104,247,307,1
587,286,500,402,1
149,98,88,96,1
141,7,277,106,1
520,296,237,111,1
112,6,25,56,1
377,304,324,35,1
209,175,75,1,1
32,17,5,23,1
515,400,139,4,1
139,112,18,12,1
512,290,149,55,1
184,107,164,65,1
243,151,60,48,1
529,260,378,183,1
76,157,204,17,1
528,327,382,270,1
109,62,352,291,1
205,70,8,38,1
703,435,342,138,1
65,72,0,6,1
534,398,154,81,1
177,79,0,128,1
109,187,60,36,1
635,386,244,11,1
48,150,77,150,1
624,422,376,114,1
188,49,25,120,1
108,83,177,231,1
715,365,378,282,1
218,148,265,117,1
683,485,222,73,1
219,132,108,121,1
126,111,143,7,1
717,430,322,104,1
196,76,19,183,1
676,252,332,50,1
105,39,167,104,1
343,332,95,48,1
691,457,527,182,1
10,79,7,70,1
729,502,315,181,1
276,145,15,57,1
66,5,0,62,1
535,309,407,489,1
114,136,0,17,1
603,378,516,342,1
238,181,186,240,1
15,64,160,301,1
624,356,421,148,1
100,110,0,99,1
520,285,253,150,1
353,236,34,80,1
127,77,35,78,1
859,474,253,35,1
178,245,131,206,1
605,311,364,164,1
245,368,142,135,1
350,142,171,28,1
725,521,481,331,1
36,227,0,194,1
551,257,198,58,1
157,76,4,67,1
210,215,55,86,1
712,453,208,111,1
28,12,112,107,1
526,268,315,127,1
50,121,86,71,1
217,107,118,2,1
689,435,295,204,1
55,97,0,75,1
741,388,307,185,1
102,150,41,9,1
284,125,188,89,1
530,259,293,68,1
11,50,32,260,1
407,169,312,126,1
285,14,9,41,1
38,27,7,32,1
639,192,251,208,1
92,27,84,49,1
579,346,176,18,1
225,176,11,32,1
300,179,75,130,1
727,435,220,6,1
81,71,51,11,1
556,460,228,7,1
200,188,215,193,1
45,19,80,115,1
720,467,481,214,1
126,16,10,23,1
592,317,250,122,1
124,15,75,71,1
179,162,62,6,1
629,267,397,251,1
162,9,83,128,1
513,211,338,72,1
149,115,18,8,1
169,19,239,182,1
742,400,327,35,1
62,14,117,50,1
682,438,192,9,1
277,108,0,118,1
47,19,69,41,1
661,465,465,244,1
143,162,52,52,1
529,279,461,184,1
109,162,42,2,1
105,38,205,144,1
685,528,223,1,1
88,74,5,83,1
507,399,138,84,1
225,67,78,13,1
108,84,107,7,1
760,497,446,269,1
0,35,38,77,1
630,351,397,57,1
179,82,109,115,1
105,135,114,92,1
659,419,301,128,1
120,80,20,26,1
527,298,384,157,1
124,40,116,3,1
149,71,291,165,1
652,281,242,71,1
130,251,122,70,1
399,75,197,145,1
230,117,188,3,1
152,57,76,41,1
785,525,296,253,1
146,180,46,1,1
734,486,292,220,1
188,80,0,123,1
204,190,233,86,1
654,267,218,19,1
50,30,90,41,1
764,447,287,20,1
221,190,126,72,1
296,177,193,6,1
733,501,143,5,1
12,123,130,129,1
632,457,147,254,1
288,141,85,223,1
43,172,9,292,1
631,278,309,8,1
14,124,0,10,1
439,80,342,1,1
271,237,78,198,1
362,33,54,51,1
753,393,241,3,1
47,143,95,22,1
633,286,233,66,1
121,42,137,55,1
231,243,11,40,1
630,478,259,27,1
28,126,10,49,1
530,390,159,1,1
74,17,55,52,1
164,79,233,123,1
575,158,291,54,1
110,7,0,113,1
547,307,394,87,1
277,171,171,36,1
214,203,98,274,1
676,348,109,276,1
3,183,19,106,1
600,329,22,104,1
202,180,294,14,1
146,50,73,62,1
704,476,364,210,1
74,140,75,199,1
494,305,371,78,1
140,105,52,53,1
281,278,50,135,1
676,513,196,32,1
144,90,130,152,1
491,322,79,37,1
95,24,51,3,1
278,312,50,2,1
730,429,131,135,1
21,59,66,80,1
548,267,305,16,1
211,88,0,58,1
155,208,89,71,1
574,279,348,302,1
36,266,88,178,1
648,479,243,364,1
160,60,228,155,1
102,100,235,48,1
626,243,164,7,1
29,23,29,16,1
536,323,345,39,1
154,50,57,3,1
135,106,38,54,1
499,270,300,160,1
69,124,0,42,1
590,450,166,456,1
138,91,92,101,1
73,26,139,317,1
501,314,121,287,1
52,45,18,68,1
496,438,352,125,1
168,181,12,29,1
52,138,90,73,1
606,274,281,103,1
165,108,126,162,1
367,167,78,5,1
138,159,5,19,1
194,100,98,40,1
567,224,156,205,1
23,148,89,16,1
507,274,260,240,1
176,142,0,10,1
114,17,95,4,1
549,183,123,51,1
25,9,30,3,1
508,327,0,1,1
151,188,1,7,1
77,62,32,112,1
606,372,51,4,1
43,35,58,256,1
547,367,231,152,1
250,147,0,189,1
190,151,180,21,1
642,461,92,3,1
94,201,0,31,1
479,208,3,80,1
124,131,109,155,1
107,16,110,183,1
640,315,206,12,1
0,80,35,3,1
428,129,175,52,1
193,117,93,29,1
148,134,34,76,1
479,265,77,134,1
87,103,5,35,1
545,336,29,1,1
270,114,189,165,1
187,82,0,26,1
544,184,264,44,1
18,48,71,126,1
527,258,167,223,1
172,223,72,214,1
192,135,49,4,1
621,276,168,55,1
28,13,2,153,1
495,238,103,37,1
216,148,54,114,1
25,118,139,139,1
347,41,307,66,1
3,42,107,208,1
475,255,202,154,1
171,109,7,78,1
83,7,10,89,1
574,359,287,209,1
25,12,0,81,1
579,303,150,86,1
144,54,0,98,1
65,31,52,131,1
601,236,65,162,1
39,34,72,135,1
486,210,0,196,1
127,20,98,256,1
204,195,11,62,1
569,341,436,337,1
59,8,0,124,1
537,265,403,297,1
167,140,111,56,1
191,76,185,124,1
572,260,163,20,1
52,39,76,55,1
510,267,261,171,1
166,5,45,93,1
145,133,32,10,1
532,297,212,288,1
41,20,0,275,1
504,225,135,2,1
151,103,5,54,1
118,16,65,74,1
573,270,201,283,1
37,5,112,342,1
490,220,222,51,1
138,62,23,52,1
153,127,127,108,1
546,313,149,111,1
33,105,2,115,1
489,196,248,79,1
86,64,83,16,1
77,30,136,56,1
522,189,211,259,1
51,7,54,79,1
437,185,270,195,1
187,123,16,56,1
190,78,100,36,1
505,174,205,25,1
29,16,199,74,1
481,199,304,191,1
116,51,0,34,1
153,97,166,20,1
567,317,210,117,1
2,42,0,42,1
421,165,224,55,1
45,24,4,196,1
186,75,32,11,1
540,260,199,144,1
51,91,9,56,1
445,160,76,69,1
183,86,203,73,1
177,113,68,5,1
485,145,363,244,1
46,7,70,48,1
436,155,311,143,1
142,54,9,98,1
189,23,177,195,1
556,256,101,27,1
14,14,88,89,1
444,192,109,65,1
165,113,77,13,1
145,52,140,69,1
478,158,104,244,1
1,46,0,65,1
390,91,101,85,1
109,7,7,16,1
6,71,30,22,1
494,173,238,203,1
38,25,0,10,1
460,124,64,58,1
199,100,0,196,1
212,101,73,67,1
406,86,107,154,1
150,156,86,119,1
554,289,162,213,1
20,14,54,41,1
59,8,0,19,1
608,302,159,162,1
7,177,125,196,1
474,174,187,42,1
113,49,0,138,1
169,182,31,17,1
464,190,73,85,1
75,44,21,219,1
308,13,141,142,1
75,17,25,111,1
68,29,0,133,1
530,211,318,72,1
73,210,91,122,1
529,382,401,8,1
128,139,24,251,1
91,30,162,465,1
432,115,354,498,1
1,83,149,184,1
421,119,197,78,1
140,62,1,6,1
139,36,136,263,1
419,214,219,323,1
36,63,184,171,1
309,9,280,4,1
23,44,180,198,1
96,11,261,162,1
498,250,377,344,1
60,54,157,221,1
343,18,318,169,1
81,79,0,171,1
95,38,65,222,1
630,318,200,45,1
41,43,4,229,1
470,65,327,110,1
126,18,0,5,1
153,17,0,55,1
433,132,0,199,1
149,150,2,109,1
314,70,11,45,1
130,411,150,29,1
80,223,29,49,1
451,150,232,499,1
2,16,73,227,1
443,201,44,225,1
175,108,7,1,1
12,9,107,2,1
506,179,52,4,1
9,109,170,261,1
341,159,238,126,1
125,43,39,158,1
148,7,22,190,1
642,356,180,280,1
134,107,90,119,1
494,105,96,224,1
39,7,117,118,1
100,31,235,334,1
316,62,227,222,1
16,10,339,113,1
453,172,281,71,1
178,192,30,146,1
95,26,31,25,1
638,496,429,793,1
310,306,193,300,1
367,7,194,322,1
64,75,0,47,1
184,22,67,98,1
601,294,126,8,1
132,357,141,262,1
338,37,250,499,1
138,37,295,480,1
99,31,147,494,1
418,68,154,252,1
21,68,301,169,1
427,447,0,77,1
305,505,164,242,1
48,106,189,178,1
587,217,79,222,1
6,43,29,309,1
563,91,75,156,1
236,9,170,174,1
53,85,56,84,1
600,265,35,13,1
67,28,34,112,1
601,280,101,138,1
91,116,203,489,1
401,186,229,84,1
543,273,316,226,1
17,131,152,43,1
618,196,119,218,1
331,254,132,558,1
20,274,44,25,1
716,242,95,383,1
231,73,306,507,1
464,291,164,324,1
226,45,486,469,1
45,117,298,250,1
520,350,100,212,1
220,410,0,6,1
422,58,51,166,1
323,248,52,156,1
118,51,0,3,1
653,226,198,198,1
202,20,29,104,1
367,33,33,251,1
142,271,161,151,1
118,20,54,700,1
589,506,103,80,1
206,165,118,404,1
522,189,74,48,1
16,262,0,57,1
210,153,83,87,1
381,15,232,705,1
167,164,144,262,1
610,261,273,259,1
91,6,145,0,1
231,155,166,587,1
614,37,55,219,1
208,94,68,375,1
567,135,310,177,1
106,87,179,122,1
147,73,146,158,1
371,130,270,219,1
8,25,54,102,1
538,652,0,212,1
151,299,175,10,1
11,29,22,103,1
698,430,312,235,1
74,140,24,140,1
494,120,348,577,1
164,7,116,755,1
31,157,244,217,1
472,395,424,475,1
89,56,126,13,1
694,529,100,391,1
201,87,304,87,1
242,170,34,423,1
769,359,204,146,1
254,169,315,572,1
639,311,403,566,1
30,339,92,311,1
133,223,0,155,1
640,300,101,496,1
20,28,307,365,1
746,258,175,307,1
244,27,42,275,1
31,15,3,109,1
450,272,0,84,1
78,71,96,66,1
748,339,98,55,1
51,197,0,86,1
306,255,5,165,1
716,341,3,400,1
331,31,176,107,1
317,386,266,438,1
161,110,115,377,1
205,81,0,2,1
650,320,53,198,1
294,80,183,57,1
454,259,108,12,1
301,81,257,67,1
204,10,564,41,1
823,286,224,346,1
98,328,180,52,1
582,540,608,899,1
197,147,356,540,1
263,39,278,22,1
824,616,640,194,1
90,145,70,89,1
743,464,677,251,1
357,81,79,65,1
268,216,251,161,1
727,223,222,359,1
83,27,387,111,1
723,485,94,211,1
170,150,12,79,1
422,302,93,150,1
854,381,60,176,1
265,162,257,29,1
493,130,53,127,1
39,227,132,118,1
410,121,76,56,1
394,349,83,321,1
286,121,128,14,1
544,449,366,338,1
87,35,12,21,1
214,78,124,517,1
722,394,560,572,1
166,67,120,379,1
483,218,667,555,1
128,119,137,32,1
81,18,610,243,1
340,423,343,233,1
198,102,143,211,1
692,389,557,79,1
139,197,25,51,1
318,215,323,314,1
665,505,9,67,1
23,66,254,31,1
298,348,75,2,1
113,113,316,373,1
115,193,200,175,1
679,326,548,795,1
339,53,0,73,1
489,279,99,9,1
69,27,277,258,1
161,101,153,286,1
760,370,558,598,1
29,119,1,321,1
828,619,799,280,1
250,215,503,376,1
315,256,593,438,1
459,431,543,219,1
145,23,165,369,1
609,447,757,303,1
83,71,25,129,1
294,67,172,34,1
530,347,196,44,1
26,13,108,17,1
465,137,237,213,1
279,89,20,113,1
86,114,0,179,1
427,243,129,42,1
14,30,131,231,1
638,342,461,233,1
169,202,128,3,1
110,74,127,18,1
619,367,0,91,1
55,6,207,89,1
345,285,109,8,1
53,31,77,75,1
182,135,90,78,1
537,249,237,43,1
40,124,25,29,1
687,374,140,106,1
30,85,0,55,1
487,216,135,143,1
597,275,489,257,1
2,76,271,326,1
492,219,336,14,1
112,22,335,300,1
224,38,0,89,1
556,220,482,426,1
162,164,28,90,1
438,109,538,284,1
76,30,285,263,1
199,134,134,39,1
550,322,458,118,1
4,61,104,13,1
519,313,295,80,1
108,12,8,29,1
163,253,265,102,1
583,389,216,25,1
37,72,24,1,1
611,385,134,83,1
109,42,12,50,1
194,48,131,130,1
701,448,362,260,1
122,59,159,109,1
540,341,268,11,1
206,43,53,21,1
170,25,161,9,1
611,384,240,18,1
133,148,87,53,1
604,329,305,100,1
184,26,130,7,1
167,117,47,26,1
642,373,351,63,1
4,81,17,2,1
505,266,364,198,1
222,175,7,156,1
90,36,278,379,1
502,345,200,191,1
72,100,34,17,1
626,376,281,1,1
339,251,8,8,1
14,71,131,18,1
553,343,375,153,1
124,105,8,279,1
621,408,334,144,1
215,203,55,126,1
193,84,127,158,1
543,202,152,108,1
104,132,40,1,1
542,296,324,181,1
171,137,234,100,1
151,60,151,233,1
629,273,453,356,1
264,92,65,3,1
572,255,334,145,1
316,157,174,2,1
276,135,193,103,1
660,328,395,16,1
59,45,65,37,1
646,283,345,147,1
244,114,75,0,1
215,279,57,91,1
651,406,193,125,1
12,204,0,76,1
499,221,302,154,1
5,5,62,198,1
279,178,114,27,1
584,295,198,70,1
26,81,29,23,1
672,421,225,39,1
162,135,52,128,1
86,39,61,9,1
468,113,301,44,1
108,53,42,67,1
666,390,347,95,1
330,292,2,27,1
222,93,179,16,1
546,359,204,25,1
24,11,31,1,1
604,424,265,139,1
218,9,12,46,1
153,165,168,35,1
767,492,259,74,1
24,55,181,93,1
783,391,158,60,1
283,170,58,36,1
292,284,38,14,1
605,451,272,7,1
3,34,80,78,1
702,455,303,126,1
289,107,69,54,1
33,10,195,59,1
578,386,322,113,1
36,27,159,76,1
643,412,264,134,1
65,30,99,23,1
365,245,185,164,1
471,193,350,200,1
123,100,5,44,1
657,391,328,178,1
304,158,90,1,1
229,85,191,44,1
643,311,277,13,1
61,29,18,85,1
692,411,340,176,1
278,149,101,26,1
212,81,196,57,1
748,332,315,264,1
96,206,41,109,1
612,335,358,18,1
205,129,161,233,1
292,90,117,32,1
621,378,365,70,1
73,16,71,25,1
618,341,419,238,1
59,59,91,73,1
263,238,275,105,1
584,450,389,111,1
37,76,56,208,1
598,656,501,53,1
74,70,0,142,1
258,105,171,63,1
501,133,175,104,1
4,133,161,22,1
587,365,202,17,1
76,143,25,244,1
355,221,90,63,1
529,220,229,80,1
114,25,5,175,1
603,444,362,365,1
266,42,82,97,1
311,123,210,163,1
634,209,340,147,1
3,99,34,28,1
668,380,231,35,1
148,107,13,63,1
283,209,142,55,1
584,272,280,4,1
19,80,33,137,1
629,387,80,213,1
24,21,92,266,1
231,52,61,131,1
634,366,315,87,1
67,137,49,164,1
692,437,340,208,1
98,61,89,78,1
180,71,167,78,1
534,242,256,337,1
24,20,34,115,1
618,419,146,239,1
204,205,15,87,1
260,79,26,102,1
544,245,5,75,1
13,80,0,267,1
442,295,358,115,1
86,42,143,172,1
182,71,41,267,1
570,307,169,77,1
96,40,86,131,1
588,294,171,34,1
112,56,5,3,1
296,181,143,96,1
603,386,137,120,1
22,53,172,54,1
543,277,571,395,1
54,5,101,195,1
328,234,219,24,1
580,420,321,23,1
45,29,115,80,1
648,318,184,52,1
141,34,175,9,1
251,85,186,146,1
576,283,181,3,1
2,12,31,43,1
525,311,382,63,1
150,31,109,224,1
244,148,49,47,1
683,351,196,7,1
58,21,70,77,1
584,359,89,58,1
123,116,224,174,1
156,47,164,14,1
633,378,183,401,1
24,104,121,239,1
616,417,418,85,1
142,24,101,243,1
182,31,40,180,1
528,290,384,41,1
55,90,184,157,1
596,148,241,217,1
117,78,81,194,1
247,151,200,188,1
582,346,74,243,1
41,35,12,104,1
518,296,233,19,1
37,12,0,42,1
300,155,103,20,1
511,234,207,211,1
89,103,16,14,1
486,142,9,110,1
110,143,125,146,1
139,79,114,169,1
628,348,180,9,1
56,129,103,460,1
492,173,140,345,1
100,20,103,257,1
275,158,152,30,1
530,219,337,196,1
76,24,223,120,1
515,199,135,69,1
101,51,10,108,1
215,201,17,187,1
436,155,16,51,1
103,173,121,264,1
510,308,174,2,1
206,183,141,243,1
90,83,244,159,1
475,234,208,123,1
75,66,120,170,1
526,247,81,13,1
145,32,76,199,1
193,121,79,291,1
564,305,0,82,1
4,38,75,157,1
532,250,198,174,1
164,127,81,259,1
271,181,0,1,1
525,332,315,57,1
61,37,56,56,1
523,356,279,7,1
67,138,87,289,1
192,105,68,29,1
467,247,84,24,1
1,10,182,81,1
524,266,263,321,1
56,47,53,144,1
257,188,76,99,1
483,299,383,197,1
9,68,25,52,1
549,222,337,42,1
120,98,23,77,1
221,66,257,156,1
558,227,29,178,1
56,113,63,33,1
561,262,197,10,1
143,121,0,47,1
154,31,77,100,1
516,244,161,130,1
83,87,0,3,1
477,234,0,121,1
174,111,153,4,1
197,114,26,49,1
482,193,272,283,1
15,91,0,9,1
500,176,195,52,1
95,7,15,162,1
223,119,71,46,1
434,208,226,199,1
38,41,21,119,1
426,66,244,154,1
59,16,118,196,1
186,15,147,71,1
460,202,215,104,1
3,45,14,9,1
472,200,245,8,1
182,100,0,165,1
138,29,70,155,1
508,253,167,58,1
2,11,15,106,1
475,246,70,190,1
98,13,39,42,1
204,93,86,203,1
402,155,189,34,1
1,26,0,26,1
432,90,147,60,1
125,28,115,123,1
215,43,116,68,1
389,135,40,42,1
67,86,0,64,1
379,106,171,8,1
88,5,137,9,1
128,52,77,17,1
407,162,212,126,1
17,187,47,35,1
467,275,211,105,1
29,85,0,22,1
264,153,29,34,1
404,120,154,204,1
82,151,0,116,1
463,194,189,233,1
109,12,77,293,1
148,41,330,159,1
423,171,182,263,1
75,93,167,140,1
426,154,86,55,1
97,42,3,1,1
153,44,90,74,1
424,131,240,141,1
36,79,85,70,1
457,88,291,74,1
131,47,25,95,1
163,54,276,117,1
390,174,17,37,1
24,17,57,119,1
480,230,92,117,1
25,5,12,23,1
198,48,95,3,1
480,203,71,61,1
65,108,93,5,1
271,59,104,65,1
227,128,0,252,1
212,83,84,17,1
333,79,10,210,1
19,5,7,62,1
482,233,80,74,1
136,38,90,7,1
121,40,10,123,1
460,219,129,319,1
8,76,37,66,1
425,66,133,93,1
112,6,61,51,1
104,48,337,175,1
332,18,62,117,1
11,48,183,49,1
456,68,118,136,1
134,51,41,77,1
101,82,116,159,1
338,50,173,147,1
6,111,14,148,1
471,167,101,109,1
176,133,44,25,1
249,100,90,95,1
390,86,0,5,1
42,87,0,340,1
474,138,25,9,1
99,44,103,301,1
311,166,8,76,1
463,229,181,224,1
4,21,155,53,1
329,141,181,154,1
129,101,138,282,1
71,19,375,67,1
340,83,191,151,1
98,148,233,6,1
455,98,63,23,1
64,27,130,95,1
82,99,0,180,1
352,115,52,75,1
3,95,213,37,1
496,115,60,59,1
2,34,195,142,1
65,9,57,306,1
408,162,83,18,1
1,7,371,69,1
325,13,15,53,1
111,90,353,166,1
288,27,215,301,1
470,242,495,17,1
31,15,57,370,1
421,137,467,488,1
62,93,0,257,1
74,83,166,14,1
411,265,22,113,1
163,179,95,124,1
395,5,159,32,1
82,7,106,284,1
208,144,40,291,1
473,268,238,346,1
45,42,142,448,1
456,80,182,168,1
135,68,31,255,1
78,80,174,260,1
388,213,237,346,1
26,116,178,79,1
460,79,462,343,1
48,20,178,60,1
106,8,486,35,1
392,256,0,233,1
80,45,359,489,1
520,293,40,143,1
116,8,63,56,1
142,112,81,142,1
368,239,179,431,1
54,14,35,342,1
561,311,456,182,1
265,103,208,150,1
130,19,67,481,1
362,122,144,346,1
100,74,23,86,1
492,286,285,202,1
103,79,185,115,1
232,132,341,380,1
321,90,106,3,1
125,197,4,40,1
357,71,134,155,1
192,297,234,144,1
58,295,145,261,1
279,264,6,59,1
22,42,47,169,1
577,502,105,226,1
320,343,31,112,1
162,55,129,35,1
195,142,239,15,1
13,75,12,218,1
499,172,135,209,1
196,172,168,375,1
165,45,12,36,1
642,183,109,151,1
96,115,0,136,1
513,269,73,18,1
138,10,93,215,1
155,38,203,317,1
628,278,7,544,1
303,169,5,174,1
436,213,274,412,1
161,53,20,215,1
274,311,100,384,1
308,79,145,112,1
80,127,70,209,1
262,7,241,313,1
18,75,295,13,1
177,179,461,360,1
555,457,302,121,1
219,15,47,298,1
562,601,213,133,1
71,199,34,1,1
44,16,121,453,1
438,92,406,583,1
18,278,132,24,1
711,366,644,853,1
303,53,128,295,1
186,9,335,206,1
355,371,11,314,1
51,78,14,227,1
485,28,255,258,1
361,31,13,465,1
243,282,94,6,1
576,407,61,151,1
86,171,59,59,1
599,287,86,8,1
188,5,126,199,1
131,39,72,24,1
476,161,111,95,1
39,11,43,164,1
508,190,507,1000,1
142,80,7,399,1
440,127,411,505,1
443,239,233,78,1
228,147,308,297,1
659,273,254,200,1
79,63,438,726,1
53,58,251,194,1
553,397,58,253,1
65,32,174,175,1
658,573,294,351,1
120,9,260,134,1
314,211,716,416,1
141,202,166,39,1
290,111,6,117,1
689,500,44,320,1
189,143,30,235,1
195,59,30,52,1
572,526,260,10,1
57,315,28,99,1
458,159,229,158,1
13,58,16,29,1
286,49,139,434,1
622,93,148,17,1
140,235,176,499,1
588,589,6,63,1
315,42,179,490,1
159,157,25,37,1
611,501,453,690,1
3,191,0,84,1
652,367,494,83,1
334,194,3,499,1
446,447,165,473,1
735,468,91,126,1
90,210,202,191,1
829,450,134,170,1
106,127,0,295,1
265,47,136,379,1
316,237,307,286,1
26,341,194,132,1
573,448,22,50,1
88,8,145,108,2
560,397,317,21,2
796,456,61,113,2
11,15,72,54,2
1023,422,258,295,2
363,122,3,112,2
252,47,407,100,2
490,385,696,269,2
43,246,6,6,2
676,404,481,313,2
170,30,347,375,2
530,121,25,19,2
868,355,55,106,2
13,304,169,239,2
677,211,170,249,2
19,6,489,247,2
170,23,175,63,2
579,243,455,155,2
285,121,0,279,2
599,412,537,557,2
48,302,185,600,2
381,121,267,83,2
447,435,229,74,2
11,94,69,178,2
407,278,144,6,2
346,109,92,124,2
41,175,94,420,2
509,225,480,393,2
185,7,56,104,2
639,317,293,310,2
300,251,350,143,2
458,175,238,18,2
779,283,408,429,2
203,19,209,240,2
727,385,43,103,2
236,165,314,150,2
126,31,65,84,2
729,443,321,374,2
58,32,197,28,2
728,210,17,4,2
178,65,296,103,2
242,159,37,7,2
321,45,0,118,2
446,92,0,249,2
200,486,498,341,2
163,39,279,21,2
38,44,118,164,2
670,416,439,325,2
179,177,145,234,2
470,292,282,66,2
354,78,709,351,2
308,206,79,178,2
844,435,665,442,2
102,302,188,48,2
355,234,829,313,2
8,104,235,103,2
382,140,477,186,2
570,352,257,18,2
0,69,87,90,2
539,287,84,152,2
313,223,46,31,2
241,82,88,12,2
397,28,656,466,2
50,37,130,587,2
652,361,439,65,2
181,20,305,339,2
559,118,510,31,2
791,371,229,191,2
15,34,623,358,2
571,412,469,277,2
209,69,58,234,2
127,25,114,210,2
467,259,386,261,2
124,245,132,132,2
501,310,93,118,2
68,153,47,251,2
118,241,271,26,2
337,250,201,93,2
17,34,89,187,2
435,202,348,314,2
37,87,430,526,2
415,200,213,120,2
432,255,39,282,2
10,93,524,32,2
869,490,25,1,2
230,14,93,17,2
214,113,432,120,2
425,120,212,189,2
22,54,110,5,2
738,534,449,219,2
155,12,169,220,2
354,118,215,136,2
382,277,332,314,2
12,23,0,109,2
801,392,16,103,2
99,79,9,229,2
460,269,236,159,2
498,303,453,208,2
21,27,199,47,2
581,410,182,26,2
79,99,13,33,2
387,272,48,97,2
427,337,227,243,2
65,39,5,55,2
592,308,302,44,2
302,190,25,7,2
154,10,254,129,2
515,306,480,299,2
5,63,40,104,2
460,281,337,46,2
140,38,58,149,2
323,160,129,17,2
500,264,171,19,2
4,8,45,75,2
581,257,343,253,2
109,53,16,81,2
254,59,194,113,2
548,452,69,19,2
6,51,19,21,2
641,286,122,37,2
204,71,44,86,2
427,349,94,125,2
474,288,199,75,2
61,8,55,55,2
599,320,376,296,2
276,13,162,102,2
273,166,129,73,2
489,317,184,54,2
65,15,79,85,2
545,233,249,104,2
106,28,28,106,2
358,290,27,9,2
535,434,79,25,2
17,11,3,6,2
622,351,269,21,2
77,103,138,153,2
348,88,129,60,2
490,279,84,82,2
165,89,74,26,2
655,221,135,68,2
138,124,51,124,2
359,27,88,126,2
578,171,360,211,2
87,143,82,60,2
704,407,400,255,2
12,21,68,75,2
345,266,226,233,2
512,283,344,207,2
37,130,3,127,2
513,521,316,214,2
141,202,117,250,2
305,139,72,57,2
548,301,206,175,2
94,30,83,171,2
452,320,514,308,2
239,77,208,200,2
267,208,134,7,2
652,395,209,76,2
44,77,137,9,2
741,515,151,117,2
193,304,32,187,2
147,76,115,11,2
590,426,240,150,2
41,103,129,87,2
760,393,328,78,2
220,227,174,159,2
373,236,87,5,2
608,431,158,105,2
21,59,0,16,2
707,426,278,141,2
162,32,89,158,2
345,300,122,12,2
476,302,152,187,2
96,21,3,90,2
805,581,371,203,2
236,286,31,107,2
245,227,175,121,2
553,254,336,196,2
1,53,0,124,2
723,447,274,108,2
133,26,0,1,2
381,282,305,171,2
515,183,233,132,2
26,27,20,239,2
581,289,325,398,2
165,81,103,29,2
342,259,88,3,2
625,528,129,348,2
4,37,0,319,2
706,388,302,168,2
220,173,22,204,2
361,147,268,359,2
713,465,296,158,2
36,23,101,311,2
1004,657,444,345,2
279,166,0,64,2
379,172,179,319,2
574,377,334,255,2
34,184,114,13,2
789,596,373,134,2
119,58,0,8,2
393,318,262,39,2
583,304,272,254,2
4,101,15,78,2
761,403,253,177,2
61,70,16,100,2
427,326,127,120,2
526,319,152,6,2
5,111,56,57,2
566,187,246,46,2
176,17,130,178,2
359,250,180,159,2
506,339,373,31,2
98,57,0,127,2
723,418,345,38,2
187,91,107,157,2
158,111,147,97,2
358,125,138,82,2
74,116,43,214,2
788,340,106,161,2
114,22,60,53,2
343,233,17,67,2
523,365,338,57,2
9,186,0,3,2
729,427,490,331,2
188,63,53,43,2
270,150,281,33,2
543,335,283,194,2
79,116,11,224,2
805,469,422,106,2
199,194,100,114,2
261,14,150,196,2
400,293,191,55,2
233,113,79,66,2
692,328,354,320,2
90,296,156,100,2
516,333,80,177,2
576,339,396,158,2
2,13,100,104,2
629,371,396,127,2
144,65,5,61,2
454,290,66,139,2
545,250,272,90,2
59,7,146,98,2
726,357,196,213,2
81,7,211,337,2
301,65,196,140,2
450,314,76,254,2
93,96,0,10,2
601,380,381,103,2
199,138,82,212,2
270,168,11,93,2
564,342,212,69,2
6,9,143,4,2
677,407,163,150,2
145,112,79,292,2
252,89,446,81,2
522,202,124,255,2
47,76,39,171,2
660,287,312,61,2
183,143,156,32,2
294,255,0,47,2
489,390,258,70,2
109,98,308,267,2
707,350,53,223,2
175,92,126,59,2
390,347,132,38,2
540,379,120,293,2
17,12,25,184,2
606,335,491,99,2
191,263,60,178,2
347,32,94,212,2
448,330,133,108,2
8,29,163,62,2
758,508,79,117,2
83,58,20,129,2
367,180,154,3,2
498,295,0,67,2
125,44,23,75,2
577,247,265,171,2
182,103,19,230,2
299,168,0,45,2
501,331,151,7,2
113,135,3,94,2
724,339,140,93,2
59,13,213,25,2
235,82,115,87,2
345,217,154,93,2
78,21,87,2,2
525,249,240,10,2
84,64,287,121,2
160,37,123,71,2
434,139,0,33,2
133,6,12,23,2
536,246,58,71,2
157,48,13,151,2
275,96,125,84,2
443,258,98,84,2
5,38,84,0,2
528,197,440,317,2
66,58,244,519,2
246,150,306,283,2
461,326,173,368,2
202,87,30,67,2
593,358,137,56,2
263,113,252,281,2
278,107,4,19,2
448,264,292,346,2
100,123,37,180,2
653,346,300,303,2
57,75,6,141,2
350,256,119,186,2
382,136,117,8,2
29,56,239,270,2
611,419,217,33,2
154,99,145,239,2
282,183,219,62,2
412,219,29,10,2
99,250,35,6,2
568,226,214,71,2
49,17,21,13,2
342,86,51,178,2
336,187,217,454,2
17,6,26,45,2
649,339,209,272,2
7,30,17,32,2
314,135,93,62,2
467,267,104,149,2
3,7,141,154,2
542,183,351,205,2
119,17,171,161,2
380,179,167,116,2
426,315,129,69,2
8,114,90,62,2
601,321,0,14,2
230,266,75,31,2
269,119,29,116,2
388,182,75,139,2
26,30,194,188,2
685,309,290,40,2
97,8,278,326,2
379,223,64,36,2
363,157,206,111,2
66,47,114,57,2
532,231,114,266,2
118,141,42,206,2
197,69,192,165,2
448,191,8,189,2
187,60,166,264,2
696,421,98,8,2
51,123,29,10,2
234,134,17,242,2
388,215,221,251,2
37,76,94,71,2
607,303,250,420,2
74,28,71,218,2
295,193,243,214,2
395,199,65,16,2
25,9,36,52,2
499,164,194,16,2
64,42,51,41,2
314,171,156,31,2
311,60,237,193,2
52,35,136,234,2
543,280,442,136,2
47,42,67,55,2
214,70,205,124,2
323,191,49,222,2
42,26,129,98,2
468,204,9,69,2
140,117,0,14,2
197,23,10,179,2
340,85,122,166,2
59,82,53,54,2
530,209,229,180,2
8,71,14,56,2
314,143,250,213,2
319,98,81,55,2
97,91,17,1,2
501,193,323,123,2
133,102,160,136,2
322,175,23,31,2
317,100,170,127,2
78,105,100,68,2
551,196,302,201,2
33,8,103,235,2
283,67,47,5,2
291,114,219,234,2
0,72,3,2,2
458,151,247,179,2
94,109,83,98,2
256,31,361,3,2
303,54,0,24,2
34,26,11,28,2
526,158,87,38,2
76,33,73,222,2
264,69,0,163,2
311,131,358,127,2
91,42,26,2,2
486,179,283,347,2
34,5,0,15,2
279,92,222,168,2
330,132,395,222,2
10,27,6,4,2
516,166,420,264,2
103,76,30,25,2
271,51,204,124,2
241,101,58,3,2
6,13,40,42,2
600,346,151,123,2
111,127,16,4,2
152,39,100,186,2
514,427,148,121,2
24,13,0,80,2
411,145,243,194,2
155,103,136,55,2
300,139,227,277,2
355,150,301,199,2
62,34,98,148,2
465,145,223,229,2
23,20,100,39,2
208,47,115,36,2
288,104,131,106,2
44,14,15,79,2
485,193,94,79,2
76,109,20,126,2
278,11,11,114,2
338,134,111,3,2
11,107,212,91,2
367,58,236,317,2
34,50,197,96,2
296,135,69,73,2
355,259,110,313,2
3,124,85,45,2
419,8,326,157,2
5,78,118,103,2
284,136,96,17,2
253,54,178,71,2
4,60,136,172,2
460,119,422,115,2
56,6,0,45,2
284,111,72,256,2
234,27,2,182,2
104,42,5,164,2
391,182,51,261,2
80,116,23,71,2
139,73,58,71,2
323,167,13,302,2
5,82,203,427,2
448,143,109,17,2
112,21,95,346,2
240,85,173,65,2
230,155,290,5,2
9,214,110,184,2
343,70,339,190,2
88,50,267,73,2
168,26,341,463,2
293,111,148,54,2
162,86,0,151,2
464,100,117,201,2
98,11,121,287,2
197,125,26,224,2
192,8,85,370,2
87,8,15,114,2
411,15,102,67,2
127,76,0,80,2
154,84,123,522,2
365,196,77,150,2
19,65,113,256,2
456,152,99,25,2
138,219,79,269,2
301,15,8,186,2
201,7,8,199,2
14,32,32,52,2
444,18,153,13,2
57,22,36,99,2
224,82,0,22,2
385,142,60,9,2
68,150,39,49,2
363,52,403,78,2
50,105,59,432,2
186,25,177,418,2
289,187,139,80,2
17,107,47,300,2
551,337,249,104,2
184,306,8,122,2
101,84,90,9,2
323,200,153,250,2
99,176,66,370,2
377,16,329,208,2
1,110,218,501,2
308,100,272,213,2
131,18,448,641,2
203,15,506,466,2
462,175,413,589,2
10,43,246,6,2
396,269,227,84,2
366,238,7,165,2
63,207,94,94,2
505,137,74,51,2
128,7,0,9,2
235,184,44,45,2
260,416,240,314,2
133,34,11,8,2
533,249,274,150,2
121,59,0,5,2
373,17,176,105,2
242,10,97,225,2
44,105,153,263,2
519,166,0,172,2
38,60,346,78,2
343,205,127,673,2
196,35,386,404,2
4,117,104,477,2
725,233,181,182,2
263,211,6,358,2
228,15,219,48,2
220,37,317,344,2
79,101,112,161,2
510,262,48,287,2
144,233,169,628,2
189,215,14,353,2
134,22,0,89,2
42,124,55,10,2
517,395,29,67,2
5,107,116,269,2
233,145,283,19,2
280,209,326,94,2
90,89,289,325,2
328,341,0,225,2
264,119,106,146,2
243,69,137,340,2
363,261,357,833,2
126,121,362,404,2
722,219,360,783,2
223,142,2,72,2
429,189,402,319,2
279,199,152,483,2
40,178,35,65,2
629,459,354,155,2
205,22,145,424,2
522,283,211,303,2
282,15,64,20,2
282,160,39,199,2
758,280,0,25,2
98,11,145,560,2
248,124,247,2,2
328,291,50,80,2
265,87,127,342,2
683,154,65,278,2
115,43,41,190,2
166,60,47,198,2
207,191,460,387,2
136,75,119,355,2
744,550,198,676,2
106,342,113,57,2
324,143,173,613,2
474,259,305,90,2
292,120,254,10,2
767,205,67,234,2
61,102,240,85,2
340,332,169,581,2
283,76,70,298,2
33,11,218,533,2
709,478,2,498,2
25,45,447,1023,2
484,179,39,427,2
582,123,300,90,2
37,38,6,306,2
922,388,290,464,2
198,78,130,356,2
328,260,193,164,2
239,495,46,83,2
54,27,35,286,2
750,552,363,217,2
105,47,12,267,2
207,244,410,336,2
328,74,143,339,2
113,64,148,282,2
1023,620,194,939,2
28,24,289,779,2
521,419,289,85,2
240,129,96,11,2
244,66,131,298,2
685,221,89,512,2
102,84,209,387,2
253,46,71,193,2
13,298,208,110,2
164,19,149,187,2
682,523,55,660,2
81,45,41,305,2
461,250,51,2,2
151,35,96,298,2
177,172,493,226,2
629,433,306,341,2
108,161,166,263,2
366,113,404,200,2
263,264,345,92,2
49,110,103,6,2
458,547,201,16,2
121,268,100,68,2
438,25,384,126,2
255,139,150,571,2
175,156,87,608,2
623,221,315,267,2
18,129,326,356,2
419,87,3,355,2
422,446,493,526,2
73,91,146,43,2
584,249,116,62,2
298,245,131,103,2
182,188,259,88,2
337,64,183,120,2
366,281,266,194,2
562,322,372,183,2
290,17,25,100,2
345,295,0,12,2
394,66,89,148,2
81,175,102,111,2
933,740,195,261,2
275,159,0,152,2
668,544,202,89,2
426,211,227,38,2
264,209,230,44,2
976,607,299,162,2
269,380,255,186,2
399,104,74,158,2
482,175,62,119,2
171,14,101,95,2
692,599,380,231,2
299,191,274,8,2
301,111,8,350,2
260,25,95,130,2
8,102,17,11,2
577,392,107,9,2
43,207,18,485,2
442,434,1,687,2
153,185,22,340,2
21,339,0,99,2
658,513,81,108,2
150,249,584,197,2
485,23,357,248,2
246,126,503,367,2
61,11,77,97,2
680,461,455,432,2
171,42,56,259,2
378,174,434,135,2
282,158,8,102,2
90,123,201,102,2
637,240,198,106,2
321,72,39,56,2
334,302,61,188,2
390,241,123,102,2
127,148,182,122,2
778,560,287,102,2
23,32,144,119,2
219,309,79,203,2
299,108,0,61,2
66,64,185,251,2
545,203,55,45,2
211,109,148,67,2
411,183,548,359,2
257,217,67,91,2
59,32,218,234,2
644,390,420,264,2
148,142,82,14,2
466,298,518,351,2
242,244,212,59,2
82,167,404,139,2
494,295,310,263,2
74,88,89,139,2
289,231,438,104,2
240,68,41,135,2
71,67,79,39,2
880,593,170,179,2
295,91,212,176,2
308,239,293,209,2
248,228,81,4,2
114,37,74,114,2
474,398,163,204,2
191,118,513,464,2
290,146,106,5,2
224,158,232,465,2
79,36,382,573,2
753,271,107,4,2
215,50,76,210,2
377,226,65,4,2
324,192,42,31,2
65,23,107,44,2
548,273,420,200,2
89,43,13,29,2
492,228,366,71,2
194,69,245,266,2
122,64,57,87,2
660,431,683,398,2
152,140,71,159,2
264,211,456,313,2
305,304,280,207,2
31,28,198,114,2
492,453,265,113,2
0,95,21,9,2
292,151,241,57,2
328,199,64,32,2
101,177,258,93,2
674,420,292,217,2
109,407,19,15,2
309,13,33,63,2
168,137,305,223,2
116,55,31,17,2
643,405,424,225,2
118,80,41,36,2
458,277,381,104,2
307,179,98,74,2
58,19,122,4,2
738,576,425,229,2
312,11,74,36,2
352,234,186,253,2
453,348,254,367,2
60,297,93,154,2
659,455,299,466,2
16,201,8,62,2
495,370,273,111,2
224,128,224,238,2
9,33,125,39,2
619,227,474,145,2
54,238,0,14,2
574,361,254,147,2
341,161,294,216,2
85,54,0,21,2
572,376,329,177,2
84,135,141,167,2
480,277,303,57,2
354,36,146,216,2
93,130,43,91,2
800,471,332,74,2
95,61,11,162,2
641,372,241,167,2
376,181,152,23,2
111,82,0,56,2
744,419,330,184,2
148,112,16,193,2
447,261,268,27,2
320,271,180,408,2
109,57,142,37,2
708,438,59,75,2
178,9,48,110,2
500,340,33,72,2
291,211,108,49,2
71,36,9,65,2
546,367,311,163,2
240,83,32,4,2
337,284,337,122,2
227,132,10,145,2
11,13,200,137,2
689,484,481,268,2
98,62,51,4,2
291,164,269,228,2
222,60,59,101,2
190,77,11,81,2
599,349,398,214,2
72,83,195,232,2
529,263,293,121,2
280,199,40,17,2
117,66,191,61,2
694,428,221,170,2
141,71,190,94,2
461,249,162,96,2
138,53,2,61,2
154,107,223,126,2
744,568,340,110,2
194,73,119,69,2
523,411,172,106,2
485,223,92,113,2
40,40,63,27,2
836,528,256,174,2
155,49,291,240,2
532,374,173,13,2
181,28,323,185,2
23,47,102,7,2
534,295,537,150,2
105,21,35,37,2
443,261,368,7,2
292,205,18,360,2
72,41,113,119,2
704,406,430,100,2
108,61,40,13,2
367,218,383,219,2
225,148,46,29,2
204,156,185,256,2
672,385,191,38,2
46,31,8,20,2
530,238,131,90,2
263,175,6,214,2
62,33,61,221,2
667,479,278,175,2
145,245,0,14,2
356,183,148,158,2
397,180,187,212,2
34,105,46,62,2
688,348,442,346,2
64,27,48,104,2
520,325,155,251,2
290,158,17,79,2
27,55,91,67,2
677,404,210,186,2
3,175,27,70,2
368,499,255,110,2
129,214,205,137,2
168,143,36,48,2
678,486,166,58,2
112,83,40,32,2
555,353,34,86,2
151,15,0,167,2
156,63,8,99,2
700,379,0,61,2
36,17,33,386,2
590,308,259,70,2
234,98,239,328,2
275,85,34,6,2
556,275,155,322,2
132,69,128,10,2
385,263,13,27,2
159,46,0,78,2
179,72,40,258,2
744,575,15,206,2
39,17,0,88,2
503,274,272,168,2
270,234,121,242,2
144,7,9,122,2
635,356,60,94,2
62,72,11,268,2
563,333,0,22,2
125,43,0,43,2
157,98,47,185,2
625,236,0,225,2
198,55,0,22,2
569,506,118,70,2
250,96,36,73,2
126,419,0,43,2
833,892,0,6,2
63,101,0,208,2
516,379,0,106,2
252,73,0,210,2
115,84,0,170,2
706,465,0,51,2
19,5,0,149,2
348,214,0,121,2
110,70,0,71,2
74,78,0,14,2
754,489,38,258,2
87,11,9,162,2
533,310,0,157,2
159,23,0,70,2
153,86,282,220,2
759,528,307,239,2
239,150,3,476,2
472,294,324,157,2
305,290,20,19,2
179,65,77,200,2
646,516,244,39,2
2,53,13,1,2
437,266,22,116,2
146,94,247,31,2
74,27,103,230,2
717,384,243,254,2
47,22,73,187,2
500,156,430,321,2
218,87,55,42,2
125,19,75,98,2
639,362,303,136,2
194,130,116,11,2
482,293,6,58,2
246,22,15,48,2
137,119,18,202,2
668,298,3,72,2
113,49,118,104,2
485,227,138,137,2
323,198,142,163,2
137,159,171,153,2
662,490,205,326,2
98,68,69,532,2
537,193,239,399,2
149,89,155,12,2
161,123,266,96,2
595,342,94,85,2
3,63,52,16,2
615,532,65,182,2
340,294,54,127,2
95,97,304,269,2
585,307,132,179,2
123,120,265,281,2
445,100,170,46,2
159,89,168,255,2
67,8,350,106,2
659,458,30,113,2
1,66,61,215,2
518,353,71,240,2
160,56,53,216,2
107,49,19,36,2
539,267,399,239,2
93,207,119,7,2
432,213,165,45,2
104,85,45,82,2
194,173,116,174,2
599,365,133,244,2
55,5,101,188,2
377,155,325,116,2
235,234,42,147,2
11,86,189,164,2
519,286,30,48,2
55,22,99,21,2
396,201,45,18,2
218,220,104,57,2
68,27,0,72,2
645,396,267,129,2
72,14,59,1,2
450,375,253,134,2
253,117,63,26,2
5,53,38,5,2
572,257,428,468,2
43,23,108,159,2
362,120,400,361,2
184,117,64,151,2
79,12,147,94,2
578,316,66,228,2
98,58,0,57,2
396,85,144,309,2
123,52,53,136,2
163,51,109,139,2
556,252,385,559,2
47,55,106,96,2
543,332,264,367,2
168,66,0,75,2
129,144,0,22,2
572,397,124,116,2
82,79,65,294,2
413,156,189,125,2
211,201,14,45,2
54,30,185,181,2
476,240,89,70,2
43,15,134,428,2
433,248,70,366,2
147,21,214,237,2
114,102,6,325,2
575,224,205,127,2
47,150,13,40,2
369,72,94,69,2
96,44,141,84,2
147,149,50,2,2
516,351,0,1,2
128,39,12,32,2
408,169,67,65,2
108,16,140,52,2
51,93,0,15,2
482,99,280,306,2
107,63,101,4,2
421,118,322,281,2
129,55,18,51,2
133,106,196,124,2
507,233,152,7,2
59,12,70,296,2
411,174,101,97,2
168,40,91,76,2
167,156,92,199,2
526,235,309,162,2
42,28,0,71,2
429,124,400,328,2
230,151,0,7,2
69,15,123,212,2
688,602,0,13,2
76,35,14,3,2
461,323,0,103,2
89,9,132,80,2
95,17,5,21,2
465,157,230,74,2
4,7,124,235,2
463,225,406,242,2
53,13,123,236,2
151,136,132,157,2
530,343,154,153,2
80,30,52,73,2
454,233,19,49,2
89,14,20,17,2
115,79,0,76,2
507,197,204,156,2
60,77,89,98,2
402,162,281,218,2
174,148,0,7,2
109,6,34,106,2
430,164,108,78,2
36,173,110,27,2
478,411,67,61,2
132,74,9,76,2
111,111,25,239,2
531,182,323,364,2
59,7,39,5,2
396,238,273,218,2
165,82,0,37,2
155,87,7,3,2
544,262,149,113,2
10,38,0,89,2
423,210,53,130,2
90,11,59,12,2
92,20,55,4,2
484,133,127,171,2
24,23,54,55,2
277,7,226,197,2
62,46,98,15,2
104,45,74,66,2
425,152,22,51,2
47,51,49,163,2
397,215,54,29,2
134,64,143,212,2
124,26,91,105,2
510,213,193,119,2
2,43,72,50,2
412,81,140,1,2
140,35,33,57,2
113,23,21,79,2
444,159,336,423,2
13,56,8,20,2
423,161,196,330,2
115,52,0,74,2
117,43,21,58,2
461,74,29,45,2
58,53,177,40,2
357,74,0,7,2
174,76,84,119,2
123,24,79,118,2
424,147,113,38,2
3,19,0,91,2
404,160,50,53,2
64,14,94,207,2
35,9,0,2,2
352,8,211,307,2
34,7,0,189,2
376,99,324,258,2
179,144,13,171,2
148,51,182,131,2
448,255,231,134,2
75,133,8,130,2
315,53,228,63,2
110,45,12,55,2
53,52,84,83,2
425,82,243,84,2
11,36,0,80,2
338,58,152,2,2
186,121,0,34,2
27,125,192,291,2
429,103,106,49,2
23,68,215,242,2
443,169,61,82,2
88,98,141,160,2
167,117,40,25,2
420,183,147,103,2
10,6,38,149,2
253,14,0,77,2
73,11,34,79,2
86,42,71,168,2
346,26,14,295,2
26,16,48,21,2
282,32,12,136,2
106,44,6,104,2
59,12,23,124,2
433,273,54,139,2
89,145,12,49,2
437,241,56,23,2
76,67,171,262,2
93,49,0,24,2
395,8,20,80,2
12,155,90,44,2
348,98,7,55,2
119,94,26,1,2
110,68,0,42,2
404,52,195,109,2
140,104,0,75,2
517,236,301,816,2
137,132,141,28,2
178,420,32,157,2
480,210,68,141,2
90,130,0,39,2
414,316,315,308,2
157,243,38,5,2
127,88,273,553,2
275,79,47,8,2
17,170,280,353,2
434,366,66,135,2
133,47,91,451,2
121,39,126,25,2
359,47,0,67,2
34,49,222,199,2
332,73,9,58,2
57,6,501,509,2
42,11,30,78,2
384,172,566,301,2
30,28,179,499,2
300,165,390,111,2
110,62,327,428,2
101,103,149,98,2
420,165,254,146,2
93,25,65,4,2
511,328,66,10,2
183,117,211,146,2
276,220,157,89,2
365,183,309,219,2
15,42,146,48,2
207,31,430,272,2
99,99,83,407,2
0,208,112,218,2
231,42,374,487,2
149,10,119,262,2
291,72,180,635,2
3,104,59,24,2
129,58,29,253,2
271,28,30,166,2
140,60,20,27,2
372,33,50,218,2
219,195,264,9,2
306,138,63,499,2
484,381,141,593,2
59,130,99,50,2
361,53,122,394,2
153,93,17,132,2
123,320,165,468,2
405,87,259,238,2
151,85,42,33,2
477,268,247,529,2
169,127,71,310,2
39,67,98,358,2
606,294,339,457,2
239,71,104,675,2
420,378,253,150,2
20,96,11,39,2
98,64,82,114,2
587,285,90,168,2
74,141,354,152,2
396,41,183,289,2
34,290,381,214,2
325,98,146,421,2
631,580,366,184,2
0,143,0,108,2
375,387,119,176,2
374,326,119,293,2
252,307,1,368,2
617,460,14,137,2
2,12,7,314,2
619,296,217,4,2
172,208,418,349,2
70,103,79,25,2
529,348,280,243,2
10,17,0,43,2
585,316,1,297,2
26,118,93,665,2
165,139,77,247,2
431,299,6,315,2
41,75,181,485,2
564,435,24,215,2
163,318,119,146,2
51,86,11,379,2
606,555,91,466,2
56,93,206,304,2
557,379,14,244,2
240,194,349,238,2
127,137,116,71,2
452,325,6,15,2
114,12,239,129,2
434,162,141,100,2
210,127,172,12,2
338,198,196,63,2
683,252,304,547,2
184,179,209,350,2
558,316,181,7,2
82,117,41,110,2
174,48,0,145,2
508,387,202,240,2
54,102,418,118,2
200,34,207,15,2
43,30,0,115,2
244,12,200,140,2
805,394,78,215,2
169,219,113,60,2
473,409,0,214,2
322,202,211,90,2
85,238,358,625,2
641,327,44,156,2
273,31,8,364,2
508,397,271,167,2
528,145,49,192,2
230,234,27,245,2
930,396,80,387,2
64,153,132,602,2
750,212,121,399,2
0,189,200,396,2
96,258,20,61,2
510,369,79,143,2
266,8,239,125,2
481,260,269,184,2
386,415,282,715,2
166,46,532,753,2
717,333,90,309,2
329,288,242,585,2
370,123,34,397,2
127,189,226,253,2
415,371,122,530,2
764,598,388,973,2
151,43,30,119,2
583,410,119,3,2
299,224,104,36,2
221,295,39,75,2
871,571,0,162,2
411,25,132,229,2
520,487,74,436,2
504,18,116,320,2
18,20,8,88,2
785,471,183,1,2
134,153,154,17,2
544,259,38,372,2
232,176,284,475,2
84,178,216,144,2
526,169,126,248,2
19,98,0,246,2
559,350,217,351,2
60,6,36,505,2
94,7,183,76,2
596,491,241,117,2
136,16,84,108,2
459,522,226,42,2
405,162,173,406,2
51,86,459,745,2
587,353,409,112,2
138,114,11,41,2
635,420,89,28,2
193,128,45,205,2
459,133,15,271,2
893,421,430,22,2
59,132,2,83,2
577,331,667,228,2
178,337,329,13,2
159,90,241,239,2
675,357,395,195,2
184,130,52,140,2
596,183,756,230,2
2,133,35,38,2
199,140,47,179,2
487,394,99,119,2
59,166,221,552,2
181,377,245,242,2
418,112,262,300,2
182,26,361,415,2
686,101,88,162,2
24,81,520,133,2
917,327,74,212,2
236,130,26,49,2
271,11,144,304,2
589,307,464,154,2
78,8,175,318,2
534,168,443,163,2
200,92,421,196,2
289,112,16,260,2
896,509,445,347,2
127,64,274,4,2
645,592,527,182,2
223,417,429,320,2
75,33,72,5,2
548,407,151,58,2
144,147,125,13,2
640,336,155,467,2
381,53,103,133,2
164,42,175,362,2
633,311,423,263,2
15,40,132,26,2
578,373,293,5,2
265,126,137,8,2
23,23,225,110,2
512,480,172,3,2
21,14,100,29,2
516,364,39,92,2
146,107,154,98,2
26,86,87,39,2
486,388,0,72,2
38,11,25,50,2
532,299,118,5,2
148,104,238,213,2
151,101,55,320,2
614,443,385,360,2
92,117,161,312,2
575,286,178,55,2
257,203,179,332,2
182,80,253,63,2
462,243,160,61,2
8,9,67,34,2
653,401,544,343,2
60,22,65,79,2
277,286,0,315,2
441,487,408,133,2
4,7,29,1,2
500,296,270,192,2
146,217,190,35,2
212,76,14,51,2
591,209,11,89,2
62,95,0,75,2
546,180,210,109,2
121,83,119,44,2
43,177,85,138,2
643,345,197,137,2
24,29,70,66,2
497,362,266,271,2
214,14,27,20,2
253,287,40,379,2
555,352,300,230,2
49,67,85,128,2
774,401,231,43,2
166,45,152,46,2
352,121,0,3,2
710,347,213,31,2
87,113,49,19,2
624,338,167,215,2
232,200,7,28,2
292,93,97,4,2
702,443,171,53,2
113,117,27,30,2
584,304,242,28,2
169,41,172,72,2
253,207,6,12,2
739,579,543,241,2
15,151,2,32,2
679,357,368,228,2
6,78,71,96,2
276,98,143,24,2
494,230,248,76,2
77,19,53,87,2
558,323,313,80,2
93,85,25,40,2
149,92,111,43,2
598,406,168,97,2
23,122,253,118,2
498,349,185,7,2
57,9,0,18,2
214,109,108,161,2
538,283,302,300,2
114,112,20,116,2
509,315,381,102,2
138,20,5,71,2
219,135,255,157,2
670,424,219,158,2
171,14,56,155,2
624,369,358,146,2
408,187,108,18,2
184,130,279,239,2
651,287,250,80,2
140,11,14,4,2
506,251,471,143,2
166,62,198,298,2
153,61,184,97,2
606,283,337,387,2
6,107,59,66,2
617,333,299,52,2
143,39,81,110,2
245,57,88,10,2
522,157,153,28,2
105,123,89,135,2
504,137,352,207,2
197,198,0,12,2
105,26,80,96,2
619,243,347,247,2
25,9,0,31,2
694,322,152,25,2
77,66,0,130,2
395,263,63,51,2
792,243,173,265,2
68,103,65,184,2
702,358,330,182,2
37,91,92,62,2
288,206,114,55,2
610,268,294,189,2
0,26,79,184,2
590,298,236,1,2
195,19,0,28,2
216,303,107,98,2
605,541,273,34,2
56,19,39,24,2
629,418,209,121,2
63,35,0,126,2
229,165,67,82,2
666,518,292,40,2
32,52,6,108,2
621,423,346,184,2
107,83,157,145,2
272,108,97,72,2
611,386,140,297,2
8,34,68,5,2
517,412,132,115,2
173,89,10,14,2
22,51,145,142,2
724,434,275,503,2
101,94,42,8,2
605,258,198,209,2
249,167,116,2,2
71,33,18,16,2
560,292,73,137,2
78,5,26,99,2
611,458,70,20,2
199,15,0,121,2
173,126,25,47,2
595,293,27,246,2
24,7,0,107,2
477,85,74,215,2
71,12,4,23,2
173,183,0,35,2
603,406,0,12,2
213,206,0,14,2
551,399,0,148,2
314,190,0,101,2
199,44,0,153,2
656,313,0,119,2
6,23,0,42,2
619,234,0,79,2
243,183,0,33,2
105,141,0,25,2
691,357,0,148,2
48,70,0,75,2
589,320,0,269,2
156,145,0,66,2
234,77,0,202,2
617,477,0,66,2
31,142,0,47,2
676,451,0,266,2
47,31,0,202,2
217,185,0,37,2
614,304,0,279,2
83,97,0,111,2
552,236,0,196,2
136,90,0,60,2
312,286,0,12,2
625,420,0,54,2
74,66,0,234,2
585,377,0,26,2
153,68,0,84,2
352,201,0,60,2
653,380,0,355,2
83,81,0,14,2
584,385,0,38,2
109,49,0,5,2
241,105,0,503,2
674,519,0,338,2
14,95,0,80,2
526,380,0,160,2
102,285,0,7,2
265,155,0,39,2
587,538,0,313,2
107,36,0,33,2
670,486,0,261,2
132,98,0,117,2
191,246,0,203,2
614,431,0,153,2
64,8,0,174,2
519,149,0,84,2
128,19,0,146,2
207,47,0,134,2
535,265,0,33,2
7,55,0,27,2
591,307,0,198,2
147,138,0,139,2
134,55,21,136,2
558,227,1,222,2
35,44,13,77,2
604,333,354,153,2
158,108,138,37,2
309,165,80,70,2
609,347,236,142,2
37,5,120,63,2
586,274,210,6,2
200,119,17,142,2
294,284,180,35,2
644,407,193,2,2
99,127,86,4,2
550,212,625,425,2
218,256,221,359,2
142,14,175,253,2
466,318,317,318,2
130,201,8,82,2
564,294,93,131,2
211,188,191,162,2
199,90,146,67,2
620,352,58,96,2
51,13,201,118,2
453,242,233,46,2
137,44,115,142,2
245,35,91,98,2
513,298,564,221,2
67,37,55,76,2
625,398,262,28,2
59,20,26,192,2
292,157,253,65,2
556,161,164,215,2
7,10,22,44,2
544,437,279,194,2
98,70,97,55,2
265,221,24,164,2
461,232,303,21,2
8,11,0,13,2
424,223,66,58,2
150,10,92,133,2
236,87,205,99,2
496,271,108,104,2
26,53,102,3,2
468,326,161,48,2
102,100,119,161,2
187,248,41,37,2
592,335,116,95,2
123,163,77,69,2
400,104,167,109,2
170,100,175,127,2
158,46,166,4,2
489,148,78,253,2
0,28,37,13,2
485,226,154,92,2
114,33,42,110,2
248,57,151,44,2
498,254,208,119,2
64,83,3,51,2
563,328,67,39,2
209,140,91,251,2
215,143,130,4,2
555,307,67,141,2
18,28,11,40,2
538,250,307,231,2
170,194,4,139,2
193,10,300,224,2
361,211,127,81,2
2,33,183,89,2
410,269,100,35,2
85,37,100,195,2
152,94,24,412,2
492,179,55,158,2
13,27,93,241,2
557,276,265,224,2
176,153,123,2,2
249,103,202,176,2
521,300,268,297,2
85,200,178,85,2
544,206,123,211,2
103,23,53,136,2
95,36,153,86,2
430,194,396,247,2
40,52,13,131,2
461,192,261,617,2
110,6,137,71,2
253,124,102,301,2
436,227,4,16,2
57,121,19,19,2
559,273,77,84,2
126,9,142,389,2
218,121,134,34,2
462,345,166,151,2
12,21,48,24,2
557,386,259,215,2
299,315,141,45,2
134,47,109,118,2
412,208,31,19,2
27,23,52,151,2
485,109,21,5,2
101,20,66,115,2
186,75,25,128,2
438,165,308,99,2
12,66,12,16,2
522,237,255,162,2
142,91,0,18,2
234,147,14,35,2
377,154,248,189,2
23,76,84,87,2
469,185,86,2,2
49,19,0,43,2
200,121,123,37,2
411,198,0,51,2
43,41,68,145,2
480,237,65,45,2
81,21,15,123,2
207,107,51,4,2
443,183,210,162,2
0,28,73,93,2
431,176,81,140,2
52,8,59,39,2
121,6,0,13,2
485,253,133,171,2
9,65,148,219,2
453,261,122,141,2
173,102,49,103,2
214,79,5,46,2
441,335,0,27,2
11,21,18,129,2
478,269,90,241,2
82,21,43,34,2
186,37,0,203,2
437,196,72,121,2
7,54,86,127,2
442,174,255,123,2
161,91,31,26,2
163,24,108,63,2
471,268,123,26,2
20,6,0,22,2
383,163,7,85,2
147,76,43,2,2
87,43,25,49,2
398,206,123,103,2
9,72,30,107,2
431,92,275,129,2
64,23,25,31,2
223,129,96,76,2
412,218,250,22,2
19,6,101,58,2
426,197,193,129,2
12,117,54,24,2
169,60,171,16,2
366,97,47,5,2
2,9,25,8,2
351,67,101,21,2
96,41,43,114,2
130,6,17,19,2
346,97,217,231,2
12,66,64,19,2
442,150,317,219,2
86,14,75,83,2
132,17,262,132,2
277,29,151,46,2
0,9,142,12,2
361,44,31,88,2
50,74,111,286,2
191,93,47,7,2
415,118,258,285,2
2,25,126,23,2
383,93,128,227,2
58,10,47,58,2
163,24,141,60,2
401,177,59,122,2
16,29,12,89,2
380,51,144,132,2
24,78,116,5,2
133,46,147,107,2
375,195,4,13,2
106,106,14,37,2
286,14,82,39,2
243,168,68,17,2
308,210,68,6,2
227,13,155,101,2
37,23,0,57,2
529,210,173,108,2
6,85,33,33,2
163,52,57,367,2
406,204,191,29,2
33,42,156,312,2
319,52,199,119,2
107,31,173,74,2
133,46,67,16,2
264,47,307,145,2
41,28,4,16,2
374,111,200,106,2
31,21,6,1,2
148,21,54,9,2
317,70,162,129,2
11,29,61,18,2
281,59,137,116,2
100,72,184,131,2
158,151,27,82,2
338,115,75,36,2
31,154,216,44,2
324,128,42,16,2
77,9,231,151,2
128,8,105,84,2
332,101,242,216,2
48,27,0,24,2
355,138,208,160,2
39,50,155,66,2
193,122,180,173,2
227,36,197,68,2
2,13,0,18,2
437,197,334,222,2
147,139,107,138,2
149,107,65,64,2
311,171,51,30,2
22,114,1,9,2
302,121,0,110,2
43,6,92,155,2
78,11,49,40,2
201,24,84,44,2
17,10,197,145,2
357,68,431,240,2
209,163,1,91,2
243,172,316,44,2
297,163,24,85,2
71,26,268,21,2
217,53,170,101,2
115,90,34,87,2
38,6,8,1,2
330,118,188,86,2
9,27,130,46,2
334,119,185,103,2
54,55,212,46,2
177,49,53,123,2
196,11,1023,552,2
90,246,0,130,2
282,59,1023,957,2
33,96,67,307,2
50,16,462,154,2
174,123,225,509,2
10,49,129,133,2
504,203,471,461,2
36,182,10,203,2
206,183,75,62,2
357,193,131,62,2
117,101,0,58,2
156,25,30,266,2
2,45,14,225,2
113,49,2,300,2
294,89,106,275,2
5,21,226,521,2
310,9,403,346,2
154,186,85,423,2
5,251,337,361,2
246,113,55,54,2
25,118,51,136,2
383,69,0,63,2
170,12,88,195,2
233,40,85,17,2
350,111,163,436,2
17,70,85,99,2
242,31,126,130,2
157,95,429,88,2
206,16,207,166,2
310,48,275,68,2
145,148,121,9,2
273,39,211,481,2
8,118,44,361,2
115,53,225,295,2
390,157,78,164,2
142,129,106,190,2
217,181,114,193,2
13,87,96,9,2
164,178,12,428,2
231,46,147,129,2
32,276,88,20,2
448,148,7,110,2
42,49,153,11,2
206,175,40,149,2
227,148,46,61,2
152,59,88,149,2
372,151,88,214,2
11,143,87,467,2
213,119,113,146,2
173,91,60,466,2
46,150,71,377,2
373,413,221,331,2
342,172,0,233,2
14,131,173,167,2
475,205,171,299,2
46,58,365,414,2
472,141,523,814,2
6,67,233,453,2
250,110,362,32,2
336,167,389,92,2
29,117,11,205,2
383,297,442,226,2
94,263,109,628,2
249,45,632,110,2
222,63,267,164,2
218,191,772,240,2
288,77,139,388,2
6,179,568,117,2
55,42,108,42,2
386,167,41,201,2
13,7,6,136,2
522,232,9,123,2
129,147,161,487,2
89,114,173,173,2
301,396,30,318,2
190,13,246,551,2
648,33,120,262,2
12,353,82,441,2
488,265,164,481,2
308,13,302,97,2
138,133,246,752,2
258,115,155,390,2
87,19,172,49,2
178,180,62,340,2
319,215,21,439,2
83,7,0,5,2
519,316,395,662,2
20,27,8,123,2
174,329,233,677,2
293,23,13,395,2
84,145,326,32,2
311,16,92,6,2
36,200,5,239,2
292,63,99,20,2
450,223,110,16,2
123,21,162,190,2
576,198,564,275,2
29,14,448,27,2
203,99,403,332,2
663,307,395,128,2
130,15,347,490,2
495,317,130,304,2
10,103,26,195,2
75,57,30,316,2
334,253,86,411,2
195,51,77,720,2
580,12,72,7,2
60,27,0,100,2
182,111,92,45,2
652,606,83,219,2
204,201,6,672,2
383,267,71,235,2
104,43,151,37,2
354,278,77,183,2
532,335,9,220,2
8,167,0,251,2
661,546,182,477,2
135,152,170,277,2
102,96,59,509,2
440,14,0,400,2
199,236,236,53,2
923,395,101,340,2
107,33,76,110,2
518,347,128,219,2
491,409,30,276,2
5,43,51,328,2
696,362,79,43,2
333,89,291,177,2
427,207,200,723,2
680,476,54,365,2
21,77,50,342,2
710,480,122,778,2
235,206,210,629,2
219,403,209,297,2
456,531,305,146,2
113,210,73,3,2
637,205,324,11,2
191,15,11,55,2
548,377,156,368,2
525,226,2,59,2
59,5,0,255,2
523,436,129,101,2
116,23,514,198,2
92,462,184,445,2
495,712,4,423,2
31,54,122,9,2
819,410,68,37,2
71,67,19,234,2
357,239,237,242,2
402,296,0,31,2
50,35,57,15,2
432,401,66,246,2
3,102,107,333,2
44,39,134,290,2
42,185,402,46,2
124,195,107,144,2
513,516,111,4,2
252,109,186,410,2
371,382,19,218,2
592,418,0,235,2
188,190,234,188,2
468,233,296,80,2
178,175,364,230,2
392,103,45,231,2
712,577,342,515,2
343,216,170,53,2
260,275,10,179,2
131,320,198,459,2
147,161,31,33,2
638,418,235,251,2
295,188,132,4,2
511,397,363,366,2
407,406,464,499,2
175,156,43,324,2
620,484,59,151,2
114,101,353,359,2
583,435,66,127,2
219,76,90,28,2
188,307,48,61,2
548,452,303,185,2
22,59,247,521,2
784,609,286,97,2
27,118,281,480,2
420,163,122,18,2
582,518,521,195,2
283,12,114,291,2
863,136,251,201,2
5,19,123,56,2
403,381,164,137,2
209,214,398,740,2
169,42,283,520,2
657,319,186,39,2
264,71,83,61,2
129,246,11,111,2
210,140,76,179,2
12,69,14,244,2
626,336,222,232,2
441,183,154,8,2
150,14,398,224,2
415,101,493,168,2
77,51,75,118,2
506,311,438,141,2
21,7,27,121,2
593,203,109,193,2
605,436,257,339,2
32,227,82,128,2
563,244,223,125,2
140,44,177,159,2
351,235,22,11,2
454,422,555,419,2
151,232,95,41,2
527,263,282,138,2
337,187,62,19,2
14,79,241,214,2
477,297,150,11,2
133,7,84,163,2
426,342,179,43,2
93,111,152,105,2
149,66,222,120,2
391,191,62,201,2
101,104,71,246,2
512,312,111,40,2
101,16,100,130,2
248,296,77,123,2
473,297,157,84,2
6,43,306,4,2
