Ch1,Ch2,Ch3,Ch4,label
53,38,0,3,1
118,148,91,65,1
158,228,58,47,1
15,67,27,25,1
162,71,98,90,1
0,20,0,3,1
171,143,69,71,1
168,177,29,38,1
49,44,0,9,1
185,114,103,107,1
10,76,20,19,1
80,100,42,49,1
125,184,58,39,1
10,20,21,23,1
155,145,69,74,1
31,9,0,33,1
155,152,20,57,1
145,130,33,44,1
19,63,0,1,1
200,31,108,124,1
132,131,0,0,1
28,108,3,32,1
153,158,10,51,1
6,77,3,4,1
153,63,68,96,1
62,26,26,34,1
151,200,75,87,1
150,95,32,46,1
0,8,0,7,1
162,33,64,86,1
112,42,1,6,1
0,80,20,53,1
102,122,35,61,1
44,371,3,19,1
187,113,60,93,1
9,135,7,11,1
58,33,32,66,1
77,9,39,53,1
55,81,0,17,1
215,78,83,107,1
71,52,0,1,1
84,69,44,53,1
99,64,46,53,1
20,90,0,17,1
208,11,78,101,1
47,20,5,11,1
96,160,80,75,1
169,115,1,29,1
55,14,3,3,1
123,39,66,95,1
80,37,0,16,1
30,17,27,49,1
120,41,42,43,1
12,12,11,36,1
174,55,93,97,1
85,71,12,7,1
95,7,42,63,1
186,144,18,35,1
18,49,0,4,1
131,42,90,90,1
103,103,0,4,1
2,92,60,66,1
182,86,77,64,1
25,96,0,10,1
203,9,68,107,1
56,13,31,39,1
96,8,93,104,1
130,69,134,118,1
5,13,4,1,1
107,12,81,113,1
78,21,0,20,1
85,46,22,42,1
111,5,76,100,1
2,37,21,39,1
158,29,18,79,1
0,5,10,38,1
65,8,101,71,1
174,124,19,46,1
1,72,73,9,1
191,252,143,121,1
52,25,119,6,1
102,38,118,55,1
208,198,72,40,1
10,100,60,43,1
177,46,82,2,1
54,23,121,17,1
3,83,112,156,1
89,15,97,1,1
31,30,0,57,1
115,23,175,95,1
25,34,51,17,1
41,101,19,32,1
146,73,14,69,1
8,20,46,55,1
196,56,54,201,1
54,15,32,14,1
16,122,0,92,1
134,12,129,107,1
42,44,92,3,1
85,74,57,141,1
75,117,219,55,1
84,37,0,146,1
96,85,374,316,1
123,121,131,117,1
194,21,203,313,1
188,264,56,148,1
90,44,166,4,1
326,194,54,6,1
55,119,118,166,1
153,22,252,259,1
170,26,0,6,1
96,34,176,178,1
221,60,47,57,1
66,152,18,48,1
92,76,114,12,1
4,46,47,124,1
0,109,209,5,1
0,187,193,70,1
32,35,144,24,1
177,36,242,34,1
129,26,118,145,1
1,26,136,164,1
124,46,52,111,1
7,69,78,56,1
364,26,289,99,1
34,190,20,98,1
129,130,99,98,1
150,98,0,140,1
155,28,8,160,1
182,6,91,11,1
123,82,119,71,1
14,52,139,187,1
89,19,63,347,1
16,171,172,173,1
341,301,18,7,1
309,338,235,121,1
132,78,182,30,1
227,251,151,142,1
51,100,112,32,1
41,51,78,244,1
120,53,97,97,1
141,160,222,156,1
29,9,15,104,1
36,30,204,222,1
255,470,403,40,1
154,21,0,3,1
291,8,181,229,1
11,45,41,44,1
6,208,449,435,1
147,139,147,560,1
18,187,613,274,1
226,49,115,218,1
177,126,266,248,1
4,55,20,38,1
27,37,113,98,1
4,19,431,11,1
6,149,86,93,1
137,92,114,12,1
31,92,257,184,1
291,70,85,310,1
238,73,38,102,1
98,103,75,303,1
2,11,63,115,1
126,279,241,324,1
266,198,185,540,1
11,7,253,165,1
261,268,71,227,1
258,222,0,194,1
73,144,207,239,1
131,61,12,145,1
208,38,245,37,1
230,151,100,10,1
12,204,37,32,1
226,420,217,671,1
285,176,82,47,1
30,38,271,374,1
10,62,175,182,1
287,91,289,25,1
176,45,188,257,1
228,273,548,15,1
109,318,60,322,1
45,71,39,164,1
179,136,283,49,1
116,5,0,207,1
209,173,408,334,1
180,70,321,32,1
179,24,24,149,1
136,203,35,45,1
189,15,573,169,1
119,7,293,139,1
143,211,464,87,1
274,112,295,38,1
302,75,528,119,1
36,200,45,602,1
290,131,347,376,1
51,107,94,45,1
128,200,2,25,1
446,80,193,26,1
224,346,328,240,1
265,37,274,267,1
125,180,591,181,1
2,43,585,415,1
56,131,0,441,1
54,9,61,328,1
353,190,67,185,1
10,72,40,141,1
67,96,237,199,1
16,104,37,142,1
97,27,100,203,1
288,265,68,286,1
21,131,339,354,1
13,46,358,212,1
34,58,37,571,1
79,252,353,535,1
77,166,194,324,1
234,152,44,245,1
132,81,529,71,1
296,158,227,262,1
300,14,48,285,1
261,304,476,67,1
207,151,55,256,1
167,280,357,334,1
79,385,87,389,1
20,185,119,253,1
121,222,146,324,1
33,99,53,183,1
230,223,201,164,1
211,196,112,21,1
124,57,0,24,1
99,86,107,155,1
223,167,257,247,1
297,195,132,775,1
326,92,207,41,1
31,22,435,231,1
392,540,436,56,1
159,523,303,298,1
29,46,374,228,1
210,187,126,341,1
66,8,114,220,1
87,132,466,257,1
300,137,584,25,1
370,259,72,176,1
160,174,283,218,1
143,180,360,256,1
371,500,488,60,1
146,190,27,12,1
249,23,607,4,1
106,39,459,460,1
294,53,18,331,1
167,109,36,34,1
10,124,5,248,1
29,16,127,20,1
149,103,573,785,1
142,97,379,148,1
5,181,311,117,1
90,88,391,571,1
524,55,600,363,1
216,130,65,26,1
511,466,305,168,1
184,59,304,18,1
63,27,293,18,1
255,13,619,206,1
197,55,149,515,1
19,45,667,47,1
357,57,341,83,1
190,172,21,4,1
195,56,200,123,1
514,202,10,211,1
57,64,799,316,1
206,62,470,62,1
342,283,329,407,1
168,191,24,264,1
111,208,28,238,1
13,109,241,44,1
349,164,109,128,1
218,131,138,125,1
39,12,900,144,1
340,284,185,129,1
127,54,178,601,1
19,60,18,8,1
98,86,813,13,1
66,73,921,71,1
79,19,502,56,1
139,12,298,181,1
189,73,511,576,1
127,27,218,13,1
7,153,1023,606,1
268,77,598,113,1
454,59,240,266,1
165,452,879,169,1
10,45,136,300,1
12,50,323,141,1
40,41,785,409,1
298,121,347,163,1
206,214,65,175,1
89,133,220,96,1
28,77,305,165,1
315,178,335,98,1
14,54,90,134,1
206,165,1023,24,1
211,25,3,624,1
36,118,1023,892,1
93,112,62,267,1
316,314,1023,1002,1
183,296,652,538,1
7,33,227,190,1
119,89,14,282,1
365,114,125,360,1
200,28,491,371,1
75,181,307,223,1
177,136,77,47,1
1,274,79,85,1
265,235,650,804,1
170,236,0,58,1
350,45,82,259,1
150,341,74,73,1
219,214,408,104,1
212,478,184,455,1
172,25,220,111,1
282,449,596,362,1
299,45,272,52,1
65,38,258,363,1
157,224,67,469,1
1,115,328,599,1
348,305,81,17,1
229,100,636,322,1
41,78,1000,36,1
57,72,474,155,1
96,37,130,7,1
282,182,173,31,1
130,120,602,158,1
222,195,595,139,1
124,104,249,248,1
83,15,277,2,1
219,123,547,424,1
98,301,144,77,1
54,54,451,181,1
175,218,196,183,1
3,32,102,83,1
46,330,102,205,1
8,153,399,511,1
365,77,115,103,1
210,41,339,254,1
16,52,36,163,1
275,237,84,81,1
36,27,470,148,1
169,121,438,99,1
187,193,6,392,1
195,42,237,241,1
141,34,153,405,1
142,85,88,129,1
9,50,76,84,1
99,14,251,121,1
73,236,158,231,1
484,66,131,227,1
451,214,710,554,1
92,91,624,760,1
245,310,202,63,1
37,9,39,239,1
111,127,274,696,1
237,154,327,437,1
188,115,233,218,1
68,117,548,606,1
72,19,226,80,1
244,414,185,94,1
271,650,72,142,1
117,139,18,23,1
127,28,199,25,1
14,39,285,77,1
290,102,47,11,1
440,118,282,16,1
140,100,82,10,1
338,215,89,327,1
159,28,138,54,1
177,94,143,130,1
334,9,71,110,1
17,77,309,536,1
5,212,266,9,1
79,31,543,273,1
67,341,217,17,1
30,241,87,312,1
231,13,21,49,1
253,525,7,29,1
304,71,83,30,1
192,299,275,404,1
213,337,253,446,1
28,93,341,103,1
211,251,59,299,1
16,6,102,165,1
128,308,270,508,1
61,74,86,101,1
261,27,20,102,1
438,126,19,66,1
93,44,98,25,1
288,357,350,465,1
200,167,155,239,1
198,109,201,389,1
157,100,13,9,1
6,236,2,304,1
149,29,152,345,1
64,222,327,146,1
1,56,138,185,1
81,288,295,238,1
71,32,70,37,1
338,242,107,52,1
111,61,165,282,1
90,180,159,148,1
248,127,172,23,1
43,79,364,184,1
173,162,256,7,1
52,245,33,244,1
12,21,265,165,1
277,20,40,42,1
1,128,106,536,1
97,114,336,69,1
95,46,187,290,1
251,267,100,465,1
322,83,199,256,1
133,34,508,169,1
115,140,362,148,1
58,38,185,177,1
82,22,103,127,1
230,153,191,359,1
49,159,99,202,1
174,166,53,76,1
160,238,158,164,1
3,35,152,76,1
236,532,119,184,1
161,467,171,148,1
140,13,138,11,1
107,233,129,63,1
24,71,210,65,1
200,205,236,107,1
256,147,8,19,1
232,183,572,24,1
132,28,240,245,1
129,28,49,144,1
304,143,74,66,1
173,167,96,221,1
102,116,102,78,1
87,176,22,108,1
130,45,0,350,1
155,7,0,33,1
106,191,90,20,1
192,232,56,56,1
5,67,6,196,1
205,177,72,149,1
161,31,313,142,1
13,89,98,46,1
123,6,249,298,1
224,141,23,24,1
10,54,110,161,1
31,18,108,80,1
9,23,104,65,1
376,388,79,36,1
313,287,318,374,1
127,30,227,47,1
171,307,339,166,1
98,379,45,290,1
328,406,419,137,1
222,193,62,114,1
90,52,3,51,1
144,8,78,237,1
14,282,33,34,1
239,248,231,296,1
28,67,118,301,1
84,94,66,10,1
173,105,27,118,1
7,9,93,196,1
104,137,92,261,1
17,30,83,61,1
71,89,117,52,1
242,104,262,302,1
25,145,258,103,1
263,275,212,279,1
102,168,189,53,1
20,68,62,66,1
144,88,48,65,1
158,120,0,72,1
245,233,52,90,1
87,178,10,3,1
35,14,0,26,1
167,71,148,7,1
13,16,41,113,1
241,218,159,55,1
50,7,84,59,1
54,10,177,100,1
290,125,218,144,1
30,17,0,114,1
220,82,199,167,1
8,37,82,4,1
167,115,13,126,1
210,31,174,230,1
161,151,0,38,1
30,35,132,110,1
36,38,21,21,1
27,53,35,22,1
301,351,62,117,1
141,133,187,143,1
190,201,26,6,1
138,31,130,239,1
36,59,33,28,1
193,201,102,23,1
37,21,63,28,1
175,113,8,55,1
147,57,63,51,1
21,87,0,5,1
92,134,112,36,1
64,79,42,81,1
194,89,45,61,1
104,127,52,46,1
11,97,33,12,1
208,10,101,195,1
57,58,13,1,1
215,151,158,193,1
130,35,23,1,1
39,41,95,140,1
226,295,51,100,1
165,375,0,3,1
78,17,73,49,1
31,18,32,96,1
75,99,52,101,1
30,147,3,25,1
1,26,22,36,1
86,9,29,121,1
117,59,259,157,1
175,139,0,167,1
354,232,239,281,1
14,93,35,1,1
171,224,64,8,1
2,134,115,74,1
103,152,4,52,1
186,81,0,6,1
1,52,0,33,1
230,32,53,18,1
57,35,18,11,1
77,28,185,185,1
199,116,81,89,1
51,33,117,44,1
214,127,11,115,1
47,57,33,23,1
18,8,78,53,1
63,46,101,60,1
5,86,2,68,1
88,9,80,8,1
20,41,102,92,1
68,73,48,41,1
217,290,159,84,1
33,110,60,50,1
135,11,272,207,1
100,275,201,215,1
73,47,3,15,1
207,241,9,4,1
30,13,61,38,1
224,179,6,53,1
70,20,26,105,1
69,27,36,11,1
86,123,8,58,1
11,33,19,2,1
115,33,67,129,1
19,115,43,116,1
32,83,56,115,1
57,33,7,138,1
88,171,0,265,1
295,260,164,385,1
33,71,108,117,1
37,15,49,12,1
251,129,78,89,1
14,141,0,66,1
190,50,39,285,1
100,63,57,144,1
0,116,74,156,1
220,50,104,107,1
41,63,60,52,1
210,154,47,90,1
10,137,153,180,1
4,21,25,93,1
179,108,115,120,1
51,72,69,183,1
144,37,52,14,1
302,122,11,108,1
0,117,111,59,1
165,48,10,38,1
1,60,209,221,1
272,420,315,414,1
67,75,19,276,1
99,145,34,55,1
245,19,8,75,1
34,25,50,99,1
186,26,161,25,1
1,30,32,57,1
66,78,164,61,1
169,142,215,107,1
73,213,128,44,1
0,131,277,295,1
38,224,4,152,1
94,49,152,9,1
410,152,186,182,1
165,107,59,42,1
120,73,50,74,1
113,78,187,66,1
54,263,267,24,1
383,246,90,33,1
59,216,97,293,1
81,106,289,45,1
12,38,55,280,1
78,78,164,244,1
417,245,17,185,1
224,144,68,50,1
140,17,153,248,1
39,122,31,194,1
138,83,246,85,1
120,15,0,22,1
25,193,43,294,1
98,142,13,262,1
71,105,188,143,1
5,15,16,148,1
102,93,103,23,1
310,45,98,225,1
91,147,196,259,1
160,206,182,373,1
154,163,628,355,1
9,21,33,158,1
19,47,502,8,1
17,341,14,29,1
102,53,7,551,1
13,202,364,211,1
34,270,56,298,1
221,388,130,199,1
16,220,6,73,1
174,153,247,178,1
269,173,134,24,1
18,116,547,129,1
254,307,37,214,1
167,230,646,581,1
300,46,495,357,1
221,235,144,320,1
178,39,23,330,1
210,10,353,130,1
151,103,393,127,1
52,165,71,35,1
56,347,199,117,1
285,77,83,55,1
147,279,31,132,1
18,80,6,33,1
20,9,0,231,1
238,122,99,420,1
245,98,187,37,1
227,311,15,240,1
456,404,126,127,1
152,85,377,206,1
167,107,176,96,1
198,117,45,42,1
235,123,355,120,1
54,189,411,113,1
55,345,302,422,1
256,83,41,174,1
599,42,380,164,1
177,58,87,395,1
102,281,220,173,1
38,124,171,27,1
61,40,54,11,1
151,10,235,25,1
239,12,71,278,1
132,9,141,75,1
62,140,323,372,1
99,46,244,457,1
251,70,37,240,1
257,179,576,473,1
210,213,282,145,1
4,91,481,503,1
266,157,78,524,1
158,310,372,210,1
218,13,565,140,1
319,113,361,246,1
244,95,463,242,1
346,6,492,40,1
744,288,593,299,1
163,294,61,460,1
116,114,317,416,1
94,85,337,79,1
192,77,19,41,1
81,88,16,694,1
88,26,103,380,1
362,43,202,439,1
60,75,856,61,1
17,258,653,64,1
346,80,719,253,1
220,293,360,71,1
249,77,347,366,1
98,17,270,184,1
200,121,217,121,1
221,143,379,45,1
180,17,98,190,1
495,496,884,508,1
36,196,143,21,1
91,22,698,464,1
344,320,227,202,1
230,38,512,297,1
210,221,44,108,1
137,119,422,656,1
196,106,192,242,1
392,151,796,11,1
213,302,839,72,1
72,232,122,101,1
86,130,140,146,1
267,514,435,147,1
147,237,149,54,1
336,67,236,115,1
272,245,435,219,1
181,203,315,331,1
124,493,632,681,1
64,145,467,220,1
90,119,89,78,1
151,198,137,135,1
297,96,322,56,1
11,154,238,469,1
286,48,463,302,1
159,65,28,372,1
20,220,26,11,1
220,241,632,78,1
325,298,232,378,1
174,281,423,67,1
35,114,26,353,1
276,332,0,386,1
35,169,76,125,1
9,33,81,24,1
50,304,103,14,1
0,35,377,14,1
144,167,568,408,1
442,127,32,259,1
12,262,372,598,1
23,200,11,434,1
156,95,152,36,1
285,109,474,317,1
278,296,275,205,1
22,57,36,215,1
497,392,344,258,1
139,409,191,10,1
202,397,607,414,1
262,405,95,23,1
98,60,18,301,1
445,39,712,168,1
25,31,92,312,1
373,122,1008,560,1
352,295,576,57,1
246,47,196,224,1
135,361,2,182,1
281,121,37,49,1
246,126,144,293,1
163,189,136,191,1
356,111,451,157,1
347,133,80,112,1
143,150,261,110,1
93,473,9,160,1
306,278,187,113,1
270,181,50,549,1
333,409,102,256,1
268,93,234,12,1
87,206,813,397,1
56,41,208,4,1
172,198,197,23,1
361,278,5,70,1
36,79,548,395,1
193,260,139,245,1
142,146,575,69,1
59,99,209,31,1
163,105,99,13,1
33,268,32,169,1
293,44,103,2,1
188,227,28,172,1
63,138,0,47,1
489,553,115,14,1
4,243,431,42,1
315,182,436,27,1
23,11,111,323,1
48,16,271,182,1
313,209,293,259,1
170,46,303,34,1
204,78,470,64,1
141,199,465,166,1
170,28,0,43,1
262,242,337,104,1
7,42,460,132,1
351,75,139,115,1
382,266,1,228,1
126,117,262,580,1
218,86,656,375,1
153,173,321,205,1
218,261,37,112,1
159,63,14,140,1
53,199,89,147,1
276,233,421,533,1
12,123,426,278,1
262,111,69,108,1
68,41,186,66,1
46,90,241,14,1
429,40,151,178,1
6,380,41,114,1
140,169,20,6,1
96,37,81,21,1
16,87,246,6,1
217,138,97,552,1
205,33,0,18,1
123,81,167,355,1
33,163,68,441,1
56,28,9,124,1
356,304,0,78,1
81,46,87,314,1
405,135,59,284,1
187,83,128,16,1
89,60,133,58,1
162,12,181,293,1
120,57,46,130,1
189,210,249,417,1
339,209,219,54,1
132,12,306,303,1
279,302,645,323,1
210,203,340,148,1
248,300,74,238,1
150,191,95,295,1
317,129,94,20,1
291,183,260,139,1
41,33,151,375,1
253,57,114,31,1
9,167,398,79,1
39,115,85,6,1
148,193,391,166,1
14,8,0,202,1
150,238,121,79,1
237,157,286,451,1
9,150,40,144,1
212,139,117,89,1
26,7,120,12,1
180,277,54,132,1
99,61,0,193,1
15,35,120,316,1
282,159,281,265,1
281,169,87,24,1
91,209,420,260,1
104,118,476,29,1
142,11,18,143,1
459,200,304,21,1
226,111,122,213,1
161,108,356,239,1
24,211,44,168,1
281,56,53,293,1
490,152,39,67,1
96,30,371,365,1
118,201,107,25,1
6,6,27,84,1
13,56,72,3,1
167,67,97,105,1
10,59,144,224,1
334,119,4,40,1
125,10,352,47,1
66,52,139,52,1
182,88,248,105,1
6,5,86,264,1
130,423,184,170,1
4,296,10,131,1
118,401,199,76,1
121,301,170,117,1
51,307,34,90,1
278,234,137,130,1
27,61,29,85,1
39,159,115,4,1
119,25,69,310,1
81,89,154,159,1
68,40,313,128,1
88,112,52,256,1
116,94,319,517,1
207,210,57,8,1
121,122,386,169,1
94,86,185,100,1
239,240,17,41,1
78,131,1,105,1
114,75,154,261,1
114,81,107,29,1
126,25,31,160,1
44,9,27,63,1
48,21,14,102,1
248,7,107,252,1
75,46,270,456,1
188,125,339,36,1
86,68,27,147,1
14,37,85,55,1
198,224,38,60,1
146,160,0,9,1
165,126,77,32,1
160,249,48,39,1
0,199,22,142,1
46,163,174,200,1
6,185,83,189,1
136,193,32,186,1
2,52,18,151,1
90,115,42,38,1
193,264,20,61,1
24,22,63,5,1
214,64,27,119,1
116,59,61,45,1
143,20,88,13,1
149,131,183,159,1
70,68,30,189,1
167,145,200,124,1
29,185,65,147,1
5,105,79,3,1
190,95,57,79,1
19,157,137,125,1
10,120,38,73,1
53,63,129,47,1
226,146,90,143,1
107,134,113,117,1
124,213,0,26,1
114,98,59,69,1
30,36,95,47,1
28,41,8,58,1
223,305,61,74,1
45,132,50,32,1
158,142,117,205,1
163,167,31,11,1
17,11,101,120,1
155,50,0,47,1
178,145,42,3,1
160,51,34,63,1
107,29,29,54,1
57,7,0,64,1
229,255,3,58,1
27,67,0,2,1
185,77,59,102,1
37,34,0,1,1
0,40,21,21,1
261,182,78,75,1
1,27,0,5,1
175,14,70,143,1
95,75,25,8,1
57,79,78,13,1
173,247,0,45,1
54,87,18,9,1
241,31,5,89,1
75,106,13,35,1
14,89,12,22,1
139,164,52,87,1
66,42,0,5,1
213,243,43,73,1
194,89,28,1,1
29,30,58,88,1
94,68,14,47,1
41,140,49,1,1
294,314,105,105,1
45,69,51,24,1
48,9,106,46,1
153,184,21,8,1
117,45,2,13,1
200,69,14,105,1
109,90,35,27,1
28,49,19,72,1
235,86,77,86,1
50,93,0,20,1
145,60,86,123,1
103,60,2,19,1
1,25,0,2,1
186,175,124,80,1
8,18,61,1,1
145,141,40,87,1
86,8,27,73,1
65,58,14,44,1
319,191,98,110,1
31,48,9,41,1
206,192,112,139,1
118,6,16,1,1
7,12,30,25,1
223,17,92,152,1
146,192,0,56,1
201,91,93,67,1
68,75,14,4,1
32,51,118,79,1
302,245,57,67,1
102,191,32,33,1
115,133,19,85,1
147,49,0,32,1
7,39,28,8,1
250,119,135,167,1
102,151,80,61,1
213,135,113,131,1
130,169,55,28,1
35,116,10,21,1
180,150,15,56,1
66,5,1,11,1
86,78,16,48,1
73,92,4,100,1
91,46,79,9,1
172,125,92,141,1
99,290,107,41,1
47,14,99,145,1
106,99,145,86,1
14,23,26,150,1
251,190,181,177,1
17,194,78,16,1
215,169,0,59,1
102,66,99,101,1
15,73,51,5,1
255,39,180,96,1
125,63,83,155,1
212,137,414,124,1
88,74,101,90,1
83,170,194,141,1
146,56,20,98,1
22,45,76,218,1
117,26,94,116,1
167,137,16,230,1
8,41,85,270,1
203,124,41,272,1
2,24,4,213,1
326,212,15,123,1
55,215,12,104,1
95,68,6,183,1
139,139,185,321,1
12,96,77,110,1
131,324,312,164,1
287,410,84,114,1
137,16,176,126,1
119,271,93,406,1
222,129,71,98,1
156,218,60,61,1
53,205,176,100,1
128,70,88,63,1
181,76,3,196,1
56,47,104,17,1
49,50,115,365,1
144,149,160,221,1
100,12,170,55,1
305,173,94,15,1
103,32,406,7,1
180,170,103,6,1
205,69,426,112,1
40,236,91,197,1
390,265,66,234,1
40,17,0,147,1
264,130,51,185,1
149,149,104,111,1
63,140,75,177,1
126,216,178,63,1
69,8,13,73,1
235,140,127,42,1
79,51,155,132,1
13,21,78,348,1
178,65,160,290,1
117,8,370,95,1
88,36,108,187,1
224,65,289,157,1
131,52,52,139,1
199,133,638,12,1
19,127,36,450,1
145,15,253,177,1
56,14,29,259,1
36,44,0,286,1
49,15,4,172,1
132,70,65,23,1
191,206,366,160,1
154,189,86,252,1
12,185,317,595,1
122,224,545,62,1
1,167,216,303,1
210,241,562,180,1
32,63,446,181,1
175,33,297,411,1
33,230,8,242,1
60,19,42,164,1
258,127,733,48,1
202,382,0,725,1
7,349,181,442,1
248,241,105,136,1
98,138,182,96,1
267,274,24,278,1
270,169,333,269,1
26,77,357,6,1
405,104,39,226,1
48,55,578,358,1
342,429,281,88,1
46,158,56,50,1
198,208,43,317,1
44,86,110,440,1
156,147,100,61,1
288,146,245,7,1
9,35,17,37,1
43,171,469,249,1
205,182,472,59,1
134,55,408,657,1
304,68,570,812,1
181,51,250,312,1
316,9,0,228,1
428,225,405,49,1
35,222,266,423,1
17,50,637,12,1
62,87,472,586,1
180,304,348,63,1
191,34,958,171,1
270,223,270,224,1
199,8,360,18,1
136,204,165,15,1
182,139,10,112,1
150,436,69,185,1
91,35,129,76,1
440,195,296,702,1
244,238,141,27,1
432,297,69,322,1
6,52,86,110,1
127,235,431,235,1
52,76,332,154,1
27,118,875,680,1
289,64,351,780,1
251,15,343,208,1
30,96,608,254,1
233,179,89,243,1
183,50,462,239,1
297,464,714,393,1
246,255,275,667,1
27,132,682,259,1
60,232,100,233,1
124,121,549,1023,1
217,87,208,373,1
272,126,184,425,1
75,358,74,219,1
113,508,265,108,1
146,11,47,203,1
344,111,216,26,1
365,30,135,227,1
44,53,246,59,1
254,122,570,543,1
358,105,202,207,1
151,82,123,273,1
44,105,189,91,1
43,190,313,103,1
109,169,330,277,1
156,231,647,360,1
250,245,588,240,1
87,223,189,256,1
162,25,46,26,1
149,225,239,245,1
167,514,564,464,1
35,273,571,180,1
312,168,787,310,1
94,238,141,347,1
405,243,317,53,1
82,72,200,301,1
122,115,309,466,1
364,257,977,877,1
221,139,871,367,1
219,67,535,243,1
137,817,536,9,1
85,631,199,396,1
520,355,664,565,1
117,97,733,699,1
196,251,102,241,1
152,73,926,224,1
173,404,857,393,1
71,85,169,91,1
202,13,21,382,1
169,54,365,262,1
43,46,54,226,1
107,68,1023,32,1
153,270,565,334,1
221,126,35,1,1
43,220,168,297,1
6,66,534,283,1
143,113,752,599,1
3,283,245,37,1
127,183,100,23,1
86,482,226,321,1
36,301,617,262,1
245,351,280,551,1
167,311,340,511,1
11,37,139,494,1
206,220,1023,1023,1
87,143,830,85,1
48,12,489,640,1
382,256,603,153,1
96,97,566,226,1
237,176,665,566,1
87,154,234,53,1
355,65,490,119,1
464,439,228,137,1
6,213,499,404,1
245,224,83,54,1
220,257,66,78,1
132,240,640,776,1
207,116,428,220,1
241,350,891,624,1
81,383,422,381,1
122,43,718,332,1
5,29,546,306,1
239,456,71,544,1
22,214,143,287,1
474,163,410,368,1
54,94,166,43,1
19,21,384,18,1
314,445,582,88,1
107,142,145,468,1
172,211,199,289,1
468,311,313,283,1
186,28,288,48,1
485,268,803,213,1
200,302,33,82,1
80,140,446,158,1
63,71,327,234,1
136,62,125,253,1
164,137,106,233,1
149,37,658,64,1
52,103,203,130,1
110,201,117,238,1
11,43,74,76,1
208,138,296,672,1
3,77,673,484,1
86,50,712,61,1
367,19,293,37,1
136,191,123,107,1
270,241,238,210,1
174,146,41,19,1
165,186,141,77,1
140,335,336,245,1
183,6,439,245,1
317,202,174,6,1
79,34,200,230,1
292,138,12,99,1
205,90,448,173,1
33,18,375,32,1
472,245,340,182,1
113,92,10,151,1
242,150,590,220,1
281,96,663,266,1
310,323,683,156,1
320,185,78,441,1
153,307,789,536,1
161,45,128,83,1
7,24,651,8,1
46,134,260,111,1
475,596,507,156,1
248,258,294,11,1
49,7,412,132,1
188,126,234,66,1
133,38,722,310,1
216,211,162,95,1
40,42,492,549,1
173,165,403,75,1
87,165,255,328,1
0,135,561,492,1
437,510,351,239,1
208,250,106,28,1
521,170,340,353,1
157,48,49,98,1
2,189,334,215,1
294,252,615,21,1
287,73,347,142,1
14,244,78,337,1
122,49,8,35,1
28,42,353,134,1
130,334,1023,255,1
42,318,622,486,1
463,99,77,279,1
81,171,26,299,1
233,217,202,401,1
364,396,39,199,1
50,141,130,345,1
429,157,166,198,1
91,259,321,140,1
5,18,77,38,1
236,221,40,14,1
2,85,571,285,1
146,298,324,391,1
7,29,367,46,1
84,97,164,170,1
297,115,299,173,1
2,53,221,5,1
193,197,153,231,1
339,406,163,226,1
195,284,305,726,1
488,377,584,348,1
57,80,201,52,1
314,181,331,109,1
164,235,180,145,1
122,399,171,191,1
379,369,402,430,1
329,96,155,226,1
100,207,98,100,1
348,136,74,7,1
289,125,401,243,1
322,357,412,196,1
246,137,57,91,1
198,329,423,187,1
63,457,416,335,1
120,341,130,339,1
430,551,586,438,1
98,253,69,156,1
95,183,231,471,1
151,150,369,752,1
73,69,33,20,1
184,113,263,5,1
171,11,121,4,1
156,231,4,33,1
194,260,100,131,1
11,9,3,110,1
360,225,118,544,1
3,77,24,413,1
82,56,226,216,1
339,597,586,142,1
150,113,375,286,1
260,192,132,132,1
177,6,40,189,1
434,374,72,12,1
125,193,251,24,1
13,73,95,91,1
272,222,141,505,1
258,110,108,251,1
99,165,49,37,1
251,166,53,17,1
6,33,191,119,1
522,149,260,294,1
297,238,28,97,1
135,142,338,138,1
110,18,136,23,1
13,246,186,376,1
55,47,2,120,1
19,20,262,69,1
74,70,97,33,1
119,116,86,34,1
179,29,383,94,1
234,91,231,58,1
31,182,10,330,1
191,7,237,119,1
233,179,194,56,1
0,11,339,336,1
239,42,81,263,1
176,193,319,89,1
311,45,72,31,1
150,175,23,133,1
30,502,83,252,1
286,286,77,7,1
193,239,71,32,1
122,21,35,135,1
284,84,142,70,1
18,93,135,86,1
26,58,197,77,1
134,370,157,180,1
93,93,0,184,1
50,78,146,203,1
165,48,92,85,1
111,184,102,29,1
48,84,330,45,1
65,7,229,325,1
262,185,428,359,1
4,93,168,277,1
98,104,138,562,1
173,180,531,617,1
223,169,12,82,1
107,71,354,254,1
19,152,52,62,1
173,216,96,122,1
189,63,137,98,1
183,285,20,66,1
10,82,237,174,1
103,71,54,41,1
281,30,13,26,1
101,59,66,216,1
121,239,250,284,1
185,210,231,108,1
144,316,249,259,1
109,251,9,166,1
71,172,58,9,1
275,204,3,40,1
181,189,58,124,1
54,75,2,63,1
231,202,41,5,1
61,13,210,186,1
17,29,0,67,1
136,9,8,92,1
63,62,193,202,1
313,270,117,340,1
155,105,120,140,1
36,244,340,179,1
38,102,0,112,1
5,36,587,322,1
322,322,190,121,1
43,18,90,132,1
85,67,167,226,1
147,114,305,132,1
89,29,274,334,1
107,244,255,70,1
15,78,112,145,1
85,260,39,128,1
133,95,99,7,1
39,7,69,6,1
191,171,259,187,1
98,70,141,179,1
158,37,56,1,1
182,140,327,140,1
43,171,60,27,1
254,121,65,114,1
80,73,136,16,1
125,102,248,242,1
198,134,261,207,1
17,134,157,12,1
110,32,197,46,1
14,275,14,48,1
47,24,170,121,1
69,59,95,55,1
3,131,131,51,1
304,163,52,122,1
129,15,8,22,1
83,43,68,45,1
110,100,0,58,1
19,15,41,32,1
121,15,18,2,1
166,97,35,86,1
64,113,32,114,1
31,94,134,193,1
192,145,73,10,1
135,37,33,5,1
8,59,0,33,1
354,264,28,15,1
131,41,12,52,1
152,134,0,23,1
227,82,79,44,1
95,73,0,55,1
12,90,72,74,1
74,39,43,46,1
7,108,32,94,1
186,13,125,183,1
42,81,0,77,1
143,114,70,111,1
72,183,56,56,1
1,36,0,106,1
196,33,187,272,1
50,13,0,145,1
126,197,67,246,1
61,29,0,39,1
14,82,0,53,1
182,14,17,47,1
66,19,106,67,1
108,39,104,144,1
220,146,172,61,1
56,37,55,48,1
230,185,102,115,1
47,9,0,1,1
138,140,11,5,1
163,60,63,35,1
25,123,37,35,1
128,18,227,92,1
9,67,24,166,1
121,41,315,136,1
237,128,63,42,1
67,25,110,82,1
216,207,62,30,1
4,115,5,52,1
234,74,2,2,1
113,154,150,138,1
45,149,57,65,1
301,276,110,221,1
59,122,75,2,1
167,36,75,52,1
139,65,0,88,1
28,57,38,72,1
172,12,97,135,1
2,80,71,8,1
96,126,25,131,1
15,11,54,146,1
102,114,45,67,1
184,147,27,55,1
38,87,116,53,1
132,49,43,161,1
110,138,213,131,1
6,20,85,106,1
268,122,154,385,1
185,238,329,250,1
108,91,0,150,1
68,14,140,182,1
32,37,95,57,1
173,58,122,178,1
95,127,30,22,1
159,127,137,112,1
279,373,53,12,1
97,110,0,256,1
204,87,0,235,1
153,132,18,45,1
105,100,194,73,1
4,15,48,7,1
31,91,26,145,1
37,60,8,115,1
1,47,59,267,1
4,250,19,19,1
268,258,175,184,1
12,45,146,275,1
197,59,297,140,1
97,33,37,150,1
37,299,192,64,1
50,46,69,120,1
32,127,0,238,1
470,61,59,184,1
211,7,0,93,1
155,6,49,130,1
72,120,0,6,1
91,15,206,421,1
147,81,317,81,1
128,58,184,366,1
214,43,355,206,1
228,38,32,24,1
17,9,120,12,1
186,189,298,63,1
265,350,0,123,1
9,135,108,133,1
181,51,195,196,1
170,16,114,3,1
213,185,1,329,1
142,93,174,163,1
180,201,193,211,1
56,22,70,52,1
63,190,150,248,1
191,111,312,201,1
74,47,276,8,1
167,188,70,286,1
115,77,201,166,1
2,72,224,27,1
361,95,30,25,1
163,179,424,58,1
39,78,8,25,1
55,39,37,288,1
7,238,95,365,1
561,38,370,340,1
311,470,246,266,1
153,38,323,242,1
65,236,0,355,1
108,89,202,206,1
129,13,281,84,1
61,15,19,107,1
82,147,0,211,1
65,53,113,238,1
58,46,179,39,1
432,79,9,62,1
194,209,101,20,1
221,130,43,231,1
63,33,215,7,1
48,119,113,66,1
491,124,572,96,1
187,113,0,521,1
119,351,684,293,1
94,107,1,353,1
46,13,489,142,1
332,161,5,17,1
27,211,362,273,1
232,37,4,698,1
212,59,474,214,1
73,93,118,433,1
314,21,204,245,1
55,166,365,237,1
213,165,323,34,1
321,137,96,185,1
114,89,101,311,1
284,218,22,430,1
174,23,50,246,1
155,23,11,72,1
158,149,339,362,1
67,195,342,12,1
225,94,115,442,1
30,90,391,461,1
210,126,464,7,1
27,64,28,226,1
158,212,207,175,1
262,264,21,348,1
226,259,649,175,1
200,57,18,727,1
372,300,1023,27,1
78,117,525,470,1
100,134,582,434,1
44,177,449,241,1
9,93,212,73,1
15,231,266,67,1
141,151,387,262,1
403,289,449,107,1
112,121,309,151,1
194,351,323,52,1
211,80,91,197,1
76,280,635,278,1
96,158,439,38,1
171,10,557,47,1
189,251,548,17,1
87,54,89,239,1
143,185,9,532,1
329,102,145,72,1
18,77,684,249,1
36,82,109,188,1
218,111,479,101,1
9,160,424,82,1
214,178,4,56,1
282,406,577,600,1
101,605,57,231,1
26,113,612,476,1
171,84,256,469,1
371,187,96,25,1
144,9,811,108,1
184,7,51,269,1
216,46,576,160,1
124,61,285,594,1
189,238,63,72,1
284,43,476,42,1
12,93,264,32,1
32,9,202,52,1
188,42,401,167,1
452,280,51,882,1
251,54,749,680,1
63,109,1023,20,1
159,75,152,255,1
335,147,1023,763,1
131,358,483,129,1
207,69,755,181,1
406,123,866,83,1
14,55,264,493,1
337,275,540,420,1
55,63,825,26,1
12,113,69,317,1
75,107,5,399,1
334,122,246,180,1
24,135,128,515,1
346,139,167,407,1
306,19,374,246,1
177,213,145,105,1
151,223,485,84,1
152,34,1023,219,1
534,186,1023,367,1
155,100,87,261,1
217,19,73,123,1
6,32,449,307,1
252,13,198,197,1
315,131,256,296,1
91,16,382,528,1
20,207,264,621,1
215,284,464,377,1
32,85,668,125,1
117,352,705,460,1
112,8,588,441,1
94,373,1023,806,1
236,265,106,56,1
394,17,136,616,1
37,283,134,517,1
272,26,929,646,1
271,127,272,4,1
358,57,930,340,1
104,230,63,116,1
135,161,895,384,1
11,381,691,41,1
326,212,573,170,1
374,348,353,423,1
212,104,190,206,1
186,405,189,747,1
268,266,410,55,1
128,179,108,517,1
30,81,176,144,1
127,139,583,1023,1
438,378,37,678,1
206,165,788,472,1
304,127,242,73,1
528,661,1023,1023,1
138,24,103,864,1
132,208,818,2,1
162,195,94,108,1
88,67,54,271,1
379,77,552,605,1
169,86,121,714,1
307,146,690,613,1
142,38,300,831,1
586,190,506,4,1
512,152,1023,129,1
51,24,794,442,1
18,335,873,125,1
118,105,948,415,1
17,27,128,157,1
44,65,1023,368,1
102,157,114,189,1
302,15,494,128,1
86,139,441,654,1
319,15,152,344,1
222,193,46,339,1
35,67,5,452,1
318,224,272,149,1
38,251,791,582,1
58,27,350,3,1
86,52,11,326,1
223,33,639,261,1
145,315,873,791,1
25,75,272,251,1
9,185,355,917,1
6,10,0,78,1
1,156,18,51,1
255,23,536,66,1
216,116,240,87,1
1,235,332,504,1
65,166,439,291,1
306,70,638,518,1
227,277,421,159,1
8,86,71,184,1
176,33,0,129,1
309,75,413,132,1
82,25,263,8,1
155,112,18,468,1
108,75,366,116,1
219,115,346,152,1
143,28,12,173,1
18,15,604,487,1
359,108,90,203,1
117,143,677,309,1
252,114,583,352,1
199,10,440,684,1
77,139,118,72,1
284,115,823,153,1
9,261,54,357,1
128,158,34,252,1
21,164,337,21,1
53,51,468,139,1
545,442,50,334,1
20,196,554,209,1
253,234,161,19,1
21,134,241,38,1
184,112,340,366,1
36,90,250,40,1
130,13,0,26,1
175,100,20,216,1
114,12,503,157,1
209,184,357,303,1
494,192,133,66,1
388,188,78,2,1
204,47,353,192,1
116,77,119,186,1
174,6,111,241,1
451,223,208,260,1
117,59,325,482,1
6,117,499,74,1
132,79,34,34,1
171,334,0,314,1
219,249,0,304,1
250,15,504,568,1
97,158,766,114,1
184,158,322,37,1
146,142,139,42,1
230,77,657,177,1
221,50,432,165,1
74,61,179,203,1
316,17,279,275,1
248,18,128,3,1
460,187,134,131,1
163,86,177,146,1
172,113,242,1023,1
179,54,145,375,1
75,153,52,16,1
157,24,130,259,1
84,59,120,194,1
8,448,223,43,1
171,486,329,20,1
306,255,130,624,1
315,152,86,81,1
67,17,238,2,1
129,398,343,39,1
33,149,156,85,1
42,56,806,114,1
180,124,232,293,1
249,13,91,240,1
81,51,331,328,1
158,181,359,154,1
40,65,0,85,1
285,231,207,189,1
15,162,9,255,1
383,191,240,266,1
13,41,467,390,1
57,125,153,41,1
254,186,295,322,1
148,49,311,86,1
155,214,265,195,1
173,203,241,416,1
44,89,221,240,1
174,163,672,101,1
74,74,325,281,1
91,14,119,237,1
206,115,0,8,1
175,20,475,414,1
116,108,333,413,1
6,35,188,266,1
148,162,74,36,1
416,69,134,35,1
84,149,447,154,1
4,7,92,226,1
23,18,203,610,1
93,201,127,7,1
180,154,66,65,1
22,71,339,507,1
130,254,8,490,1
11,184,193,14,1
35,63,210,62,1
1,48,223,212,1
10,140,262,140,1
329,324,235,131,1
147,30,805,268,1
36,61,442,195,1
224,191,136,163,1
7,113,464,162,1
191,586,176,143,1
164,212,260,265,1
32,119,260,286,1
116,248,131,310,1
75,148,448,550,1
256,102,171,31,1
29,7,122,165,1
292,301,9,91,1
65,21,0,3,1
176,148,160,180,1
262,111,312,738,1
181,26,395,663,1
5,118,504,88,1
10,17,121,161,1
67,116,301,11,1
304,226,73,190,1
24,303,165,139,1
3,200,387,142,1
285,267,128,34,1
193,130,685,261,1
63,61,30,7,1
324,248,68,12,1
62,216,79,35,1
127,86,132,77,1
7,98,0,34,1
400,129,167,32,1
215,198,142,132,1
282,149,78,186,1
270,150,358,211,1
186,181,50,162,1
63,57,220,329,1
81,28,126,5,1
127,48,95,67,1
61,18,67,108,1
5,293,11,7,1
5,284,241,135,1
55,45,7,2,1
13,233,279,292,1
273,172,69,34,1
134,7,350,218,1
298,66,271,4,1
19,47,169,206,1
174,178,264,198,1
187,84,41,89,1
1,37,135,211,1
46,25,178,107,1
39,29,225,272,1
145,55,319,77,1
148,79,175,95,1
4,29,71,115,1
290,128,2,79,1
14,33,94,40,1
2,146,0,148,1
66,115,6,36,1
65,95,78,185,1
142,21,42,47,1
95,95,23,41,1
19,63,126,97,1
140,52,237,125,1
7,8,36,109,1
176,115,238,372,1
6,19,0,43,1
51,136,75,92,1
106,7,83,158,1
157,45,29,81,1
142,83,0,70,1
69,78,0,92,1
35,153,28,24,1
229,8,0,129,1
116,197,72,87,1
247,191,50,35,1
177,205,80,59,1
92,123,16,92,1
90,233,29,5,1
37,91,58,121,1
119,80,108,52,1
148,48,20,33,1
15,58,223,44,1
93,46,107,279,1
49,9,66,5,1
322,86,216,159,1
159,15,0,2,1
91,33,167,31,1
12,141,19,37,1
77,24,17,134,1
10,92,0,163,1
75,112,110,76,1
165,97,39,66,1
15,43,70,112,1
96,79,0,16,1
144,48,130,127,1
29,108,0,16,1
0,91,47,86,1
99,13,23,3,1
35,50,80,99,1
348,87,45,107,1
11,19,6,1,1
171,78,86,18,1
181,126,25,122,1
130,14,6,70,1
137,6,149,76,1
205,103,93,10,1
82,15,151,148,1
138,103,60,17,1
125,131,72,61,1
350,298,45,64,1
254,152,119,86,1
119,189,14,16,1
168,296,235,208,1
10,21,54,11,1
230,121,125,176,1
70,82,49,9,1
133,104,0,2,1
178,179,101,155,1
36,27,90,34,1
178,107,206,183,1
166,66,39,48,1
59,45,65,167,1
115,19,22,8,1
0,97,46,96,1
156,30,146,117,1
98,18,0,1,1
20,8,54,122,1
203,12,47,11,1
125,94,18,100,1
169,92,52,21,1
20,58,0,21,1
85,103,5,6,1
205,136,19,33,1
79,28,44,65,1
18,34,47,35,1
53,14,108,82,1
14,34,34,52,1
104,36,34,77,1
61,36,83,57,1
353,242,58,16,1
21,10,2,2,1
60,23,223,115,1
199,85,26,7,1
9,8,72,24,1
108,119,33,62,1
34,145,3,114,1
116,72,37,38,1
179,15,79,178,1
14,138,55,3,1
229,190,126,63,1
78,55,137,196,1
3,18,107,54,1
237,115,40,27,1
52,93,4,79,1
283,146,59,60,1
29,72,46,15,1
26,37,116,125,1
107,82,213,27,1
37,104,255,290,1
287,184,500,51,1
155,184,100,349,1
260,40,212,224,1
187,50,18,113,1
7,54,25,117,1
84,39,60,82,1
76,93,52,4,1
22,95,60,26,1
98,136,98,118,1
35,61,97,87,1
64,142,60,39,1
57,303,251,136,1
83,21,23,8,1
112,133,308,59,1
163,165,30,219,1
60,28,247,223,1
65,130,246,119,1
114,22,154,160,1
368,110,293,108,1
3,78,45,3,1
311,204,57,41,1
11,141,50,62,1
58,88,0,61,1
88,71,115,6,1
26,56,67,29,1
133,169,220,92,1
206,130,28,144,1
142,10,46,345,1
94,47,0,142,1
13,185,142,57,1
231,35,40,399,1
25,52,162,95,1
70,237,273,228,1
27,335,19,4,1
65,48,0,259,1
99,51,218,220,1
213,127,71,1,1
31,53,39,333,1
190,13,347,225,1
84,8,140,19,1
177,175,389,301,1
260,454,184,105,1
42,23,74,167,1
237,287,42,113,1
42,48,377,295,1
234,314,130,195,1
0,190,237,150,1
40,51,179,132,1
138,184,209,50,1
64,6,269,314,1
169,41,166,265,1
105,213,336,346,1
154,98,407,5,1
100,11,201,453,1
37,32,321,121,1
154,7,351,613,1
270,146,414,406,1
33,253,175,168,1
142,124,243,146,1
47,210,116,432,1
274,147,22,167,1
66,9,308,209,1
96,22,117,98,1
289,186,322,66,1
6,256,156,189,1
64,213,225,307,1
29,79,283,119,1
113,57,55,10,1
276,37,205,266,1
8,101,210,104,1
398,390,257,419,1
257,204,453,22,1
8,120,218,779,1
169,348,482,233,1
7,102,3,417,1
232,57,668,361,1
119,244,328,482,1
244,246,565,124,1
70,80,254,389,1
8,53,389,260,1
468,343,375,141,1
381,87,161,229,1
93,195,273,65,1
178,90,619,213,1
110,94,144,60,1
132,235,418,101,1
226,356,378,54,1
125,83,440,252,1
127,35,366,174,1
90,59,29,222,1
114,387,60,194,1
110,310,439,67,1
0,84,362,632,1
309,53,661,354,1
112,145,162,480,1
164,222,763,161,1
87,20,456,238,1
67,108,187,145,1
34,75,3,98,1
267,70,7,73,1
129,370,113,14,1
220,212,20,103,1
13,10,384,440,1
464,113,43,10,1
361,51,355,131,1
70,77,497,209,1
44,18,774,191,1
242,30,524,257,1
234,190,245,76,1
36,36,125,203,1
453,385,0,142,1
203,311,117,126,1
130,219,145,92,1
144,355,383,128,1
164,7,4,347,1
186,62,148,249,1
389,132,190,333,1
255,291,465,652,1
195,443,163,165,1
59,13,1019,217,1
447,79,495,539,1
197,190,558,21,1
6,268,516,355,1
124,105,258,139,1
81,95,574,681,1
363,103,405,357,1
324,256,327,166,1
18,40,182,321,1
264,127,41,186,1
110,9,314,278,1
127,219,568,224,1
213,52,273,595,1
60,145,292,579,1
101,13,304,369,1
112,20,0,59,1
362,229,411,349,1
136,139,23,115,1
403,147,473,16,1
512,113,110,90,1
402,205,318,173,1
175,352,595,510,1
136,112,297,225,1
122,74,824,413,1
193,295,657,418,1
174,235,555,15,1
4,103,776,332,1
85,14,34,41,1
95,145,99,521,1
304,199,63,331,1
197,20,112,259,1
63,226,6,116,1
51,73,46,181,1
7,186,309,395,1
272,198,193,559,1
230,73,416,561,1
247,249,618,133,1
208,96,59,199,1
12,124,169,221,1
417,225,947,69,1
354,263,323,542,1
159,175,706,340,1
432,68,220,471,1
24,102,741,1023,1
5,247,23,389,1
3,208,439,419,1
109,551,147,188,1
172,241,163,264,1
221,6,259,285,1
354,123,875,588,1
174,117,541,85,1
90,20,761,449,1
169,94,239,73,1
58,12,247,43,1
22,243,245,95,1
12,69,59,142,1
302,72,18,641,1
10,11,448,281,1
16,16,763,345,1
144,201,203,128,1
21,186,103,409,1
162,205,138,348,1
199,287,658,196,1
255,136,1023,459,1
394,159,18,2,1
63,330,956,303,1
488,76,231,274,1
305,283,307,314,1
94,12,125,484,1
316,95,653,672,1
602,211,540,313,1
114,227,261,187,1
30,72,283,267,1
44,70,235,347,1
194,175,32,312,1
13,28,305,85,1
408,216,1023,606,1
1,167,1023,429,1
17,190,106,221,1
28,143,598,78,1
111,138,12,358,1
45,130,683,843,1
122,26,111,35,1
292,267,614,407,1
61,612,348,249,1
289,104,217,118,1
100,90,152,179,1
69,34,582,101,1
21,45,86,41,1
133,89,581,146,1
24,85,264,169,1
552,410,374,182,1
270,240,21,14,1
66,87,323,64,1
144,391,186,442,1
15,108,714,1013,1
403,190,120,194,1
37,16,367,563,1
157,12,153,125,1
1,7,213,151,1
111,186,664,464,1
234,15,39,69,1
13,30,19,297,1
113,169,173,174,1
187,232,559,410,1
141,60,176,97,1
172,67,239,249,1
22,40,356,191,1
235,26,508,253,1
276,206,127,201,1
36,26,561,4,1
225,329,313,409,1
306,296,245,164,1
56,61,83,127,1
124,213,155,587,1
231,61,394,586,1
13,25,423,176,1
267,14,312,25,1
70,254,1023,109,1
120,300,390,110,1
22,152,371,119,1
111,176,21,68,1
86,274,323,131,1
104,298,285,8,1
370,242,133,8,1
237,76,655,148,1
166,135,467,312,1
243,23,286,51,1
371,122,280,36,1
306,165,152,399,1
9,155,645,327,1
277,233,598,442,1
222,104,378,440,1
30,27,140,132,1
382,287,169,40,1
72,39,97,490,1
22,200,5,90,1
74,268,220,23,1
158,79,0,67,1
469,424,558,346,1
256,89,270,372,1
230,606,1023,510,1
2,323,17,153,1
389,429,661,686,1
307,260,184,607,1
75,196,110,231,1
276,153,306,98,1
38,71,306,204,1
126,177,772,241,1
18,49,283,178,1
141,137,173,470,1
512,60,189,214,1
153,106,95,20,1
143,100,519,729,1
34,236,368,453,1
35,75,14,32,1
164,182,537,674,1
320,131,22,323,1
13,147,260,43,1
171,67,193,125,1
39,46,424,121,1
345,232,104,130,1
30,140,333,209,1
111,98,202,76,1
37,95,451,162,1
35,143,141,275,1
553,345,66,142,1
301,46,249,63,1
54,417,781,678,1
403,583,147,155,1
71,43,239,188,1
310,134,38,61,1
25,10,182,227,1
11,67,81,80,1
161,228,183,197,1
10,48,187,629,1
358,116,381,247,1
137,136,160,15,1
68,97,96,112,1
299,255,500,180,1
35,117,144,270,1
45,247,636,547,1
135,270,426,2,1
497,15,233,224,1
162,101,54,331,1
5,85,140,22,1
231,135,92,54,1
100,207,376,354,1
225,166,69,44,1
158,55,84,181,1
65,27,29,21,1
99,69,71,164,1
13,147,36,16,1
79,103,93,218,1
179,91,128,175,1
28,24,139,69,1
322,172,275,260,1
52,157,230,53,1
231,184,531,22,1
102,209,93,448,1
83,68,520,388,1
383,219,394,368,1
256,225,335,101,1
190,107,415,24,1
167,65,5,38,1
181,7,101,369,1
214,67,43,62,1
290,252,716,445,1
171,247,22,230,1
112,143,335,329,1
296,392,88,151,1
81,119,70,278,1
226,119,75,101,1
218,69,324,132,1
336,85,10,188,1
73,8,7,32,1
275,121,51,51,1
322,92,334,242,1
77,71,247,189,1
178,286,185,95,1
35,46,124,14,1
273,299,95,18,1
13,79,168,492,1
1,183,98,345,1
209,251,235,488,1
58,28,177,196,1
82,82,66,320,1
202,210,150,359,1
59,63,82,19,1
73,109,43,14,1
28,231,169,150,1
223,234,153,247,1
20,27,227,273,1
2,124,102,24,1
339,52,45,154,1
120,76,41,190,1
188,146,206,285,1
144,78,187,197,1
2,6,185,7,1
82,56,130,228,1
65,9,0,28,1
278,247,246,208,1
107,145,143,117,1
113,338,287,212,1
100,102,106,31,1
24,12,37,71,1
134,139,65,133,1
157,75,29,89,1
102,91,0,27,1
169,154,80,64,1
29,71,186,118,1
88,92,15,44,1
135,31,1,22,1
55,26,83,165,1
87,49,0,57,1
76,27,65,9,1
209,73,251,182,1
30,63,124,108,1
4,21,239,92,1
106,123,149,32,1
86,10,129,77,1
224,116,78,106,1
155,220,191,51,1
144,32,62,126,1
94,75,96,1,1
10,18,28,16,1
147,72,120,219,1
98,116,0,94,1
87,6,173,2,1
163,114,94,35,1
184,190,58,3,1
82,7,33,3,1
73,5,46,103,1
4,72,208,58,1
133,184,52,89,1
53,141,274,273,1
51,184,254,234,1
94,310,271,357,1
139,139,21,98,1
111,191,98,9,1
108,234,66,51,1
295,161,11,60,1
257,393,58,7,1
31,192,110,123,1
262,137,63,171,1
9,65,48,11,1
202,141,129,134,1
33,131,26,4,1
27,48,67,81,1
202,23,95,137,1
14,7,9,30,1
186,39,53,93,1
13,101,101,83,1
12,46,80,163,1
155,145,230,106,1
51,121,117,158,1
55,21,150,129,1
5,12,34,79,1
199,30,15,172,1
207,48,79,1,1
42,55,6,82,1
287,166,147,232,1
179,165,48,80,1
139,76,47,26,1
220,120,2,28,1
74,206,45,13,1
176,271,0,99,1
26,17,28,17,1
52,122,0,49,1
208,147,123,109,1
82,61,10,9,1
107,50,51,73,1
85,35,58,1,1
3,25,14,37,1
203,7,150,126,1
39,30,67,89,1
155,25,170,2,1
106,47,0,51,1
86,238,68,23,1
16,69,158,89,1
27,182,94,1,1
102,19,0,67,1
70,106,154,65,1
78,21,68,53,1
1,255,182,241,1
33,39,69,18,1
148,18,123,144,1
93,76,109,31,1
29,6,68,42,1
49,14,42,105,1
53,119,77,47,1
74,39,167,29,1
106,91,95,211,1
24,37,71,99,1
207,116,138,35,1
31,90,21,85,1
310,142,253,39,1
88,142,75,62,1
106,171,87,97,1
118,75,83,54,1
5,103,116,72,1
305,306,118,98,1
26,41,57,1,1
84,100,171,92,1
98,171,0,162,1
95,109,0,8,1
191,17,60,70,1
86,99,152,66,1
95,20,13,189,1
128,48,32,76,1
165,127,14,160,1
94,25,74,206,1
166,119,41,126,1
64,138,119,168,1
171,155,0,119,1
65,52,174,167,1
33,30,0,33,1
43,141,152,11,1
179,9,0,55,1
304,33,62,24,1
87,6,53,92,1
121,123,161,17,1
118,48,80,332,1
81,149,348,245,1
209,255,0,244,1
92,6,54,73,1
177,129,67,32,1
69,61,15,68,1
142,70,0,37,1
132,63,0,19,1
143,67,201,26,1
372,205,68,39,1
45,38,159,135,1
193,93,0,227,1
267,39,66,63,1
11,66,37,48,1
366,267,0,10,1
110,64,0,203,1
97,60,256,109,1
338,276,297,185,1
23,180,335,132,1
490,181,174,327,1
202,69,44,179,1
179,45,25,6,1
35,20,132,268,1
88,22,20,88,1
190,120,195,36,1
143,53,152,244,1
131,39,111,327,1
330,51,305,429,1
66,47,0,211,1
236,55,761,541,1
62,36,304,423,1
191,16,259,214,1
234,418,341,49,1
222,83,252,401,1
148,84,241,121,1
190,70,79,349,1
5,102,39,679,1
27,88,347,153,1
86,52,165,396,1
166,76,425,40,1
264,58,0,380,1
68,123,175,7,1
251,57,91,35,1
227,220,115,98,1
290,74,323,364,1
129,289,487,259,1
116,234,52,816,1
93,217,286,689,1
73,38,107,94,1
220,65,195,129,1
112,221,15,374,1
59,51,145,25,1
136,58,25,183,1
287,188,343,187,1
161,78,15,501,1
330,307,138,349,1
49,137,146,54,1
319,141,404,765,1
72,175,97,439,1
474,256,730,493,1
260,94,483,177,1
130,55,160,33,1
17,133,273,13,1
192,157,308,17,1
17,75,94,493,1
88,14,649,709,1
266,241,283,49,1
20,33,237,84,1
475,151,640,467,1
388,319,410,74,1
225,134,312,301,1
49,253,292,127,1
76,139,89,85,1
111,366,129,257,1
146,12,180,59,1
30,108,230,85,1
339,167,294,495,1
190,460,98,318,1
3,38,922,349,1
251,7,22,404,1
140,276,199,401,1
148,29,184,626,1
19,43,122,466,1
180,72,225,389,1
567,146,100,862,1
37,475,348,363,1
121,50,160,206,1
192,135,913,291,1
221,270,315,471,1
339,334,1023,477,1
27,139,132,513,1
217,60,551,70,1
185,360,210,7,1
152,169,221,405,1
16,309,33,613,1
29,318,0,246,1
277,11,285,121,1
168,134,582,485,1
109,48,175,86,1
394,257,124,805,1
274,75,288,600,1
266,143,319,336,1
349,31,411,68,1
106,7,37,55,1
111,22,465,95,1
150,172,650,46,1
75,101,345,90,1
504,228,324,51,1
245,113,387,523,1
178,185,402,221,1
157,25,177,281,1
4,67,153,543,1
176,85,792,419,1
156,274,197,403,1
86,252,134,214,1
65,174,419,66,1
244,208,70,680,1
120,207,287,21,1
147,30,36,167,1
326,326,383,245,1
212,533,728,444,1
66,190,397,925,1
314,117,45,17,1
94,18,164,155,1
114,52,417,21,1
245,198,498,540,1
501,44,497,296,1
185,195,67,526,1
60,43,419,61,1
131,217,20,51,1
78,53,174,153,1
270,119,234,39,1
689,453,702,295,1
381,24,14,433,1
69,44,1004,125,1
521,320,94,500,1
47,364,1023,204,1
105,7,786,84,1
200,11,492,956,1
331,27,364,26,1
154,202,449,450,1
46,78,960,642,1
253,179,325,800,1
14,74,0,169,1
69,147,489,78,1
44,57,750,485,1
91,77,415,322,1
90,136,24,117,1
183,62,1015,589,1
576,192,1023,545,1
403,147,1023,85,1
211,65,654,141,1
175,106,18,209,1
375,385,622,241,1
255,145,716,78,1
607,49,164,247,1
71,282,54,63,1
275,34,618,150,1
113,175,871,211,1
118,138,115,2,1
336,32,487,606,1
151,57,314,279,1
401,269,285,261,1
140,30,99,302,1
105,86,508,268,1
192,201,32,156,1
68,120,359,597,1
317,202,409,267,1
67,98,612,333,1
178,11,460,343,1
113,135,743,355,1
61,65,118,177,1
269,378,676,874,1
39,203,301,120,1
375,277,1005,761,1
73,155,1023,293,1
79,7,112,226,1
36,73,573,113,1
98,102,95,449,1
328,295,124,195,1
236,173,1023,693,1
458,90,241,264,1
19,131,1023,550,1
191,27,707,204,1
251,286,630,456,1
108,9,496,28,1
113,148,719,106,1
207,59,266,459,1
146,281,530,409,1
333,213,210,226,1
264,229,9,341,1
32,119,54,163,1
335,414,513,327,1
198,221,111,183,1
108,197,27,324,1
139,95,250,13,1
32,27,229,115,1
261,174,530,244,1
425,155,260,461,1
22,283,307,337,1
76,12,114,216,1
299,100,103,175,1
49,55,238,183,1
44,136,99,205,1
412,168,0,269,1
222,81,305,171,1
95,126,438,72,1
600,216,571,326,1
598,105,471,35,1
116,198,175,16,1
133,53,96,15,1
60,14,347,135,1
299,348,11,63,1
154,56,20,378,1
174,180,447,62,1
74,67,364,68,1
156,88,877,376,1
90,101,166,372,1
71,145,385,403,1
45,117,77,352,1
44,81,403,45,1
2,84,471,123,1
315,341,141,177,1
90,27,319,270,1
77,172,284,17,1
20,86,262,148,1
14,75,542,139,1
240,330,495,281,1
231,60,21,35,1
208,231,195,260,1
183,89,50,134,1
60,212,215,143,1
291,380,217,235,1
197,183,134,35,1
99,207,800,659,1
297,35,904,641,1
39,36,129,480,1
437,49,255,22,1
47,119,593,235,1
400,85,221,410,1
273,79,671,473,1
192,54,185,9,1
508,310,47,416,1
88,16,382,381,1
292,94,2,41,1
291,123,283,420,1
126,42,163,2,1
331,170,105,128,1
223,63,99,400,1
5,45,751,231,1
31,85,526,391,1
203,37,304,426,1
185,138,358,34,1
36,103,463,574,1
283,88,284,333,1
287,53,0,267,1
144,199,76,212,1
569,440,60,488,1
172,8,167,255,1
147,352,77,284,1
33,282,194,307,1
15,285,216,364,1
10,143,238,47,1
7,30,97,115,1
216,119,15,316,1
148,62,171,320,1
83,30,60,390,1
295,119,126,69,1
24,78,318,402,1
259,108,522,235,1
93,100,625,94,1
26,67,55,276,1
123,68,182,230,1
143,145,237,237,1
312,125,179,27,1
206,234,948,603,1
70,49,410,279,1
222,153,96,352,1
2,62,4,112,1
29,267,176,304,1
248,270,100,66,1
156,63,194,245,1
76,123,39,191,1
86,66,514,376,1
216,111,68,585,1
67,146,626,702,1
140,81,164,95,1
365,188,369,176,1
30,118,365,96,1
223,323,143,426,1
213,229,290,85,1
341,37,261,530,1
620,241,103,73,1
496,844,175,129,1
252,63,320,354,1
148,83,386,266,1
248,273,396,110,1
12,10,282,135,1
92,10,511,361,1
180,116,309,415,1
9,135,360,232,1
262,16,217,167,1
375,267,250,269,1
68,31,188,34,1
58,128,157,459,1
106,66,85,18,1
19,153,229,360,1
404,89,486,276,1
294,134,70,153,1
116,13,300,73,1
66,366,99,134,1
159,24,208,125,1
435,159,43,98,1
245,111,173,201,1
159,84,365,339,1
100,39,459,17,1
27,27,48,602,1
192,194,446,531,1
22,36,261,86,1
256,404,239,37,1
136,29,21,204,1
98,106,0,93,1
253,84,65,33,1
6,167,154,157,1
10,300,298,338,1
90,34,48,176,1
159,220,335,417,1
111,37,9,77,1
248,164,56,681,1
93,50,190,541,1
65,10,87,191,1
109,17,69,111,1
319,152,132,12,1
76,11,135,114,1
1,47,75,59,1
229,113,245,207,1
14,15,91,130,1
5,166,0,2,1
151,220,145,250,1
217,74,214,42,1
85,103,60,149,1
40,138,256,580,1
226,101,265,4,1
61,6,89,171,1
170,15,369,152,1
157,243,211,55,1
87,164,66,16,1
289,173,100,4,1
2,83,42,354,1
383,289,149,80,1
74,123,114,171,1
205,56,54,55,1
227,176,31,72,1
37,35,284,226,1
215,83,343,501,1
19,96,23,15,1
100,120,235,213,1
223,55,59,116,1
117,204,0,4,1
244,247,0,109,1
15,29,273,124,1
90,266,111,30,1
156,100,95,344,1
36,135,80,272,1
153,59,84,72,1
209,127,25,92,1
167,149,44,114,1
170,31,0,9,1
202,201,157,22,1
127,247,132,89,1
31,10,0,213,1
59,92,141,54,1
313,6,0,96,1
67,42,112,39,1
42,98,416,218,1
135,207,37,456,1
33,65,347,186,1
92,89,19,365,1
14,27,147,161,1
211,46,51,129,1
12,123,11,184,1
32,9,40,37,1
245,177,126,53,1
10,130,0,2,1
118,143,105,4,1
43,42,37,118,1
27,7,0,37,1
230,139,106,37,1
142,140,114,37,1
180,226,131,136,1
152,171,5,26,1
67,60,87,29,1
166,176,108,98,1
117,28,43,124,1
88,17,20,0,1
93,67,0,47,1
27,24,0,57,1
356,346,115,66,1
1,46,26,31,1
157,135,90,107,1
109,80,27,58,1
107,69,88,1,1
212,179,117,107,1
94,28,10,16,1
289,277,76,72,1
118,256,39,11,1
64,15,110,86,1
278,338,0,121,1
18,27,27,6,1
192,133,15,32,1
140,16,90,109,1
49,63,16,87,1
95,15,193,136,1
31,54,9,92,1
249,171,121,156,1
143,117,6,42,1
34,147,17,37,1
211,166,75,294,1
4,92,61,1,1
193,150,0,33,1
12,34,49,10,1
54,71,2,6,1
261,123,21,28,1
73,30,15,1,1
346,331,154,64,1
172,122,0,4,1
139,79,122,171,1
124,74,143,122,1
110,161,116,186,1
204,151,177,35,1
26,44,33,65,1
127,119,13,12,1
289,211,25,13,1
37,177,257,126,1
71,138,96,53,1
38,5,139,44,1
3,7,47,84,1
89,78,49,8,1
9,95,161,88,1
208,114,152,137,1
65,51,179,219,1
47,98,172,33,1
163,8,123,17,1
15,112,173,97,1
181,118,112,7,1
96,90,78,29,1
95,75,41,95,1
201,114,68,206,1
9,52,15,31,1
215,140,125,196,1
155,65,127,21,1
27,65,6,51,1
293,190,0,77,1
46,16,0,29,1
248,56,76,67,1
28,7,72,133,1
85,117,52,112,1
332,257,198,145,1
138,7,135,162,1
139,281,179,335,1
137,76,47,46,1
18,102,14,77,1
36,70,102,209,1
77,69,189,181,1
232,143,70,44,1
181,263,107,50,1
9,7,239,14,1
348,344,248,49,1
20,91,239,32,1
245,214,14,65,1
157,6,153,124,1
30,31,175,258,1
308,162,74,187,1
227,153,62,8,1
39,132,36,124,1
2,17,180,326,1
66,385,170,244,1
174,356,40,86,1
87,33,196,274,1
344,345,178,665,1
24,15,26,168,1
147,21,109,105,1
186,315,40,160,1
100,195,22,63,1
117,374,79,53,1
41,106,158,283,1
81,271,172,22,1
408,264,0,159,1
61,211,92,219,1
215,182,289,46,1
81,99,313,157,1
1,166,91,204,1
308,306,643,218,1
17,186,355,73,1
333,320,439,106,1
3,50,171,434,1
4,53,308,618,1
3,34,152,840,1
147,84,337,61,1
13,43,198,350,1
276,6,205,831,1
88,60,38,418,1
387,185,62,284,1
157,47,299,298,1
66,45,101,330,1
95,192,361,342,1
55,309,211,335,1
257,86,445,313,1
71,45,347,293,1
218,21,359,13,1
108,62,33,114,1
194,16,581,167,1
551,307,558,155,1
177,321,635,196,1
6,8,676,58,1
326,175,271,522,1
61,132,110,38,1
203,261,85,294,1
434,348,120,264,1
23,103,487,184,1
79,40,208,389,1
128,139,164,365,1
396,157,453,67,1
52,114,398,82,1
246,141,105,41,1
165,79,63,175,1
245,11,248,231,1
73,188,113,2,1
163,251,475,201,1
32,76,354,378,1
24,143,135,348,1
31,338,444,53,1
38,118,121,353,1
2,142,181,9,1
328,119,100,81,1
165,44,420,34,1
133,71,663,411,1
284,52,172,685,1
220,212,52,225,1
23,59,74,215,1
161,77,88,225,1
9,73,706,228,1
304,73,579,109,1
87,53,239,189,1
122,193,184,128,1
481,491,88,209,1
47,126,611,219,1
143,194,97,584,1
141,91,717,276,1
32,215,368,291,1
314,49,233,562,1
209,998,231,82,1
263,49,456,78,1
24,91,1,341,1
314,159,83,338,1
442,226,37,27,1
54,141,15,31,1
87,264,467,50,1
155,133,214,491,1
65,11,1023,582,1
0,182,4,265,1
37,109,927,27,1
173,430,29,122,1
117,18,499,197,1
322,94,8,390,1
78,183,14,599,1
124,107,534,766,1
288,372,184,528,1
13,18,129,201,1
232,14,221,122,1
55,35,672,106,1
82,18,245,154,1
557,390,309,557,1
155,189,47,378,1
85,305,164,15,1
104,138,743,211,1
144,93,281,290,1
231,112,177,237,1
692,127,337,171,1
223,161,223,229,1
103,186,0,612,1
163,274,267,29,1
420,78,431,845,1
209,377,317,553,1
138,93,486,286,1
194,190,381,22,1
101,61,185,438,1
437,138,357,159,1
184,187,223,4,1
501,369,820,326,1
0,53,53,136,1
225,152,172,5,1
223,211,578,466,1
221,64,4,312,1
65,140,356,253,1
153,153,631,22,1
40,60,764,45,1
18,371,98,31,1
72,107,13,379,1
553,311,304,558,1
18,230,249,55,1
181,165,9,411,1
277,395,166,102,1
265,766,823,329,1
110,136,820,44,1
300,36,538,204,1
382,147,798,144,1
468,250,697,567,1
165,44,349,220,1
354,215,837,292,1
114,26,128,104,1
44,69,555,213,1
178,200,183,804,1
117,117,1023,405,1
74,104,16,373,1
132,144,708,284,1
317,14,345,225,1
153,234,77,42,1
159,159,20,3,1
215,34,858,148,1
123,83,243,42,1
433,200,314,217,1
574,96,141,203,1
277,164,443,209,1
565,65,8,527,1
116,31,1023,159,1
88,115,413,306,1
180,208,1023,533,1
94,195,549,68,1
418,312,1023,189,1
39,113,10,59,1
41,380,57,521,1
220,298,900,57,1
49,35,353,120,1
544,43,572,447,1
354,7,547,35,1
11,82,1023,562,1
266,71,42,362,1
75,178,149,715,1
20,244,332,378,1
50,21,119,481,1
184,19,188,143,1
208,190,347,93,1
92,133,467,483,1
297,270,316,343,1
48,48,222,288,1
46,198,65,99,1
102,219,301,235,1
67,37,787,703,1
145,77,770,404,1
0,82,68,211,1
89,53,541,116,1
375,337,158,10,1
10,134,89,47,1
265,89,479,14,1
54,133,398,325,1
219,63,98,146,1
467,252,635,223,1
148,68,162,7,1
510,175,186,209,1
119,187,353,58,1
223,37,460,267,1
215,241,372,81,1
220,59,131,140,1
423,285,185,9,1
25,50,20,42,1
54,85,838,356,1
164,49,301,31,1
202,82,689,362,1
96,13,53,205,1
50,50,195,37,1
148,72,18,101,1
345,137,165,96,1
108,78,70,13,1
379,261,255,87,1
462,342,13,25,1
20,59,529,224,1
356,264,198,433,1
272,50,242,321,1
268,122,69,247,1
68,65,655,476,1
44,57,487,414,1
59,154,393,18,1
227,18,601,568,1
117,73,10,150,1
58,155,188,160,1
77,118,167,70,1
239,155,377,139,1
97,180,145,197,1
341,229,320,182,1
341,19,152,240,1
91,122,883,18,1
418,139,173,466,1
12,175,470,147,1
370,179,186,811,1
265,383,22,107,1
117,58,188,193,1
145,183,252,117,1
108,29,285,146,1
145,140,23,438,1
128,34,236,7,1
320,111,395,374,1
434,516,1023,527,1
9,38,460,218,1
87,310,188,581,1
13,85,94,158,1
110,194,388,706,1
184,172,704,133,1
201,243,299,343,1
142,256,45,158,1
78,212,62,168,1
175,88,23,361,1
331,258,216,20,1
155,229,475,341,1
301,200,71,497,1
125,316,347,490,1
302,80,302,17,1
162,297,168,401,1
161,43,29,392,1
119,151,0,71,1
288,92,243,162,1
90,8,349,131,1
234,162,306,7,1
36,263,236,441,1
219,152,80,20,1
201,148,231,2,1
146,47,169,104,1
166,135,618,174,1
89,105,75,161,1
359,190,227,108,1
131,6,163,240,1
16,29,168,79,1
236,199,296,89,1
77,47,185,34,1
182,8,165,122,1
48,15,169,2,1
194,186,840,578,1
259,41,845,339,1
162,95,109,11,1
239,14,420,720,1
15,39,493,282,1
149,103,34,307,1
257,112,48,58,1
111,160,43,252,1
201,164,92,71,1
82,24,5,200,1
15,107,592,113,1
231,228,405,362,1
21,234,366,471,1
148,37,0,346,1
132,39,175,83,1
218,50,478,37,1
309,167,306,1,1
47,15,231,95,1
198,264,391,193,1
17,365,421,138,1
75,163,917,375,1
102,260,87,259,1
13,170,357,409,1
328,263,174,465,1
14,89,128,580,1
12,12,257,31,1
286,216,196,114,1
252,67,44,181,1
124,47,12,21,1
119,72,77,63,1
68,67,244,17,1
133,28,0,162,1
14,26,420,431,1
91,9,89,166,1
158,34,374,34,1
23,15,64,187,1
168,165,233,624,1
140,38,67,10,1
139,140,40,683,1
95,219,133,230,1
272,31,280,169,1
223,31,0,137,1
242,271,297,111,1
335,546,0,326,1
91,416,62,15,1
34,75,2,30,1
418,240,43,105,1
125,7,124,370,1
173,226,180,252,1
241,320,71,294,1
203,26,180,94,1
259,278,183,12,1
21,130,91,209,1
337,243,409,422,1
102,213,83,62,1
56,56,56,80,1
124,32,30,243,1
125,60,0,186,1
132,176,216,303,1
62,111,16,236,1
51,64,257,21,1
275,171,246,367,1
115,90,89,266,1
258,110,41,114,1
391,133,151,6,1
284,149,220,36,1
226,32,47,99,1
79,12,140,37,1
87,46,224,203,1
5,50,24,175,1
104,117,265,180,1
170,35,92,66,1
44,102,327,92,1
178,81,4,20,1
17,54,238,15,1
5,28,144,117,1
216,242,40,77,1
49,64,122,109,1
331,473,102,102,1
0,69,73,218,1
0,60,98,160,1
231,312,17,171,1
56,49,37,105,1
230,151,4,4,1
82,211,34,93,1
82,125,209,142,1
32,19,106,123,1
43,16,243,95,1
239,130,34,24,1
150,155,95,2,1
20,76,15,23,1
62,72,286,148,1
2,82,0,62,1
266,238,94,310,1
72,282,292,35,1
19,73,104,55,1
295,353,382,500,1
2,256,63,435,1
30,82,188,328,1
3,47,172,270,1
8,32,57,179,1
92,173,10,111,1
48,190,180,145,1
242,165,99,97,1
41,163,18,62,1
3,18,13,123,1
143,185,181,20,1
10,55,1,54,1
182,11,139,163,1
55,53,61,6,1
127,104,114,78,1
242,52,39,107,1
18,19,58,4,1
207,287,0,2,1
138,222,83,20,1
154,135,88,118,1
187,31,90,169,1
28,84,0,108,1
196,90,176,88,1
103,142,104,107,1
90,104,38,1,1
219,333,58,10,1
43,169,115,97,1
128,77,0,81,1
135,67,138,93,1
89,5,70,51,1
252,177,178,96,1
63,213,24,74,1
163,62,71,3,1
116,171,19,1,1
34,10,3,22,1
138,135,111,107,1
65,115,61,46,1
206,132,125,95,1
127,79,8,29,1
49,117,41,83,1
194,248,17,7,1
191,146,21,92,1
218,278,76,221,1
107,80,0,28,1
136,41,0,20,1
182,163,0,112,1
71,115,24,25,1
224,112,26,118,1
12,126,85,129,1
162,227,104,143,1
212,190,57,105,1
10,10,63,86,1
154,22,147,207,1
125,117,0,9,1
21,119,138,6,1
165,60,142,177,1
106,37,7,130,1
158,16,127,33,1
20,111,162,60,1
38,59,30,74,1
224,235,54,38,1
127,86,0,112,1
104,56,60,75,1
82,152,212,61,1
3,53,39,60,1
72,13,49,123,1
7,29,3,50,1
252,144,90,176,1
0,8,176,37,1
70,7,65,132,1
238,301,114,66,1
12,43,17,219,1
189,10,187,200,1
125,92,109,294,1
107,181,193,518,1
236,291,198,50,1
21,136,120,70,1
302,263,151,196,1
25,28,127,190,1
81,54,202,268,1
351,220,109,33,1
133,120,17,338,1
79,172,203,207,1
206,214,19,25,1
30,123,9,121,1
174,86,87,514,1
100,43,43,339,1
194,206,67,30,1
79,261,175,19,1
23,230,13,80,1
114,73,152,23,1
203,26,67,83,1
125,84,66,12,1
15,91,193,79,1
8,102,93,398,1
152,84,385,44,1
50,53,67,354,1
109,184,404,228,1
187,7,261,169,1
144,87,206,34,1
217,201,0,81,1
133,183,364,282,1
178,179,69,409,1
85,39,396,457,1
4,91,155,272,1
251,226,96,583,1
333,297,152,131,1
174,89,75,236,1
124,225,93,4,1
537,76,36,281,1
209,232,134,208,1
93,125,227,307,1
123,171,45,47,1
72,153,101,195,1
10,83,87,55,1
2,46,284,160,1
54,14,17,144,1
124,138,35,158,1
11,213,127,193,1
189,338,183,218,1
117,142,73,48,1
57,90,35,242,1
20,9,0,16,1
47,61,144,94,1
87,255,152,43,1
306,86,319,83,1
262,138,186,10,1
57,13,36,209,1
157,169,240,144,1
236,20,57,309,1
133,73,16,77,1
2,180,222,9,1
176,40,268,151,1
67,202,176,197,1
17,61,429,144,1
136,7,112,213,1
267,12,408,749,1
268,295,195,168,1
55,124,135,204,1
59,87,216,438,1
158,26,157,405,1
4,71,171,607,1
194,30,320,400,1
253,309,166,806,1
88,57,368,585,1
35,333,93,720,1
23,195,453,574,1
44,481,153,474,1
199,37,407,726,1
96,119,424,222,1
356,28,816,383,1
13,170,716,181,1
198,49,788,25,1
42,104,189,740,1
382,43,354,357,1
410,9,130,358,1
72,131,147,68,1
104,164,91,133,1
37,293,177,196,1
75,189,307,205,1
170,134,99,570,1
354,200,520,165,1
66,208,292,160,1
46,115,445,636,1
238,52,140,50,1
560,339,606,418,1
3,149,331,469,1
4,205,456,465,1
281,33,441,625,1
93,135,129,163,1
233,117,90,49,1
5,112,317,265,1
298,210,196,287,1
78,136,14,118,1
225,229,425,274,1
26,66,206,222,1
70,154,54,110,1
314,167,232,200,1
45,167,518,14,1
186,132,330,643,1
285,129,62,63,1
21,61,147,42,1
452,434,194,456,1
483,265,575,7,1
489,38,261,724,1
275,219,815,174,1
130,182,569,1023,1
22,16,562,333,1
107,46,437,191,1
90,47,8,186,1
64,46,330,909,1
71,119,792,431,1
230,374,659,425,1
120,40,165,899,1
61,79,80,373,1
80,11,249,655,1
182,107,156,213,1
119,182,85,117,1
72,50,2,192,1
211,239,483,492,1
514,370,615,30,1
121,6,661,823,1
135,99,170,167,1
431,391,380,18,1
307,95,634,103,1
594,308,731,74,1
39,15,464,196,1
279,274,783,481,1
17,130,380,53,1
280,83,474,221,1
329,427,463,650,1
117,172,120,213,1
113,289,54,371,1
173,111,322,281,1
111,332,252,341,1
96,67,712,245,1
445,250,12,821,1
222,226,680,87,1
318,173,201,244,1
46,241,534,53,1
425,155,358,281,1
9,22,443,1006,1
79,121,512,38,1
227,18,510,154,1
254,65,0,252,1
232,125,233,144,1
237,63,855,208,1
283,10,425,123,1
105,86,481,610,1
225,122,433,188,1
46,132,348,6,1
379,243,628,266,1
128,34,224,706,1
508,281,241,883,1
25,28,20,136,1
130,87,471,791,1
129,267,199,148,1
177,43,26,19,1
110,195,827,698,1
230,109,384,129,1
208,128,629,422,1
4,184,169,178,1
202,249,187,344,1
329,7,516,7,1
168,210,696,231,1
246,12,542,261,1
136,109,444,55,1
159,386,146,233,1
364,414,662,309,1
95,194,409,99,1
523,443,612,603,1
4,22,486,360,1
265,26,501,65,1
378,126,364,513,1
263,88,306,574,1
183,206,527,144,1
191,5,120,566,1
203,190,69,155,1
17,11,527,373,1
129,10,33,235,1
12,32,928,133,1
95,105,754,229,1
276,95,397,281,1
322,20,160,105,1
164,37,656,398,1
251,98,258,153,1
153,73,237,201,1
320,118,515,5,1
182,30,642,489,1
9,9,466,197,1
290,312,113,121,1
2,17,670,457,1
324,265,550,30,1
3,209,262,70,1
78,57,143,120,1
322,208,137,127,1
371,99,188,26,1
24,139,23,378,1
82,102,269,362,1
156,302,385,95,1
186,256,1,208,1
37,39,204,5,1
313,110,107,27,1
30,85,318,615,1
146,171,617,392,1
419,336,112,268,1
27,95,1023,432,1
171,425,967,422,1
22,199,437,774,1
155,19,408,334,1
18,326,46,67,1
179,110,487,156,1
187,64,404,436,1
202,220,692,372,1
315,108,46,479,1
535,422,149,190,1
30,13,301,0,1
402,283,308,169,1
92,145,344,210,1
11,122,17,169,1
121,469,44,33,1
198,30,0,85,1
185,228,360,152,1
157,211,232,241,1
48,12,119,175,1
330,240,113,101,1
105,262,56,245,1
48,60,24,521,1
455,220,250,169,1
57,190,250,307,1
451,135,563,373,1
265,286,312,202,1
154,275,67,731,1
100,80,139,136,1
13,228,671,154,1
6,44,670,10,1
105,66,192,408,1
176,222,343,661,1
126,107,264,150,1
189,154,259,416,1
511,490,461,692,1
126,258,66,649,1
359,357,493,9,1
4,134,495,300,1
73,81,243,211,1
312,186,388,114,1
315,84,164,181,1
251,328,241,394,1
347,227,290,102,1
94,14,196,57,1
163,214,34,139,1
178,30,18,199,1
375,60,114,339,1
22,67,99,490,1
16,47,500,350,1
12,52,122,254,1
46,15,52,2,1
15,49,133,112,1
101,175,525,199,1
124,39,0,156,1
413,248,355,127,1
259,150,7,12,1
245,165,114,82,1
74,40,558,8,1
119,120,34,487,1
186,119,357,221,1
15,39,287,103,1
478,206,0,684,1
432,258,72,123,1
99,155,251,162,1
63,207,197,142,1
112,271,84,150,1
268,73,376,313,1
158,63,122,135,1
190,59,46,279,1
366,136,210,337,1
125,18,223,334,1
189,276,549,185,1
194,36,230,87,1
9,147,46,14,1
65,117,394,282,1
227,52,129,438,1
8,19,866,633,1
79,129,403,36,1
151,142,497,420,1
537,509,481,558,1
12,27,27,123,1
201,99,78,506,1
162,41,358,69,1
97,29,676,498,1
213,339,421,68,1
124,10,194,468,1
164,202,682,288,1
84,251,336,13,1
25,106,415,37,1
422,247,224,171,1
235,85,223,84,1
365,305,192,179,1
352,48,442,222,1
0,107,39,330,1
358,375,455,293,1
37,271,118,2,1
162,325,403,125,1
137,234,118,28,1
258,113,454,518,1
24,185,91,198,1
115,192,145,20,1
58,31,61,203,1
261,165,14,224,1
52,41,158,358,1
209,88,196,79,1
50,22,74,352,1
221,217,504,280,1
308,170,0,127,1
57,22,450,554,1
68,186,135,180,1
77,103,224,54,1
158,268,33,102,1
82,27,0,27,1
81,203,102,72,1
428,54,0,275,1
40,152,335,298,1
27,224,339,420,1
121,50,151,371,1
321,36,82,143,1
4,119,74,78,1
194,36,0,116,1
104,14,104,225,1
82,54,72,44,1
36,32,3,292,1
134,104,13,378,1
4,37,85,163,1
154,114,107,137,1
191,78,158,16,1
53,13,167,241,1
292,218,263,215,1
138,321,225,305,1
271,220,486,212,1
225,155,5,87,1
2,50,284,178,1
143,244,51,35,1
132,76,278,26,1
85,32,253,205,1
224,56,6,35,1
42,89,325,251,1
221,6,234,264,1
2,19,305,148,1
111,280,96,19,1
96,15,35,173,1
57,84,76,225,1
229,94,104,43,1
55,254,21,40,1
291,430,201,197,1
225,275,52,30,1
113,9,131,120,1
200,100,129,105,1
107,25,11,42,1
313,165,14,140,1
67,10,177,160,1
31,32,5,7,1
237,186,33,169,1
93,203,26,57,1
206,163,47,22,1
325,161,115,147,1
11,25,94,58,1
157,180,8,106,1
98,114,72,0,1
235,155,55,98,1
122,268,197,83,1
84,73,1,35,1
149,125,85,375,1
45,42,33,166,1
214,83,52,239,1
90,30,29,1,1
19,45,8,29,1
110,38,13,138,1
12,76,158,17,1
136,55,72,144,1
123,65,27,6,1
32,9,140,138,1
111,185,35,3,1
43,60,2,75,1
115,75,56,100,1
2,78,0,10,1
103,94,0,39,1
198,133,85,134,1
20,90,0,5,1
153,95,30,70,1
15,142,129,59,1
10,7,45,7,1
236,179,250,200,1
7,14,9,88,1
359,240,190,85,1
107,47,68,39,1
10,14,109,85,1
121,16,33,115,1
9,7,15,47,1
59,55,69,87,1
2,16,26,39,1
7,69,57,49,1
256,160,21,70,1
51,155,4,4,1
98,7,73,120,1
105,27,0,23,1
31,19,0,32,1
162,23,115,97,1
83,119,0,7,1
35,7,119,103,1
3,5,6,82,1
143,103,82,73,1
306,204,53,68,1
146,86,3,6,1
305,93,95,200,1
81,106,35,1,1
46,8,12,2,1
187,101,167,188,1
45,51,45,127,1
200,81,372,173,1
46,54,30,7,1
9,109,77,110,1
156,56,95,41,1
80,53,34,34,1
111,114,158,174,1
195,41,1,8,1
22,29,17,65,1
216,183,107,55,1
33,71,47,7,1
198,100,3,136,1
50,7,0,34,1
13,7,0,17,1
135,101,33,121,1
65,97,0,19,1
230,99,61,79,1
180,8,4,43,1
94,89,64,9,1
88,13,57,113,1
46,22,41,33,1
224,170,84,51,1
46,67,7,9,1
130,35,56,68,1
178,96,96,47,1
0,44,94,14,1
77,58,163,153,1
111,40,0,14,1
91,191,22,27,1
151,171,55,65,1
23,67,0,19,1
215,159,0,86,1
59,17,101,119,1
216,100,11,78,1
248,227,133,149,1
27,28,8,15,1
175,59,49,43,1
143,121,41,138,1
30,90,38,10,1
148,7,45,105,1
5,42,70,27,1
231,7,40,131,1
67,5,77,11,1
101,53,171,64,1
211,199,187,27,1
81,44,3,145,1
67,151,0,47,1
146,35,6,111,1
115,150,305,18,1
213,272,0,95,1
47,33,82,121,1
178,143,47,4,1
121,105,128,183,1
4,89,0,56,1
222,177,62,61,1
54,7,7,98,1
138,98,33,1,1
52,119,0,92,1
142,77,92,31,1
121,245,49,16,1
197,317,262,206,1
20,138,85,240,1
132,152,225,79,1
98,186,181,297,1
82,65,177,133,1
112,146,187,201,1
193,11,66,103,1
130,24,130,122,1
27,36,119,39,1
127,8,23,454,1
110,105,350,544,1
84,10,171,10,1
76,41,162,75,1
11,26,0,210,1
164,250,75,55,1
305,452,67,102,1
17,24,78,153,1
413,261,1,21,1
409,173,6,160,1
184,59,188,85,1
251,91,226,12,1
17,90,461,362,1
22,21,75,183,1
127,103,197,41,1
148,143,2,37,1
65,10,50,98,1
87,157,87,134,1
53,23,191,236,1
86,114,80,7,1
356,166,89,104,1
56,12,183,365,1
307,240,162,392,1
251,291,193,683,1
119,37,43,46,1
90,269,193,132,1
85,206,152,15,1
156,335,233,31,1
22,107,382,441,1
186,151,217,467,1
49,191,308,102,1
5,94,234,38,1
124,288,188,46,1
155,43,88,100,1
173,44,110,597,1
329,20,41,627,1
113,92,116,8,1
339,130,226,118,1
336,80,313,603,1
11,112,611,445,1
69,89,14,169,1
206,141,534,285,1
203,117,0,125,1
200,62,9,305,1
74,17,0,166,1
470,298,275,207,1
288,275,243,332,1
62,61,421,140,1
222,31,357,368,1
7,181,315,119,1
393,265,276,129,1
349,464,367,278,1
150,250,380,86,1
90,161,146,156,1
22,60,266,16,1
441,173,342,2,1
59,16,392,819,1
88,19,622,133,1
143,112,305,843,1
39,106,479,248,1
147,69,105,380,1
43,42,91,214,1
54,29,386,26,1
35,215,141,55,1
8,253,114,276,1
267,73,112,359,1
0,98,125,365,1
194,223,231,76,1
155,22,29,441,1
179,73,468,511,1
310,209,97,145,1
28,26,91,540,1
14,39,173,698,1
95,15,97,95,1
152,98,248,190,1
152,20,370,36,1
14,95,313,252,1
226,82,119,136,1
144,261,54,162,1
88,148,212,377,1
134,109,272,280,1
123,67,0,273,1
40,26,19,147,1
107,113,560,369,1
273,152,479,166,1
371,408,540,190,1
142,222,420,70,1
85,186,328,356,1
0,97,835,87,1
155,302,188,557,1
383,380,533,992,1
86,65,903,335,1
430,197,3,330,1
226,106,1023,257,1
290,436,227,562,1
311,298,461,70,1
20,85,490,4,1
358,138,563,380,1
344,190,58,564,1
10,63,517,643,1
45,283,15,534,1
95,9,462,215,1
420,45,0,258,1
243,445,410,253,1
0,282,75,788,1
78,162,0,409,1
304,97,20,217,1
131,22,405,41,1
139,304,150,618,1
11,55,838,361,1
16,110,34,640,1
13,46,208,298,1
80,241,174,289,1
106,344,311,902,1
22,155,76,140,1
10,301,435,252,1
23,190,281,37,1
306,91,114,259,1
43,115,300,14,1
126,20,321,225,1
484,147,675,203,1
328,201,313,739,1
253,16,68,23,1
60,34,5,216,1
110,143,209,47,1
66,117,467,200,1
22,262,291,108,1
156,110,126,318,1
324,86,399,67,1
371,102,35,462,1
246,207,420,61,1
325,103,4,694,1
767,516,1023,670,1
288,364,41,175,1
55,135,319,560,1
305,309,287,253,1
217,123,54,130,1
465,265,702,457,1
181,99,1023,413,1
169,269,264,317,1
172,291,747,10,1
32,422,478,53,1
420,358,7,115,1
42,199,207,104,1
0,14,259,156,1
522,275,448,542,1
128,25,38,299,1
180,198,594,651,1
183,81,30,26,1
79,150,909,577,1
9,308,670,545,1
308,85,280,83,1
375,102,15,221,1
401,254,956,53,1
115,70,569,472,1
159,273,523,826,1
97,178,247,560,1
117,94,880,109,1
49,393,268,119,1
4,81,581,293,1
286,43,100,296,1
351,137,135,206,1
274,13,331,354,1
94,227,116,510,1
170,37,255,385,1
249,339,288,189,1
20,148,199,418,1
332,139,907,649,1
123,31,1023,389,1
309,332,1023,462,1
70,196,397,25,1
8,12,618,426,1
136,177,466,286,1
206,99,126,1004,1
88,59,641,296,1
505,220,803,474,1
42,190,139,159,1
255,472,1023,685,1
140,634,836,389,1
195,162,143,317,1
319,303,176,266,1
61,154,241,109,1
301,156,31,127,1
328,163,754,535,1
144,96,888,491,1
304,163,566,45,1
110,127,580,139,1
422,8,96,1,1
261,73,105,180,1
11,106,188,77,1
172,163,210,559,1
55,109,466,612,1
138,108,103,124,1
149,85,443,172,1
305,85,328,85,1
443,189,168,296,1
19,9,336,823,1
121,121,922,261,1
55,46,131,318,1
43,60,347,279,1
231,85,63,499,1
64,13,316,120,1
226,163,302,6,1
35,97,380,12,1
71,134,456,180,1
442,192,490,127,1
65,61,15,322,1
411,44,79,337,1
36,113,186,218,1
131,9,216,481,1
519,282,559,222,1
153,244,19,191,1
253,173,610,217,1
60,98,236,252,1
176,101,372,159,1
166,183,338,28,1
143,119,432,15,1
198,122,310,134,1
179,64,192,156,1
23,46,88,211,1
423,262,474,559,1
3,330,40,178,1
161,22,231,528,1
40,62,0,219,1
165,20,255,53,1
115,312,41,8,1
122,50,563,450,1
569,178,914,460,1
551,159,8,62,1
34,36,204,71,1
145,7,81,427,1
52,12,618,515,1
483,297,233,372,1
82,276,901,1023,1
118,227,757,363,1
161,285,263,276,1
46,12,404,170,1
158,535,391,314,1
23,83,123,170,1
22,26,359,6,1
194,109,171,717,1
297,163,21,221,1
198,164,887,319,1
128,74,361,91,1
138,89,109,280,1
128,237,14,613,1
48,89,82,311,1
263,189,0,546,1
255,396,373,389,1
142,45,359,110,1
314,57,42,88,1
58,234,0,128,1
312,250,87,100,1
95,173,177,46,1
136,350,407,135,1
341,164,167,221,1
61,99,260,119,1
300,142,1023,551,1
76,109,955,52,1
21,21,438,823,1
159,275,490,124,1
26,15,24,213,1
249,28,411,52,1
45,462,250,233,1
38,308,212,26,1
468,221,83,608,1
185,136,234,1,1
365,86,45,72,1
288,111,231,89,1
174,131,10,243,1
406,195,480,99,1
143,34,201,57,1
106,215,108,431,1
86,29,111,668,1
7,35,0,191,1
269,232,120,286,1
38,37,0,304,1
439,381,255,336,1
150,155,41,222,1
129,46,711,666,1
465,172,400,30,1
221,91,280,175,1
75,53,232,403,1
435,89,0,287,1
99,188,94,236,1
282,79,124,565,1
308,125,57,307,1
205,99,28,525,1
122,137,38,380,1
105,138,320,3,1
460,133,86,63,1
160,190,128,166,1
247,6,199,9,1
177,116,39,43,1
171,43,26,238,1
353,178,596,631,1
222,184,306,152,1
116,122,551,466,1
31,405,239,353,1
12,20,286,494,1
184,215,533,438,1
178,69,27,607,1
427,213,412,931,1
11,28,67,145,1
36,73,83,10,1
375,441,0,141,1
98,458,0,34,1
394,63,42,78,1
147,83,16,36,1
14,110,155,179,1
303,7,25,99,1
349,9,156,69,1
25,80,150,69,1
24,111,141,84,1
85,12,53,23,1
519,182,178,656,1
81,14,203,259,1
139,163,79,103,1
252,56,402,501,1
10,107,190,645,1
24,11,179,146,1
194,175,131,152,1
64,172,155,255,1
4,52,110,107,1
33,16,94,170,1
290,123,87,32,1
142,200,77,152,1
56,29,22,62,1
75,236,176,4,1
65,241,182,236,1
45,21,129,31,1
173,58,10,230,1
239,90,43,137,1
91,20,302,283,1
177,19,161,610,1
98,138,379,152,1
21,18,0,126,1
203,118,185,88,1
141,105,54,105,1
85,12,62,78,1
106,29,41,268,1
47,110,104,287,1
238,268,177,197,1
261,157,347,58,1
88,36,0,13,1
263,64,44,140,1
91,170,113,2,1
249,63,154,334,1
254,135,21,124,1
72,26,133,75,1
173,37,6,108,1
23,96,174,85,1
18,28,72,8,1
26,82,71,0,1
16,106,166,82,1
286,65,105,26,1
13,7,245,251,1
11,95,71,122,1
324,5,119,182,1
113,24,91,93,1
175,103,59,36,1
71,74,75,26,1
141,7,103,8,1
180,152,106,168,1
8,28,169,39,1
245,231,245,320,1
141,53,63,10,1
233,208,246,158,1
156,25,102,95,1
224,147,0,2,1
22,186,83,112,1
78,164,75,562,1
141,14,25,28,1
103,120,0,214,1
122,48,97,132,1
239,21,0,83,1
53,43,55,180,1
112,79,0,116,1
36,13,0,9,1
62,54,0,40,1
235,144,83,245,1
25,18,0,88,1
91,87,28,7,1
40,73,25,134,1
116,211,5,82,1
216,139,126,20,1
9,86,0,6,1
95,31,204,196,1
2,5,45,68,1
23,6,48,58,1
237,89,0,54,1
82,68,19,34,1
281,232,72,161,1
225,172,51,19,1
62,126,0,1,1
70,22,71,146,1
21,180,0,47,1
67,47,73,101,1
10,41,9,31,1
35,223,23,34,1
167,161,44,99,1
16,33,0,12,1
107,84,38,81,1
34,6,0,29,1
28,41,28,54,1
287,235,67,77,1
19,10,8,23,1
168,75,91,138,1
18,28,0,6,1
99,8,36,80,1
212,104,42,92,1
30,8,21,91,1
185,157,88,195,1
124,28,25,20,1
46,38,75,12,1
169,208,42,78,1
1,46,0,1,1
115,13,73,99,1
66,20,0,1,1
5,84,4,30,1
86,54,121,103,1
41,89,3,16,1
21,47,105,102,1
117,25,45,5,1
148,170,70,76,1
31,7,45,89,1
70,42,41,1,1
233,143,68,123,1
115,164,0,17,1
127,93,104,83,1
201,71,26,117,1
131,81,0,7,1
114,185,4,54,1
150,230,0,137,1
110,99,44,72,1
224,207,47,151,1
32,74,15,11,1
279,35,87,148,1
27,297,0,6,1
116,137,7,12,1
220,95,89,156,1
33,10,27,27,1
226,160,78,71,1
33,9,0,29,1
81,102,70,2,1
342,118,23,54,1
37,14,0,122,1
161,38,155,94,1
62,43,65,5,1
73,31,118,2,1
208,130,21,44,1
17,15,0,9,1
202,77,22,32,1
176,22,0,3,1
9,22,38,81,1
209,356,67,9,1
63,100,7,15,1
13,17,111,165,1
136,229,0,5,1
27,42,0,53,1
170,141,112,53,1
37,18,47,134,1
205,255,70,34,1
81,105,68,77,1
9,94,6,26,1
281,287,0,13,1
26,92,83,71,1
290,331,18,172,1
129,120,19,76,1
46,63,45,25,1
184,107,0,172,1
12,235,129,95,1
215,182,17,270,1
82,89,23,117,1
69,6,24,71,1
258,167,0,345,1
82,156,137,268,1
309,112,43,162,1
264,137,47,313,1
119,20,8,78,1
128,188,120,176,1
6,107,47,153,1
267,167,194,33,1
167,67,70,18,1
133,95,59,40,1
69,73,137,9,1
42,76,0,63,1
154,14,299,5,1
100,96,10,188,1
32,125,219,204,1
205,71,0,63,1
211,150,0,36,1
45,150,7,193,1
35,60,22,468,1
76,35,0,294,1
101,132,43,237,1
18,173,0,661,1
277,76,202,258,1
42,35,0,343,1
35,168,229,19,1
380,382,68,279,1
25,20,32,223,1
266,276,286,355,1
138,56,319,87,1
41,75,0,43,1
94,57,248,49,1
143,21,116,432,1
566,390,15,185,1
139,253,90,210,1
57,125,215,252,1
366,494,94,225,1
17,130,215,192,1
299,161,257,15,1
94,190,29,23,1
338,111,215,225,1
106,121,0,185,1
295,192,267,357,1
120,45,0,119,1
347,250,124,233,1
38,10,154,140,1
351,492,42,60,1
1,222,286,114,1
270,332,43,17,1
2,44,49,505,1
271,12,3,4,1
65,16,185,141,1
164,166,7,187,1
82,118,177,34,1
268,37,19,440,1
62,302,63,145,1
96,70,151,100,1
6,95,369,75,1
472,274,33,71,1
149,145,68,187,1
160,385,168,442,1
435,483,55,46,1
165,110,105,234,1
288,153,87,158,1
281,152,19,476,1
163,34,0,110,1
33,124,43,359,1
83,67,110,1,1
159,153,423,148,1
237,121,0,168,1
16,27,49,20,1
319,21,727,20,1
42,248,302,858,1
115,130,680,739,1
52,22,63,441,1
9,32,455,68,1
259,193,0,164,1
68,120,284,223,1
130,163,126,381,1
285,63,214,309,1
91,39,87,9,1
295,8,131,26,1
63,153,21,19,1
209,81,115,185,1
171,146,184,282,1
3,10,185,4,1
224,246,612,207,1
392,417,0,303,1
11,95,359,303,1
50,11,245,29,1
77,47,281,173,1
0,472,34,435,1
152,192,312,625,1
221,327,151,83,1
275,30,41,494,1
43,153,456,61,1
214,29,749,56,1
227,152,315,832,1
8,12,653,198,1
209,89,32,118,1
279,19,193,244,1
190,403,0,70,1
100,286,0,154,1
412,10,185,303,1
38,376,401,124,1
8,244,72,439,1
323,297,327,589,1
14,32,0,34,1
45,256,752,652,1
131,450,333,199,1
145,127,933,551,1
292,321,631,50,1
151,9,275,386,1
13,281,189,160,1
201,95,838,140,1
73,11,117,711,1
275,55,604,650,1
88,393,210,514,1
234,97,776,190,1
413,20,69,15,1
360,134,1023,747,1
107,139,71,1023,1
50,29,401,465,1
331,8,260,343,1
52,37,23,53,1
449,408,205,340,1
202,7,45,248,1
203,271,534,163,1
4,140,125,231,1
327,279,633,211,1
250,24,441,285,1
438,7,76,184,1
197,52,748,50,1
262,301,113,774,1
302,121,588,214,1
425,247,158,274,1
493,276,165,382,1
147,23,476,106,1
209,97,337,197,1
396,165,23,365,1
162,289,402,9,1
538,135,298,15,1
101,241,208,285,1
255,43,413,56,1
2,146,905,59,1
43,6,250,235,1
114,108,716,532,1
287,317,326,748,1
102,254,331,242,1
462,295,670,319,1
15,397,648,473,1
393,154,529,407,1
131,374,912,21,1
216,242,129,659,1
33,567,464,786,1
125,69,449,145,1
320,266,258,43,1
6,78,229,312,1
228,223,182,410,1
157,35,122,560,1
114,36,339,84,1
139,62,356,158,1
228,97,264,98,1
129,19,13,359,1
182,38,79,161,1
301,114,577,236,1
268,263,0,85,1
229,183,510,297,1
218,270,53,153,1
424,109,201,136,1
243,24,75,408,1
314,81,458,734,1
262,154,145,6,1
390,146,223,121,1
262,15,189,152,1
90,143,16,129,1
314,173,619,957,1
302,291,498,469,1
402,343,151,217,1
94,40,232,533,1
19,72,223,638,1
301,309,199,59,1
227,31,267,9,1
160,69,422,289,1
31,307,164,138,1
384,136,612,1023,1
99,544,206,262,1
210,107,167,149,1
157,292,229,6,1
279,16,1023,207,1
187,300,888,110,1
298,136,469,476,1
402,167,419,216,1
76,156,208,2,1
235,15,55,22,1
53,111,917,306,1
525,440,150,54,1
195,75,1023,163,1
72,201,115,449,1
205,65,652,383,1
113,364,179,46,1
339,183,150,233,1
5,18,452,25,1
468,330,196,275,1
365,229,952,172,1
132,49,273,350,1
11,51,257,588,1
10,73,121,11,1
218,104,310,22,1
19,21,584,144,1
177,71,107,28,1
248,241,438,126,1
20,13,489,89,1
135,109,309,52,1
91,13,100,462,1
7,213,161,88,1
360,234,193,43,1
161,25,248,213,1
27,199,57,106,1
22,226,492,287,1
55,135,55,252,1
416,187,269,425,1
144,40,362,88,1
291,134,656,595,1
114,129,130,171,1
23,88,153,195,1
72,126,57,134,1
9,9,344,676,1
338,44,136,21,1
83,130,193,962,1
162,598,133,219,1
163,10,109,443,1
194,180,168,42,1
392,364,142,175,1
176,203,123,245,1
304,28,117,138,1
484,564,19,4,1
75,221,67,77,1
255,96,357,171,1
159,124,422,258,1
157,291,211,635,1
8,225,761,160,1
219,12,528,10,1
200,245,2,202,1
281,55,64,5,1
32,40,350,236,1
404,335,284,377,1
196,176,436,359,1
180,150,299,175,1
23,370,308,98,1
78,16,332,7,1
432,276,505,65,1
84,15,79,53,1
509,349,146,170,1
196,96,255,557,1
41,38,351,15,1
436,370,431,510,1
40,36,0,87,1
181,179,389,251,1
95,313,46,191,1
135,331,209,50,1
324,283,458,212,1
131,228,186,403,1
288,22,54,245,1
13,43,732,335,1
28,98,567,141,1
94,138,395,589,1
112,58,332,83,1
304,164,135,13,1
123,140,49,104,1
46,62,362,383,1
331,234,81,13,1
63,8,252,187,1
295,396,198,103,1
211,31,110,253,1
167,201,136,538,1
338,447,109,44,1
292,344,318,4,1
233,398,421,366,1
268,260,0,289,1
59,18,174,78,1
254,236,9,5,1
71,36,95,170,1
249,273,364,178,1
5,127,397,444,1
23,10,183,8,1
523,45,99,557,1
29,137,300,321,1
267,181,250,87,1
185,10,505,445,1
38,314,88,331,1
107,31,350,113,1
22,10,41,127,1
65,87,88,66,1
6,219,318,39,1
215,252,596,208,1
223,210,99,220,1
134,244,459,648,1
247,51,311,144,1
17,9,15,504,1
231,17,247,510,1
207,31,334,46,1
118,55,45,273,1
131,70,44,168,1
14,325,313,345,1
22,313,259,115,1
513,612,0,5,1
56,21,327,171,1
308,124,51,82,1
109,109,108,78,1
22,173,208,28,1
256,370,588,382,1
240,238,100,37,1
182,257,333,275,1
273,264,52,100,1
82,16,328,89,1
42,108,39,306,1
349,377,75,184,1
393,148,338,189,1
142,151,33,471,1
54,235,61,313,1
297,21,148,199,1
152,292,46,213,1
245,194,81,111,1
86,107,240,44,1
19,198,0,19,1
117,146,50,10,1
2,29,198,84,1
334,122,257,68,1
9,107,0,252,1
69,154,257,237,1
290,199,493,71,1
19,121,6,255,1
39,43,455,570,1
143,137,342,46,1
152,325,130,234,1
126,42,106,371,1
21,23,216,8,1
173,8,115,67,1
267,158,23,99,1
129,151,53,9,1
236,37,161,323,1
65,11,16,156,1
188,63,253,268,1
140,131,1,19,1
55,158,0,219,1
112,27,9,40,1
2,31,8,120,1
108,77,90,250,1
96,87,141,88,1
91,37,197,56,1
199,240,289,37,1
76,27,261,346,1
190,440,158,187,1
21,227,181,192,1
149,180,12,44,1
160,164,264,18,1
108,61,40,103,1
224,53,19,27,1
97,178,262,134,1
27,39,144,123,1
352,128,130,56,1
15,64,29,150,1
34,109,0,35,1
188,95,0,1,1
137,29,138,31,1
172,116,281,235,1
399,223,72,15,1
31,173,47,120,1
88,67,129,177,1
54,136,132,166,1
223,78,18,294,1
49,15,102,18,1
70,47,3,20,1
99,117,68,255,1
5,88,0,109,1
233,206,98,244,1
2,43,19,80,1
121,87,23,66,1
93,85,2,8,1
120,94,0,30,1
164,101,64,112,1
1,40,0,10,1
223,155,19,89,1
104,76,0,8,1
160,112,78,12,1
31,55,81,172,1
184,189,42,24,1
113,95,161,1,1
139,175,23,139,1
8,18,0,5,1
69,62,55,3,1
4,146,0,52,1
293,78,95,159,1
156,248,56,6,1
112,35,89,112,1
169,25,85,89,1
108,188,37,1,1
98,31,30,58,1
98,6,33,113,1
17,54,101,141,1
136,140,107,77,1
83,7,97,27,1
204,109,124,150,1
6,81,22,14,1
4,68,0,11,1
283,82,70,154,1
46,61,0,34,1
195,174,95,37,1
75,10,82,1,1
20,205,60,79,1
255,339,77,130,1
32,53,86,1,1
197,225,140,59,1
19,99,129,92,1
22,116,38,145,1
109,102,107,34,1
24,125,21,25,1
195,172,37,99,1
51,63,42,37,1
39,40,34,90,1
251,195,46,52,1
0,134,46,59,1
96,13,69,165,1
207,115,0,9,1
7,24,40,46,1
162,89,103,57,1
116,212,0,13,1
199,12,68,100,1
158,53,12,3,1
53,29,32,3,1
212,301,68,73,1
63,47,0,24,1
173,106,81,48,1
78,108,11,70,1
15,125,37,87,1
273,176,43,84,1
2,7,13,75,1
155,188,46,100,1
72,43,13,2,1
11,10,31,9,1
126,111,61,108,1
1,34,0,10,1
189,40,61,76,1
101,79,53,4,1
91,41,193,55,1
192,111,31,29,1
97,207,19,43,1
92,21,51,33,1
226,159,1,1,1
33,80,76,1,1
97,185,112,50,1
125,66,31,16,1
219,267,130,244,1
364,286,1,156,1
30,54,22,36,1
340,307,167,167,1
105,42,13,81,1
143,139,166,75,1
181,130,99,111,1
18,62,37,18,1
259,177,1,88,1
109,158,137,2,1
115,21,206,257,1
99,46,78,54,1
127,333,104,25,1
327,323,71,1,1
50,157,179,110,1
60,37,31,71,1
73,62,93,18,1
25,100,25,82,1
217,201,0,138,1
10,36,98,20,1
191,78,28,172,1
6,109,0,33,1
11,37,0,230,1
117,29,39,252,1
63,31,31,65,1
215,127,46,214,1
3,40,24,61,1
85,50,22,42,1
98,11,79,61,1
94,80,40,54,1
266,116,39,300,1
177,155,169,187,1
36,103,60,17,1
345,217,55,311,1
4,95,189,301,1
90,33,74,183,1
41,28,18,193,1
5,58,6,11,1
150,141,0,299,1
94,180,74,4,1
4,161,6,336,1
10,177,33,227,1
54,101,0,105,1
207,55,99,52,1
102,8,22,75,1
221,281,196,251,1
210,235,67,124,1
41,13,54,29,1
179,251,81,180,1
49,79,40,1,1
273,202,113,75,1
124,77,133,374,1
79,177,116,277,1
290,292,230,30,1
13,97,23,228,1
120,253,377,63,1
307,342,93,279,1
68,92,434,548,1
75,16,173,152,1
331,138,339,317,1
30,17,160,114,1
50,54,240,208,1
32,21,0,163,1
297,329,0,235,1
137,15,106,143,1
207,98,274,417,1
342,248,52,165,1
190,25,344,569,1
382,416,60,144,1
279,325,307,99,1
67,118,119,94,1
296,232,192,7,1
15,65,196,172,1
118,344,19,69,1
349,105,7,4,1
135,265,39,72,1
252,5,147,313,1
41,38,679,347,1
337,123,39,90,1
29,233,495,45,1
123,138,177,20,1
340,16,323,177,1
156,128,299,441,1
460,90,0,281,1
151,13,411,116,1
287,34,273,164,1
57,102,145,50,1
158,106,346,93,1
285,600,375,5,1
4,315,35,149,1
25,140,227,112,1
159,318,206,464,1
110,238,237,929,1
237,182,434,272,1
253,206,257,821,1
2,285,206,485,1
161,313,164,83,1
8,19,81,47,1
244,97,279,60,1
9,49,365,67,1
24,138,601,651,1
17,102,180,297,1
276,239,392,237,1
380,65,85,292,1
236,77,244,187,1
215,208,124,194,1
17,44,574,323,1
182,318,23,70,1
258,199,458,326,1
118,35,294,323,1
18,106,215,395,1
71,34,332,582,1
91,174,53,525,1
3,189,391,245,1
27,17,39,651,1
569,360,668,308,1
288,290,532,329,1
206,349,922,268,1
270,449,567,420,1
152,106,922,503,1
276,90,377,296,1
16,37,200,89,1
11,318,775,1023,1
431,154,107,206,1
171,43,1023,1023,1
680,46,27,16,1
412,411,961,740,1
227,19,526,89,1
149,401,553,786,1
86,315,720,4,1
120,22,133,753,1
25,175,200,1023,1
375,119,111,1023,1
58,145,319,780,1
86,153,611,536,1
327,36,2,364,1
169,6,151,848,1
4,48,140,950,1
77,28,294,138,1
51,75,257,13,1
604,170,119,109,1
211,709,337,548,1
259,882,511,32,1
472,270,530,526,1
324,306,155,391,1
68,201,854,713,1
270,287,511,451,1
166,50,350,415,1
185,140,311,640,1
27,44,539,461,1
41,23,229,565,1
41,281,238,1023,1
6,123,585,246,1
91,87,303,180,1
277,62,196,231,1
84,403,492,114,1
260,362,39,505,1
858,396,29,376,1
55,41,490,757,1
25,90,190,841,1
215,233,516,440,1
533,106,179,314,1
495,73,241,172,1
223,293,311,273,1
57,242,11,968,1
34,177,938,501,1
271,258,143,585,1
101,11,605,195,1
37,21,107,269,1
88,25,511,337,1
121,61,474,53,1
406,235,298,142,1
55,11,99,379,1
10,15,371,22,1
48,157,486,16,1
24,21,321,359,1
397,179,597,82,1
28,178,410,244,1
408,462,945,63,1
199,403,117,585,1
301,250,376,343,1
34,134,51,84,1
63,21,242,338,1
250,205,409,559,1
176,309,277,143,1
272,149,367,316,1
146,216,357,175,1
490,121,615,534,1
209,11,89,244,1
9,253,172,424,1
384,325,150,50,1
681,136,229,375,1
135,321,92,81,1
250,565,590,87,1
62,48,447,469,1
56,207,65,329,1
87,162,257,220,1
134,18,477,396,1
322,199,715,377,1
336,87,52,608,1
92,11,9,309,1
145,164,325,111,1
492,87,603,227,1
620,215,818,473,1
393,156,239,427,1
75,238,339,1023,1
37,37,822,398,1
60,233,511,76,1
179,273,448,659,1
55,63,567,153,1
3,75,422,350,1
100,197,34,216,1
249,7,1023,112,1
303,275,489,368,1
50,54,126,192,1
111,144,224,136,1
292,228,317,360,1
6,16,13,469,1
472,431,1023,863,1
0,94,691,43,1
276,268,212,522,1
310,227,155,37,1
379,385,406,83,1
235,194,100,130,1
224,23,172,525,1
256,239,422,6,1
228,57,733,552,1
3,251,1023,742,1
339,108,79,611,1
63,227,16,12,1
314,170,1010,812,1
253,217,406,344,1
26,75,771,709,1
463,473,383,355,1
147,143,0,217,1
106,53,173,89,1
174,37,195,70,1
52,10,178,8,1
394,291,189,126,1
200,215,116,119,1
192,113,550,79,1
20,186,677,26,1
97,14,1023,230,1
630,387,154,547,1
436,32,498,16,1
11,365,230,2,1
64,185,291,168,1
20,19,307,188,1
307,338,503,26,1
49,236,549,99,1
428,497,161,521,1
352,182,575,226,1
359,180,108,210,1
378,257,262,641,1
234,26,55,45,1
141,125,188,117,1
343,73,253,230,1
75,60,692,283,1
178,212,448,206,1
35,236,687,282,1
185,54,161,731,1
8,65,235,297,1
234,119,215,552,1
73,202,557,54,1
260,603,0,59,1
87,320,247,202,1
116,398,315,53,1
210,90,196,176,1
599,300,57,3,1
168,126,91,109,1
129,203,545,31,1
130,106,215,79,1
215,131,238,424,1
312,19,196,155,1
109,20,352,478,1
242,26,431,143,1
315,218,181,278,1
21,210,188,173,1
399,315,371,223,1
20,73,328,39,1
263,82,184,106,1
295,89,552,6,1
81,34,91,156,1
193,305,146,95,1
169,140,28,141,1
226,210,44,503,1
77,58,138,1022,1
134,6,598,561,1
105,321,350,119,1
128,69,493,475,1
178,45,258,128,1
278,160,19,44,1
81,135,315,206,1
347,398,15,14,1
106,33,135,12,1
186,226,298,59,1
86,29,332,214,1
53,44,158,329,1
316,202,515,212,1
71,107,447,344,1
383,385,411,113,1
261,234,195,152,1
38,36,178,314,1
361,195,60,74,1
137,141,48,11,1
8,15,4,107,1
92,28,259,1,1
17,73,330,99,1
528,495,45,29,1
128,364,135,41,1
264,171,185,87,1
163,105,139,271,1
135,15,464,471,1
403,221,192,98,1
86,205,429,496,1
226,88,377,285,1
175,9,157,65,1
31,17,382,313,1
339,293,346,642,1
103,40,189,141,1
187,147,110,109,1
65,130,307,55,1
84,40,0,33,1
405,142,268,363,1
87,79,276,341,1
2,11,83,4,1
199,215,68,109,1
94,30,699,403,1
146,380,233,161,1
187,339,949,815,1
44,151,361,128,1
130,238,63,555,1
6,125,450,354,1
88,9,255,176,1
461,123,399,106,1
156,135,367,345,1
142,30,117,141,1
12,7,262,156,1
370,314,176,9,1
141,16,112,113,1
21,53,104,224,1
96,151,301,589,1
227,160,949,431,1
269,22,89,162,1
223,27,618,310,1
376,252,199,163,1
42,16,467,336,1
243,199,208,246,1
292,153,512,983,1
113,135,304,446,1
97,46,18,95,1
24,69,227,200,1
120,44,194,102,1
226,57,211,102,1
144,55,322,218,1
411,259,90,170,1
133,13,263,101,1
70,179,17,189,1
288,213,117,9,1
490,239,39,370,1
106,116,14,487,1
300,210,13,22,1
154,116,171,329,1
221,198,76,48,1
541,170,241,97,1
35,29,211,185,1
154,173,193,21,1
5,262,140,105,1
284,89,159,16,1
91,73,105,206,1
37,147,246,278,1
158,52,113,11,1
206,99,191,302,1
389,250,85,269,1
220,133,242,22,1
20,49,226,60,1
50,61,91,1,1
6,13,77,48,1
57,14,98,199,1
177,117,201,106,1
240,131,0,147,1
90,230,11,104,1
0,101,55,39,1
153,168,207,98,1
79,47,170,376,1
8,51,36,133,1
175,238,23,228,1
2,150,217,21,1
163,54,20,212,1
0,8,88,181,1
166,31,126,99,1
65,54,207,100,1
23,76,20,182,1
110,18,112,76,1
15,37,210,221,1
98,23,19,29,1
51,50,230,82,1
11,78,0,52,1
138,96,17,302,1
27,120,83,78,1
46,60,57,105,1
124,10,76,28,1
14,15,244,3,1
136,84,5,78,1
178,223,122,25,1
123,262,53,143,1
225,112,82,172,1
74,10,52,181,1
252,159,206,98,1
19,100,374,231,1
182,69,221,306,1
93,81,374,163,1
139,69,240,159,1
75,136,271,180,1
60,40,218,150,1
33,51,62,118,1
70,187,0,48,1
32,16,111,159,1
264,33,104,53,1
62,179,20,11,1
133,58,137,108,1
237,26,196,2,1
142,16,74,17,1
5,5,222,120,1
204,111,0,1,1
85,14,121,274,1
108,19,60,10,1
66,97,76,44,1
276,84,3,110,1
94,164,11,117,1
206,79,41,67,1
55,29,35,14,1
5,31,33,172,1
66,43,10,199,1
163,126,106,97,1
213,181,0,2,1
175,61,12,77,1
16,45,69,25,1
188,128,50,53,1
82,156,25,174,1
82,34,31,269,1
121,166,52,4,1
123,296,114,16,1
336,321,49,99,1
109,23,0,72,1
141,85,35,102,1
107,98,125,15,1
120,22,113,38,1
241,87,230,105,1
57,40,0,21,1
142,81,75,120,1
50,31,22,1,1
33,30,10,15,1
245,73,169,203,1
33,21,8,41,1
99,53,121,117,1
34,19,19,5,1
37,131,129,71,1
275,63,59,140,1
137,43,0,26,1
34,71,75,84,1
18,74,27,66,1
30,24,14,120,1
204,48,108,108,1
67,88,19,53,1
200,185,102,187,1
238,347,77,61,1
167,120,39,30,1
212,342,133,192,1
14,79,48,23,1
32,110,84,117,1
174,248,65,39,1
68,161,0,10,1
159,120,23,115,1
41,35,66,85,1
135,118,72,84,1
7,25,58,45,1
1,5,66,106,1
191,83,27,128,1
25,5,81,165,1
30,182,60,108,1
156,30,154,194,1
0,103,0,25,1
260,220,156,184,1
53,52,3,7,1
174,209,38,61,1
179,44,30,6,1
5,42,40,3,1
249,55,22,86,1
152,8,10,4,1
197,62,40,104,1
109,81,81,142,1
24,8,27,50,1
224,203,135,299,1
48,42,69,94,1
202,133,93,126,1
181,63,40,96,1
22,142,7,2,1
180,39,23,136,1
89,111,59,246,1
103,20,37,100,1
82,118,0,69,1
7,13,20,98,1
203,29,99,56,1
224,150,67,18,1
54,16,0,111,1
273,318,159,94,1
11,98,28,46,1
249,187,149,165,1
81,143,0,65,1
199,64,12,39,1
183,132,43,31,1
38,7,95,115,1
260,121,106,43,1
4,101,40,25,1
158,100,87,57,1
142,15,121,77,1
132,18,99,81,1
385,161,171,155,1
33,31,43,105,1
196,423,75,188,1
31,78,91,34,1
6,99,50,97,1
164,100,175,140,1
57,191,99,11,1
94,116,182,337,1
166,15,108,52,1
37,155,37,369,1
187,80,299,143,1
177,13,114,363,1
9,20,294,103,1
30,50,150,664,1
45,147,167,480,1
224,208,12,537,1
131,83,187,517,1
98,96,170,527,1
221,167,267,87,1
3,102,252,870,1
150,197,360,151,1
79,235,312,261,1
398,225,190,101,1
2,7,71,48,1
59,73,457,48,1
221,297,126,174,1
30,20,61,191,1
217,142,178,243,1
136,89,337,618,1
150,63,115,134,1
101,58,433,547,1
256,6,357,91,1
93,233,408,13,1
7,37,12,246,1
241,31,34,105,1
286,189,56,108,1
35,143,14,72,1
74,33,206,84,1
338,385,113,189,1
6,62,669,338,1
40,12,15,37,1
168,102,302,149,1
46,26,96,132,1
53,179,159,164,1
9,6,64,451,1
286,133,155,361,1
370,308,35,316,1
61,56,71,76,1
68,131,49,215,1
108,233,121,225,1
8,105,324,573,1
56,133,638,683,1
21,31,391,77,1
121,186,344,195,1
155,61,333,138,1
9,147,152,851,1
11,105,38,628,1
64,20,0,384,1
165,251,156,607,1
444,366,358,265,1
85,29,365,965,1
99,143,99,21,1
119,14,726,80,1
280,171,55,425,1
327,201,792,162,1
406,74,88,279,1
303,102,398,331,1
158,175,59,259,1
61,96,81,16,1
85,187,115,148,1
242,146,237,145,1
346,86,199,89,1
48,203,394,436,1
39,61,175,133,1
33,294,36,633,1
35,21,516,709,1
98,40,151,216,1
94,173,494,368,1
423,466,591,80,1
131,14,69,917,1
125,32,654,389,1
29,42,286,396,1
62,125,194,39,1
224,131,200,749,1
12,9,395,180,1
107,98,359,249,1
7,114,602,148,1
317,413,416,199,1
237,238,916,612,1
54,19,343,225,1
25,23,903,258,1
209,49,599,686,1
99,171,425,245,1
197,104,640,454,1
58,106,71,802,1
106,148,546,840,1
101,113,149,978,1
157,69,43,837,1
93,28,175,345,1
220,145,382,532,1
115,210,524,115,1
275,128,550,699,1
265,11,993,208,1
193,287,158,648,1
149,27,701,485,1
516,186,770,692,1
374,101,746,942,1
196,104,837,762,1
162,180,376,585,1
249,102,126,556,1
97,274,884,1023,1
411,47,399,981,1
167,82,1023,157,1
129,53,664,999,1
137,142,886,100,1
316,117,226,1023,1
119,312,371,664,1
322,227,97,1023,1
134,89,407,1023,1
265,204,219,223,1
444,399,136,75,1
305,39,375,141,1
235,39,165,189,1
411,204,404,601,1
199,289,664,647,1
433,233,63,31,1
203,187,643,299,1
401,97,267,326,1
284,118,661,1023,1
134,133,1023,300,1
90,145,851,1023,1
68,356,929,208,1
457,49,481,752,1
140,54,67,91,1
214,49,727,1023,1
192,7,119,442,1
195,228,928,471,1
106,48,336,1023,1
32,12,88,802,1
40,226,851,11,1
283,398,211,422,1
30,294,1023,619,1
232,12,36,660,1
316,67,1023,551,1
12,25,139,150,1
217,133,943,470,1
209,52,186,76,1
420,239,404,612,1
293,195,546,344,1
142,146,269,251,1
589,328,184,282,1
127,56,223,500,1
113,91,447,298,1
487,210,195,536,1
347,223,479,413,1
562,849,282,127,1
30,184,180,949,1
156,40,1023,536,1
264,21,883,43,1
1,154,73,281,1
329,115,812,831,1
91,285,258,550,1
500,208,1023,174,1
77,144,303,845,1
68,65,26,368,1
275,263,760,289,1
449,364,1023,355,1
215,108,345,348,1
212,49,964,417,1
78,183,489,697,1
224,313,980,444,1
167,181,318,755,1
333,114,512,644,1
337,137,267,292,1
209,167,70,151,1
154,299,918,675,1
300,171,561,229,1
420,251,331,301,1
511,205,316,405,1
302,201,154,369,1
7,286,260,67,1
108,85,200,168,1
239,101,217,270,1
316,399,342,272,1
175,263,130,216,1
213,399,301,6,1
169,255,527,333,1
97,731,561,558,1
118,36,375,176,1
134,14,826,274,1
495,414,146,96,1
168,218,832,62,1
17,250,473,22,1
8,74,557,544,1
126,129,1023,104,1
512,555,174,322,1
170,7,383,483,1
297,189,1023,388,1
388,385,427,287,1
237,120,15,264,1
260,363,219,32,1
256,24,633,303,1
75,223,28,92,1
3,200,236,334,1
197,443,125,152,1
267,209,590,440,1
40,272,3,422,1
199,230,495,251,1
108,42,7,75,1
15,108,393,72,1
462,379,403,212,1
74,59,205,188,1
229,182,275,133,1
186,226,307,335,1
0,46,495,2,1
197,335,137,120,1
110,82,199,129,1
285,235,78,39,1
219,216,487,315,1
94,14,549,529,1
260,407,123,213,1
9,191,35,365,1
173,493,216,199,1
312,215,421,71,1
101,239,209,198,1
490,395,340,49,1
314,182,223,50,1
30,15,485,40,1
41,14,503,395,1
250,105,132,372,1
746,713,49,4,1
405,329,292,15,1
49,123,300,260,1
153,475,113,241,1
113,337,186,338,1
566,698,512,374,1
199,427,486,192,1
309,144,513,533,1
130,87,259,151,1
2,52,18,373,1
406,333,202,2,1
47,178,528,90,1
218,113,474,236,1
143,156,326,290,1
6,132,313,273,1
298,30,173,114,1
234,71,0,382,1
9,189,71,185,1
14,58,113,102,1
140,206,218,481,1
235,130,345,1023,1
153,201,158,82,1
267,123,513,187,1
315,181,223,258,1
150,111,402,403,1
162,312,6,426,1
69,13,530,341,1
143,159,567,15,1
284,17,151,136,1
17,164,177,398,1
473,326,178,309,1
215,218,269,279,1
207,130,79,427,1
44,30,16,435,1
151,71,373,387,1
108,135,643,286,1
121,213,542,681,1
397,10,363,397,1
441,129,185,379,1
111,109,159,347,1
230,214,45,41,1
77,209,492,447,1
183,37,131,299,1
127,213,345,57,1
14,35,103,5,1
337,124,6,433,1
165,205,181,463,1
104,161,257,276,1
27,300,10,115,1
162,24,139,338,1
305,285,0,114,1
229,143,16,22,1
82,73,57,40,1
119,71,195,98,1
64,98,85,535,1
221,23,278,298,1
2,22,158,153,1
184,79,46,73,1
251,202,19,104,1
121,161,73,522,1
289,502,54,572,1
213,221,118,192,1
70,83,189,260,1
57,14,94,76,1
175,204,61,136,1
255,196,66,184,1
29,23,109,3,1
150,244,1,277,1
149,278,199,229,1
14,159,46,401,1
89,386,400,543,1
9,104,41,28,1
286,53,366,56,1
129,204,372,72,1
302,134,153,386,1
202,339,263,66,1
85,240,68,90,1
87,52,15,229,1
262,249,203,141,1
151,60,77,86,1
427,164,0,145,1
231,244,371,31,1
154,139,142,535,1
50,67,384,167,1
14,55,188,290,1
226,216,88,580,1
25,143,87,237,1
47,57,30,694,1
6,15,273,993,1
161,121,414,23,1
338,352,74,346,1
103,92,0,51,1
81,64,152,207,1
269,155,203,69,1
7,31,57,79,1
163,552,141,200,1
283,353,48,4,1
89,18,10,16,1
10,305,0,2,1
53,10,214,128,1
297,257,7,344,1
61,107,396,15,1
145,67,76,356,1
120,134,328,543,1
194,59,68,208,1
157,187,178,448,1
159,104,0,166,1
169,164,51,18,1
64,104,2,206,1
90,8,330,156,1
455,459,160,15,2
29,54,412,215,2
231,270,76,36,2
81,20,198,204,2
85,8,120,64,2
1,20,26,40,2
180,10,92,114,2
154,117,192,9,2
3,26,175,24,2
158,122,139,29,2
287,152,23,99,2
30,108,106,53,2
106,35,132,199,2
146,20,105,168,2
16,46,4,273,2
127,134,62,107,2
10,120,8,55,2
149,7,91,90,2
5,94,196,245,2
137,173,19,48,2
256,230,143,97,2
1,127,23,12,2
32,102,195,186,2
37,210,55,75,2
1,155,56,63,2
0,26,0,6,2
375,165,17,97,2
131,11,61,158,2
9,7,97,13,2
229,222,7,30,2
255,17,40,211,2
22,5,106,91,2
96,45,133,154,2
263,255,81,25,2
124,251,37,60,2
303,171,175,119,2
28,7,40,152,2
42,131,19,8,2
69,12,20,3,2
1,37,7,65,2
254,139,85,96,2
49,7,0,13,2
63,119,5,80,2
36,18,97,78,2
139,62,0,81,2
270,16,140,32,2
28,11,0,84,2
29,91,39,94,2
143,25,24,35,2
1,62,31,15,2
125,138,79,71,2
223,98,84,44,2
146,45,52,86,2
33,93,9,54,2
102,6,0,50,2
164,63,107,133,2
7,86,0,10,2
56,21,37,86,2
129,136,6,27,2
72,226,0,39,2
159,45,76,206,2
166,188,1,124,2
24,19,62,4,2
70,79,1,93,2
71,126,17,203,2
121,50,72,64,2
96,159,23,84,2
133,162,59,40,2
51,7,15,1,2
21,19,37,28,2
241,144,112,156,2
37,42,38,58,2
169,64,19,43,2
294,112,0,6,2
25,40,0,22,2
242,220,49,199,2
32,109,12,1,2
136,94,9,9,2
239,118,49,60,2
7,41,10,10,2
222,199,106,129,2
15,34,22,110,2
102,98,43,135,2
93,176,46,109,2
42,65,0,20,2
318,221,144,148,2
98,177,5,20,2
138,154,119,162,2
196,291,64,46,2
2,125,0,118,2
276,267,195,9,2
117,32,0,1,2
136,5,94,127,2
144,69,12,5,2
15,107,6,2,2
124,17,220,243,2
16,37,61,27,2
200,244,52,95,2
176,160,27,97,2
32,21,7,2,2
243,183,81,82,2
81,258,0,11,2
175,244,55,36,2
207,146,0,9,2
49,12,0,47,2
208,56,14,32,2
96,29,42,28,2
56,33,2,61,2
39,34,36,114,2
76,66,80,4,2
131,61,106,91,2
157,138,33,32,2
100,45,106,141,2
95,8,19,69,2
28,88,43,47,2
186,57,91,44,2
83,73,19,17,2
151,123,140,119,2
17,36,42,117,2
29,50,22,103,2
241,215,78,157,2
70,32,67,51,2
216,132,137,263,2
139,109,57,64,2
4,75,71,40,2
247,111,90,177,2
54,9,83,71,2
80,20,42,1,2
59,17,44,106,2
6,8,4,38,2
280,84,98,47,2
104,11,63,27,2
160,162,59,41,2
126,159,0,67,2
27,109,33,16,2
234,200,13,83,2
74,103,102,29,2
160,189,16,4,2
10,9,132,227,2
50,207,12,122,2
319,117,74,37,2
48,69,145,73,2
117,42,208,27,2
9,232,58,49,2
27,99,195,182,2
3,235,155,317,2
184,61,152,323,2
22,9,274,165,2
68,17,77,188,2
203,329,33,219,2
163,24,281,181,2
262,370,147,136,2
93,47,282,480,2
239,273,120,8,2
78,99,274,443,2
111,283,137,190,2
26,18,245,271,2
10,42,48,224,2
75,73,8,266,2
85,50,204,24,2
412,275,187,293,2
53,74,153,118,2
267,52,248,108,2
301,341,378,554,2
175,24,251,25,2
341,184,449,156,2
188,78,28,397,2
75,179,630,610,2
171,305,9,240,2
115,268,311,406,2
13,11,5,377,2
188,102,58,423,2
259,123,0,311,2
61,230,101,531,2
213,71,183,218,2
219,364,109,172,2
86,51,434,107,2
3,335,272,44,2
176,18,149,181,2
181,259,133,290,2
382,159,224,366,2
129,79,159,248,2
328,75,75,153,2
336,363,39,142,2
160,97,7,562,2
91,142,166,324,2
285,315,0,76,2
597,303,127,317,2
294,33,184,406,2
319,188,26,359,2
262,241,539,244,2
49,23,92,416,2
205,7,510,52,2
370,268,82,303,2
143,111,166,487,2
10,200,85,243,2
297,113,207,69,2
17,216,23,80,2
179,55,207,82,2
158,141,253,57,2
371,271,13,502,2
129,153,164,173,2
105,87,582,496,2
61,305,348,212,2
203,53,463,172,2
304,116,61,149,2
353,197,879,267,2
202,147,57,756,2
154,101,1023,140,2
93,58,341,765,2
252,324,754,219,2
39,148,157,635,2
164,121,117,292,2
60,26,134,9,2
75,12,38,19,2
27,12,228,390,2
180,103,100,1023,2
91,59,428,665,2
173,313,127,366,2
347,161,68,118,2
84,22,31,358,2
94,14,450,219,2
91,16,345,645,2
15,41,105,25,2
115,293,397,127,2
323,34,36,148,2
44,94,273,23,2
179,36,285,164,2
76,78,245,486,2
127,166,538,86,2
264,103,230,567,2
213,215,319,923,2
280,261,23,200,2
418,583,97,1023,2
212,366,11,483,2
264,88,232,43,2
14,192,125,318,2
94,45,920,233,2
95,131,246,332,2
147,34,404,82,2
155,35,902,908,2
57,52,99,6,2
325,269,567,567,2
190,21,517,76,2
534,257,238,532,2
629,512,78,437,2
23,104,122,548,2
202,294,62,381,2
91,230,240,270,2
109,59,178,359,2
113,242,891,20,2
168,135,907,1023,2
143,190,83,421,2
5,20,109,688,2
82,72,218,304,2
770,300,401,206,2
82,143,91,123,2
243,75,404,682,2
312,483,0,166,2
372,28,1006,113,2
61,452,329,192,2
5,149,574,97,2
144,121,414,396,2
318,171,118,625,2
102,246,504,374,2
168,158,351,145,2
25,135,732,370,2
23,841,359,37,2
235,285,777,576,2
440,143,661,347,2
287,100,170,781,2
294,73,836,502,2
63,20,728,1023,2
202,172,716,7,2
53,233,92,596,2
247,76,760,763,2
13,44,911,332,2
22,148,70,224,2
294,450,2,513,2
230,65,0,278,2
414,285,155,37,2
389,206,919,94,2
156,425,474,128,2
66,67,298,483,2
73,142,266,78,2
184,549,527,24,2
374,181,130,171,2
106,32,1023,432,2
186,77,19,144,2
91,213,1023,187,2
389,268,836,56,2
206,115,163,117,2
90,40,622,108,2
34,30,391,402,2
225,263,511,153,2
249,16,325,287,2
383,102,393,921,2
147,431,613,770,2
184,602,527,198,2
100,198,598,465,2
17,271,737,892,2
148,235,510,14,2
107,58,1023,931,2
232,298,604,174,2
28,100,304,124,2
54,226,378,226,2
408,172,79,112,2
20,84,95,649,2
282,81,524,896,2
57,281,65,145,2
378,399,132,89,2
371,183,463,963,2
23,421,139,353,2
141,103,97,349,2
186,278,248,155,2
109,235,346,301,2
147,7,154,421,2
262,257,2,221,2
318,92,130,77,2
69,38,44,45,2
463,369,89,163,2
67,140,3,250,2
318,224,680,69,2
144,188,606,157,2
96,111,420,705,2
91,159,971,383,2
100,167,97,241,2
144,516,394,356,2
376,16,120,168,2
95,52,360,91,2
254,186,27,9,2
145,13,153,122,2
127,26,201,510,2
36,175,423,839,2
19,38,32,483,2
247,365,910,984,2
418,206,1023,264,2
12,116,240,634,2
96,252,649,535,2
228,8,9,119,2
324,292,131,146,2
49,86,208,322,2
356,211,367,149,2
455,144,98,19,2
197,244,236,25,2
230,447,326,369,2
3,338,122,369,2
183,47,307,97,2
81,213,66,44,2
27,98,332,566,2
371,335,318,136,2
35,49,111,127,2
161,14,254,38,2
158,70,446,5,2
131,71,0,462,2
492,204,651,117,2
158,101,618,336,2
238,204,3,9,2
148,464,263,190,2
1,228,454,190,2
290,200,343,51,2
294,581,504,353,2
72,65,425,835,2
266,21,159,196,2
28,8,385,310,2
167,159,224,4,2
114,104,72,328,2
325,70,507,213,2
181,178,309,197,2
181,499,282,219,2
398,22,285,552,2
171,12,565,395,2
372,237,562,56,2
291,291,462,637,2
41,231,445,119,2
390,265,450,112,2
28,217,391,239,2
276,265,278,369,2
190,309,181,120,2
74,61,3,119,2
140,142,149,15,2
8,58,177,506,2
123,70,764,287,2
137,190,70,235,2
305,76,644,471,2
387,224,6,673,2
83,53,166,171,2
7,225,201,408,2
328,338,258,112,2
195,93,242,79,2
273,406,466,214,2
32,221,366,8,2
159,180,145,278,2
401,39,124,439,2
32,68,481,102,2
157,124,132,86,2
88,140,410,283,2
123,80,243,67,2
241,161,37,239,2
64,19,0,183,2
323,258,96,41,2
72,206,39,232,2
141,225,16,194,2
23,218,103,11,2
57,217,67,304,2
313,125,217,18,2
339,55,0,52,2
3,235,27,537,2
14,111,154,204,2
159,156,100,480,2
525,506,74,276,2
124,20,157,277,2
44,173,467,290,2
204,59,277,436,2
3,101,1,73,2
264,150,429,202,2
174,361,111,173,2
7,268,38,315,2
323,383,112,25,2
168,449,352,456,2
0,9,311,698,2
117,153,514,215,2
297,51,117,255,2
153,79,70,249,2
24,21,56,285,2
206,168,122,192,2
98,17,493,282,2
283,47,714,123,2
244,24,451,418,2
15,84,418,312,2
412,374,243,82,2
20,39,211,96,2
30,282,87,256,2
136,621,211,502,2
249,193,246,18,2
47,490,207,207,2
95,60,130,195,2
139,227,224,313,2
20,7,240,264,2
108,88,146,142,2
380,61,202,110,2
54,6,322,228,2
38,45,0,204,2
9,42,240,100,2
116,22,63,2,2
98,228,49,56,2
150,127,377,138,2
79,10,186,160,2
109,19,338,141,2
13,122,304,157,2
283,22,13,175,2
121,138,368,232,2
118,227,428,581,2
51,58,334,26,2
209,138,550,214,2
62,42,59,430,2
54,74,346,376,2
0,39,0,93,2
126,9,82,18,2
163,15,163,506,2
172,183,0,87,2
165,39,15,62,2
224,101,211,71,2
11,16,187,19,2
100,125,503,337,2
254,167,104,127,2
146,189,129,57,2
24,176,227,164,2
224,155,0,105,2
22,78,526,180,2
265,96,278,227,2
14,71,9,35,2
167,160,117,134,2
63,36,66,6,2
65,85,75,77,2
327,177,248,50,2
79,94,160,25,2
189,125,127,71,2
107,12,185,214,2
38,104,362,26,2
265,87,302,46,2
54,50,55,76,2
43,102,135,219,2
430,140,20,90,2
215,56,22,62,2
0,81,228,101,2
228,18,116,25,2
255,227,53,16,2
31,98,218,167,2
48,22,264,108,2
125,138,4,67,2
74,59,117,53,2
47,22,0,49,2
124,49,79,18,2
42,164,29,13,2
5,11,230,144,2
450,245,2,114,2
190,158,152,140,2
6,143,0,60,2
206,23,0,95,2
329,64,45,103,2
174,118,109,39,2
172,161,112,130,2
363,14,88,3,2
203,53,257,163,2
75,368,0,3,2
255,43,55,65,2
149,159,31,2,2
116,269,97,105,2
15,106,28,103,2
191,14,154,26,2
79,159,0,89,2
78,64,21,85,2
166,223,0,7,2
28,147,0,67,2
243,10,102,115,2
106,195,0,33,2
9,258,44,55,2
119,101,23,90,2
6,83,0,40,2
177,223,101,86,2
121,199,0,46,2
204,11,65,107,2
89,193,76,37,2
7,70,0,2,2
269,53,91,93,2
64,101,7,33,2
138,127,31,145,2
104,79,74,54,2
18,53,2,82,2
160,20,77,150,2
59,61,11,74,2
109,94,77,107,2
163,92,48,74,2
6,10,1,63,2
249,187,49,43,2
55,58,0,66,2
157,50,10,123,2
101,81,33,26,2
80,146,23,1,2
227,261,24,158,2
135,88,0,15,2
96,272,63,91,2
191,213,33,37,2
49,60,0,2,2
187,82,96,104,2
148,127,0,43,2
162,77,73,2,2
0,54,2,127,2
43,94,1,49,2
286,243,73,55,2
41,113,5,26,2
5,8,83,91,2
208,282,30,40,2
37,125,1,2,2
188,98,106,216,2
53,94,0,87,2
3,27,26,56,2
41,10,25,116,2
15,89,0,62,2
148,128,27,143,2
68,12,0,59,2
129,6,0,85,2
163,188,0,4,2
105,105,34,7,2
164,75,87,86,2
60,150,43,75,2
119,36,103,14,2
157,184,44,112,2
111,198,23,6,2
209,94,60,80,2
126,47,73,87,2
96,10,112,64,2
266,223,58,30,2
120,181,28,23,2
308,242,180,85,2
37,64,8,18,2
174,94,95,20,2
140,8,0,12,2
62,259,143,76,2
181,60,60,145,2
83,203,22,81,2
48,29,117,2,2
175,83,0,17,2
18,12,62,47,2
155,23,87,22,2
39,114,7,114,2
55,63,15,56,2
113,20,0,208,2
73,83,54,141,2
252,153,157,420,2
89,9,171,112,2
130,257,91,255,2
122,61,102,166,2
41,43,0,52,2
153,38,79,70,2
9,137,58,45,2
83,84,25,3,2
133,33,20,173,2
12,31,0,56,2
199,98,68,102,2
151,160,0,22,2
125,5,149,84,2
129,48,31,75,2
53,35,61,51,2
302,241,36,55,2
146,142,39,30,2
207,77,38,57,2
166,95,54,4,2
28,113,0,19,2
239,169,146,98,2
85,8,72,163,2
125,208,153,231,2
87,141,178,64,2
41,81,155,241,2
388,272,89,33,2
99,167,79,18,2
88,49,123,57,2
140,129,17,324,2
15,8,207,260,2
302,275,38,158,2
1,46,59,51,2
172,96,275,289,2
210,79,20,67,2
10,7,379,257,2
214,27,144,83,2
185,117,224,302,2
32,135,12,129,2
69,22,198,259,2
47,70,1,278,2
42,109,188,590,2
78,7,101,55,2
291,32,16,59,2
180,11,0,21,2
109,50,156,15,2
221,129,155,131,2
216,185,387,244,2
20,18,196,197,2
271,272,173,145,2
77,33,135,155,2
275,124,247,167,2
9,58,0,342,2
595,327,399,188,2
137,69,0,584,2
54,67,83,135,2
393,236,52,230,2
44,8,131,61,2
132,52,96,99,2
220,14,125,98,2
10,65,153,7,2
44,89,57,264,2
20,148,108,30,2
512,324,241,441,2
429,237,106,209,2
13,44,23,115,2
323,231,19,68,2
352,356,341,148,2
47,21,51,262,2
267,103,589,149,2
515,95,13,467,2
401,106,375,221,2
204,23,393,296,2
412,95,23,192,2
411,405,604,265,2
3,141,418,102,2
115,260,477,123,2
99,114,569,371,2
387,520,56,7,2
197,118,254,427,2
578,378,0,50,2
1023,838,9,140,2
5,5,223,192,2
411,100,286,9,2
730,539,31,53,2
538,293,152,284,2
192,82,431,37,2
714,161,127,209,2
721,253,366,13,2
99,79,440,425,2
344,205,441,199,2
616,369,198,453,2
195,391,167,350,2
230,157,169,826,2
20,115,152,139,2
112,60,261,436,2
79,326,617,558,2
193,158,374,133,2
84,84,257,412,2
532,160,161,213,2
455,375,91,374,2
74,357,781,118,2
52,29,279,1023,2
121,106,1023,1023,2
632,74,466,290,2
103,106,529,632,2
573,297,328,321,2
136,19,336,205,2
235,55,257,68,2
130,154,521,148,2
2,346,214,11,2
374,153,202,369,2
232,145,333,167,2
265,165,529,129,2
265,312,250,192,2
86,33,0,40,2
327,127,487,300,2
25,455,170,10,2
16,91,46,348,2
222,371,219,713,2
204,105,208,103,2
354,324,93,330,2
373,212,19,49,2
115,35,331,565,2
23,8,136,1023,2
75,131,288,373,2
106,257,1011,610,2
61,85,571,149,2
179,194,627,57,2
187,167,533,726,2
116,353,83,449,2
301,33,285,484,2
433,269,58,442,2
357,387,205,126,2
74,114,74,745,2
65,272,99,1023,2
345,127,921,45,2
158,79,276,520,2
265,79,343,273,2
147,151,139,599,2
42,194,706,531,2
62,70,263,690,2
220,51,974,369,2
223,80,148,260,2
390,141,832,566,2
271,29,74,664,2
688,507,82,1023,2
88,244,314,1023,2
285,96,325,384,2
430,313,102,296,2
231,102,307,142,2
175,14,121,314,2
354,245,1023,304,2
768,456,335,609,2
35,61,648,301,2
36,85,288,190,2
34,239,611,59,2
24,273,696,89,2
199,75,326,607,2
259,102,631,80,2
325,286,179,14,2
427,356,29,191,2
52,14,952,851,2
263,74,605,232,2
233,210,617,270,2
29,149,711,705,2
95,7,407,22,2
202,26,523,1023,2
175,174,1023,722,2
48,11,218,524,2
227,86,842,608,2
305,409,235,115,2
70,75,656,596,2
315,182,161,280,2
438,231,801,778,2
13,31,245,401,2
379,385,152,16,2
108,195,353,165,2
23,251,238,142,2
4,552,149,471,2
193,397,1002,234,2
91,410,451,548,2
91,74,508,403,2
261,166,299,367,2
176,57,1023,513,2
265,107,1023,516,2
253,140,210,113,2
313,205,644,247,2
268,30,880,144,2
490,441,1023,1023,2
92,116,1023,550,2
19,289,1023,141,2
169,66,965,273,2
268,76,239,16,2
80,392,246,196,2
270,284,106,223,2
380,70,0,175,2
129,126,560,479,2
84,147,9,33,2
419,626,563,612,2
224,107,257,483,2
196,115,883,24,2
277,66,720,365,2
135,11,739,397,2
208,45,381,198,2
93,171,256,422,2
238,70,461,559,2
140,23,194,45,2
108,200,190,43,2
284,111,534,227,2
23,29,288,165,2
95,387,472,151,2
6,377,265,633,2
155,425,360,475,2
108,20,472,832,2
8,32,488,45,2
480,351,597,297,2
347,222,546,245,2
226,91,538,806,2
19,95,175,567,2
15,13,629,61,2
444,247,87,104,2
229,16,390,105,2
63,26,339,50,2
286,67,411,253,2
24,61,505,12,2
594,392,139,24,2
122,118,0,142,2
204,174,422,364,2
96,7,614,127,2
33,143,0,158,2
580,530,248,294,2
299,312,124,167,2
310,436,306,219,2
371,277,179,22,2
2,88,47,486,2
370,300,482,404,2
29,251,303,185,2
73,41,153,187,2
8,190,276,99,2
131,81,206,151,2
353,441,152,188,2
174,134,66,205,2
31,74,21,181,2
106,176,386,224,2
12,486,96,26,2
488,93,240,405,2
314,125,193,301,2
296,603,168,482,2
420,353,45,297,2
234,227,633,83,2
303,271,51,302,2
136,62,0,293,2
371,163,0,270,2
400,397,380,44,2
31,25,112,197,2
435,328,768,288,2
364,319,409,121,2
39,69,217,234,2
55,144,105,24,2
145,123,47,358,2
341,41,189,533,2
69,50,394,95,2
10,5,290,222,2
546,338,238,573,2
204,17,574,142,2
215,15,573,464,2
356,404,156,30,2
49,42,226,22,2
411,365,449,401,2
71,47,0,196,2
417,497,490,64,2
222,275,344,89,2
47,153,1023,376,2
81,28,57,335,2
59,148,2,363,2
657,638,13,73,2
148,13,264,139,2
242,104,184,75,2
311,260,12,343,2
1,71,11,739,2
343,326,173,356,2
171,233,141,4,2
121,123,0,266,2
161,353,138,7,2
17,48,148,124,2
176,129,24,410,2
334,10,193,2,2
96,62,655,586,2
330,395,126,139,2
65,86,764,275,2
401,558,280,274,2
80,16,18,92,2
123,28,515,393,2
286,148,230,357,2
190,76,746,220,2
32,106,232,440,2
217,12,304,239,2
90,143,345,401,2
355,415,44,53,2
87,15,82,252,2
298,74,158,168,2
141,237,366,186,2
6,65,593,143,2
65,318,52,436,2
59,466,419,152,2
427,822,345,142,2
188,35,103,490,2
477,380,267,327,2
178,47,125,510,2
110,55,557,662,2
236,261,505,7,2
31,132,139,259,2
349,144,253,452,2
9,123,177,204,2
10,15,148,578,2
111,139,23,11,2
42,310,240,605,2
126,216,164,401,2
228,124,111,118,2
7,93,39,246,2
230,464,69,20,2
8,32,0,204,2
243,430,5,349,2
391,261,11,13,2
49,94,566,233,2
305,83,434,70,2
37,7,414,310,2
153,152,63,86,2
197,233,103,228,2
214,22,72,57,2
312,338,268,418,2
128,273,172,6,2
194,69,334,436,2
212,232,85,398,2
78,89,535,579,2
278,515,178,245,2
247,120,0,132,2
141,203,35,127,2
41,75,44,119,2
50,329,40,172,2
282,393,142,6,2
161,211,169,65,2
84,28,44,90,2
392,185,18,22,2
24,33,135,11,2
246,111,74,22,2
35,34,383,213,2
104,159,143,467,2
68,149,297,3,2
17,10,103,267,2
172,249,92,5,2
6,46,374,296,2
85,205,129,177,2
118,236,474,518,2
16,12,20,66,2
426,514,237,127,2
70,71,86,3,2
1,36,138,3,2
59,213,139,99,2
339,193,268,22,2
319,54,316,150,2
15,7,134,70,2
61,80,129,130,2
77,64,51,3,2
38,95,119,14,2
251,125,245,228,2
8,127,22,78,2
242,25,237,387,2
185,45,285,201,2
113,136,272,118,2
161,213,134,73,2
69,133,67,55,2
46,35,46,63,2
178,31,69,14,2
103,213,47,14,2
6,52,58,69,2
40,177,48,61,2
319,153,42,140,2
25,7,38,129,2
47,37,0,323,2
196,81,62,133,2
15,20,179,34,2
41,47,141,36,2
254,84,51,214,2
50,61,98,405,2
9,179,152,570,2
187,122,254,33,2
108,211,109,35,2
2,123,116,262,2
275,15,0,239,2
268,58,40,96,2
42,9,106,1,2
7,154,27,22,2
146,74,11,22,2
187,211,0,66,2
110,85,0,190,2
225,197,7,100,2
192,191,0,38,2
128,15,92,148,2
100,109,66,82,2
386,391,43,27,2
34,8,39,140,2
42,8,102,178,2
126,100,41,11,2
44,82,21,33,2
211,7,78,104,2
21,31,13,96,2
138,247,90,135,2
214,118,55,12,2
40,98,7,67,2
108,140,114,232,2
105,21,20,132,2
141,63,80,39,2
103,170,33,57,2
112,124,0,21,2
104,44,64,96,2
33,41,0,41,2
84,154,52,97,2
178,103,25,71,2
6,73,17,82,2
147,211,43,1,2
185,136,0,1,2
36,110,29,46,2
63,97,20,55,2
35,46,12,10,2
191,10,78,69,2
11,94,0,30,2
189,123,51,42,2
294,243,70,42,2
3,137,43,48,2
219,223,185,123,2
31,38,0,1,2
151,101,92,58,2
228,205,0,68,2
93,107,29,33,2
250,126,79,98,2
10,23,0,1,2
186,157,46,62,2
185,77,28,83,2
8,5,24,11,2
249,183,55,82,2
53,31,22,95,2
63,22,4,95,2
142,73,30,63,2
58,11,0,1,2
121,15,106,129,2
99,11,0,31,2
32,62,124,92,2
62,27,27,52,2
147,99,89,40,2
248,256,95,39,2
67,165,0,49,2
133,34,31,26,2
125,153,77,59,2
25,68,12,8,2
225,202,98,98,2
18,36,0,1,2
80,17,50,50,2
71,17,34,71,2
27,61,22,34,2
204,130,66,105,2
57,12,5,31,2
95,11,73,100,2
139,182,28,37,2
55,48,0,42,2
158,14,57,153,2
113,114,1,46,2
63,20,1,81,2
89,54,45,9,2
12,11,23,35,2
314,229,86,147,2
125,191,0,125,2
174,10,109,65,2
195,125,0,105,2
5,19,48,101,2
189,192,73,184,2
121,45,0,4,2
118,115,88,107,2
126,88,14,9,2
42,78,73,71,2
186,69,43,51,2
4,5,0,95,2
31,59,40,138,2
71,61,30,57,2
22,9,30,10,2
240,210,105,156,2
144,191,53,18,2
20,220,59,13,2
152,109,119,8,2
0,17,29,59,2
189,59,58,101,2
106,30,0,97,2
23,84,287,140,2
110,61,52,222,2
133,102,222,221,2
202,31,4,99,2
171,51,95,155,2
165,211,0,3,2
227,142,43,50,2
5,20,161,4,2
232,149,55,35,2
4,124,11,209,2
210,120,0,23,2
61,38,0,155,2
100,69,197,13,2
117,103,44,108,2
220,35,144,8,2
12,91,76,111,2
30,14,113,194,2
15,200,27,373,2
179,16,190,359,2
16,35,138,4,2
71,24,54,257,2
100,13,227,144,2
40,47,0,411,2
177,88,392,213,2
70,13,121,382,2
38,117,372,175,2
28,198,44,318,2
20,136,65,10,2
104,75,45,50,2
141,326,163,308,2
169,220,29,114,2
81,72,269,61,2
183,184,158,61,2
197,37,94,179,2
37,74,158,376,2
224,132,241,11,2
355,26,127,5,2
15,95,49,250,2
294,262,111,203,2
132,13,40,64,2
262,183,51,160,2
180,103,74,502,2
305,9,35,281,2
2,29,30,46,2
4,5,34,166,2
2,90,25,194,2
126,120,49,394,2
45,46,391,76,2
218,10,0,240,2
183,43,64,10,2
111,8,115,275,2
95,163,34,361,2
204,306,273,473,2
7,10,1,346,2
505,82,297,449,2
118,65,15,211,2
164,25,30,391,2
282,213,88,252,2
129,10,409,466,2
299,90,196,151,2
66,74,475,643,2
367,227,0,511,2
34,194,530,371,2
281,17,199,384,2
41,119,493,100,2
168,65,366,326,2
89,178,555,339,2
265,88,61,114,2
463,441,54,619,2
53,32,165,279,2
274,253,548,103,2
434,671,17,365,2
702,235,378,430,2
313,433,446,424,2
593,244,259,586,2
602,585,967,141,2
233,75,638,800,2
294,355,455,221,2
518,353,459,1023,2
327,202,279,429,2
24,337,68,311,2
9,218,269,370,2
186,303,182,55,2
262,403,155,128,2
127,116,454,459,2
236,272,47,233,2
84,213,374,455,2
332,217,282,847,2
388,111,402,257,2
236,221,302,129,2
156,35,132,102,2
4,54,140,885,2
110,28,265,1023,2
2,154,223,129,2
176,155,219,299,2
76,162,686,329,2
267,178,128,67,2
348,70,316,530,2
115,19,202,842,2
309,298,454,893,2
326,51,54,487,2
154,145,274,843,2
101,8,95,291,2
558,605,376,296,2
200,231,273,287,2
306,147,225,1004,2
544,33,175,1009,2
240,533,37,815,2
18,101,1023,745,2
193,84,677,322,2
247,126,686,356,2
230,326,678,348,2
140,260,424,1023,2
162,69,698,342,2
527,428,18,601,2
241,10,948,289,2
72,415,602,242,2
17,62,726,28,2
235,279,649,792,2
79,228,669,57,2
282,181,96,461,2
54,297,774,95,2
144,58,500,598,2
356,22,731,245,2
61,530,3,1023,2
280,34,855,402,2
112,152,875,742,2
84,601,852,433,2
27,258,395,554,2
206,174,520,557,2
490,11,178,5,2
10,118,513,510,2
163,414,1023,618,2
666,569,87,214,2
506,135,897,439,2
22,100,118,501,2
79,130,585,675,2
574,291,496,874,2
576,482,317,322,2
391,625,246,801,2
414,101,268,393,2
231,10,375,234,2
29,91,150,242,2
499,253,237,294,2
166,164,175,153,2
145,109,350,106,2
160,380,85,87,2
280,538,447,260,2
301,77,475,287,2
195,282,822,892,2
191,64,374,311,2
142,206,485,1023,2
230,384,485,1023,2
323,73,197,805,2
18,39,302,618,2
271,172,577,264,2
9,201,360,406,2
311,31,157,188,2
56,193,165,257,2
127,310,44,105,2
307,141,79,58,2
231,405,756,279,2
114,146,496,40,2
147,111,238,100,2
355,278,502,941,2
80,263,777,537,2
56,380,815,127,2
191,456,672,212,2
146,124,1023,265,2
11,247,732,475,2
485,104,64,707,2
55,33,257,523,2
403,202,125,333,2
286,408,1023,595,2
213,205,429,1023,2
297,145,703,1023,2
328,169,93,168,2
481,77,85,857,2
530,285,246,512,2
283,290,342,407,2
191,183,373,143,2
118,87,31,114,2
241,28,69,234,2
317,193,163,165,2
121,241,241,174,2
252,390,538,179,2
454,56,750,277,2
125,398,404,101,2
585,501,655,1023,2
463,599,425,259,2
204,171,65,23,2
412,252,312,326,2
253,366,311,432,2
490,189,378,134,2
14,102,67,397,2
371,199,760,406,2
288,474,732,118,2
39,259,550,478,2
286,414,898,996,2
108,178,410,829,2
83,192,628,663,2
2,31,534,324,2
176,236,160,168,2
14,435,164,513,2
367,90,622,688,2
322,527,152,4,2
337,679,301,170,2
136,213,361,391,2
378,124,464,565,2
78,112,745,176,2
85,351,445,276,2
103,195,392,88,2
84,126,429,184,2
307,222,61,6,2
130,157,526,55,2
12,47,154,555,2
34,38,706,211,2
82,84,53,97,2
141,316,207,109,2
115,14,201,40,2
79,117,276,181,2
0,229,50,188,2
87,65,0,14,2
260,365,255,14,2
98,39,36,509,2
125,244,35,6,2
44,79,318,175,2
284,156,729,223,2
416,503,1023,424,2
30,258,141,357,2
57,239,235,113,2
220,205,205,172,2
37,24,169,70,2
420,193,144,89,2
328,158,22,105,2
58,18,195,125,2
171,227,353,403,2
12,91,743,326,2
254,622,216,296,2
77,300,798,235,2
265,201,483,126,2
355,298,9,5,2
13,51,957,732,2
46,141,395,227,2
154,352,333,414,2
250,114,469,331,2
242,232,813,597,2
176,60,639,346,2
185,390,183,143,2
17,429,233,458,2
232,87,524,4,2
105,112,312,108,2
46,26,75,190,2
622,785,82,333,2
301,189,248,77,2
136,498,368,70,2
258,38,331,241,2
22,57,317,261,2
402,185,621,108,2
75,158,424,226,2
23,45,99,213,2
170,60,384,11,2
36,9,449,92,2
366,113,518,332,2
314,55,201,53,2
312,133,77,70,2
321,74,326,65,2
71,41,234,153,2
439,358,276,388,2
108,218,6,116,2
387,229,190,567,2
308,83,23,98,2
35,83,167,233,2
386,460,634,317,2
468,391,55,407,2
37,147,658,411,2
172,167,97,92,2
231,310,316,713,2
236,507,1,494,2
44,149,26,81,2
229,214,180,17,2
298,79,125,215,2
245,223,73,24,2
197,220,121,275,2
68,127,187,148,2
45,97,454,43,2
25,71,52,152,2
21,193,193,360,2
520,297,12,15,2
61,156,6,140,2
280,92,228,13,2
163,5,377,354,2
135,185,404,68,2
191,132,388,563,2
139,190,120,362,2
156,180,286,230,2
16,72,226,42,2
275,757,0,52,2
168,572,124,304,2
60,106,155,182,2
174,39,341,183,2
100,142,54,20,2
139,210,291,124,2
83,225,231,437,2
10,150,92,346,2
22,51,177,153,2
31,53,343,57,2
16,40,20,200,2
294,467,40,32,2
236,507,315,43,2
438,66,108,58,2
403,306,80,319,2
76,237,56,51,2
342,113,185,385,2
35,49,3,53,2
216,118,99,320,2
136,92,0,158,2
200,66,580,1023,2
420,342,80,580,2
5,18,509,194,2
252,113,67,50,2
83,159,433,100,2
286,272,181,111,2
420,101,42,312,2
41,387,179,162,2
230,536,75,356,2
236,360,190,149,2
89,206,271,237,2
47,12,48,227,2
134,19,169,52,2
159,13,0,65,2
107,63,10,219,2
6,98,2,92,2
226,233,244,171,2
96,28,286,227,2
57,71,292,381,2
56,16,247,197,2
9,31,134,649,2
140,135,6,420,2
41,83,103,178,2
141,24,84,126,2
90,89,83,176,2
66,128,44,266,2
223,77,263,381,2
182,121,16,157,2
145,146,305,85,2
162,61,0,28,2
150,24,0,8,2
354,355,37,5,2
173,12,145,180,2
102,123,76,99,2
180,86,95,11,2
72,203,29,50,2
224,33,4,292,2
41,239,55,164,2
83,241,200,441,2
130,5,49,176,2
17,21,71,135,2
120,95,155,78,2
57,9,31,84,2
147,148,217,111,2
61,72,127,8,2
72,339,0,75,2
150,285,88,87,2
116,57,97,330,2
202,130,0,191,2
10,98,21,151,2
126,146,51,148,2
408,9,231,197,2
20,60,63,11,2
81,54,212,199,2
196,109,144,41,2
186,94,131,30,2
29,100,220,9,2
289,107,220,256,2
277,180,96,356,2
32,196,0,150,2
192,18,10,11,2
353,22,64,56,2
7,364,0,44,2
154,446,0,189,2
212,119,87,74,2
70,49,44,37,2
164,533,161,22,2
161,65,72,35,2
287,374,7,4,2
121,53,13,114,2
55,241,0,206,2
284,371,112,2,2
60,162,25,93,2
136,160,164,170,2
83,272,46,2,2
70,13,5,34,2
250,102,88,174,2
119,21,0,35,2
27,58,91,71,2
238,150,0,14,2
159,41,12,10,2
174,29,123,173,2
158,17,0,55,2
328,302,93,57,2
25,50,0,106,2
42,176,18,64,2
239,251,93,129,2
30,33,0,9,2
68,41,69,60,2
218,30,0,50,2
6,32,7,23,2
214,246,78,96,2
101,59,7,22,2
184,49,82,106,2
1,109,0,9,2
14,85,13,12,2
188,84,57,79,2
108,112,8,35,2
61,132,124,81,2
178,45,82,5,2
166,233,51,21,2
146,103,107,168,2
8,121,0,20,2
40,87,82,52,2
10,61,19,111,2
61,136,20,131,2
142,20,86,67,2
110,277,0,7,2
194,197,59,76,2
174,251,20,46,2
38,188,8,84,2
198,185,35,58,2
38,6,13,56,2
217,74,110,109,2
97,57,0,7,2
12,99,15,7,2
145,103,92,186,2
41,216,41,14,2
205,127,79,7,2
107,15,5,145,2
26,228,34,108,2
240,215,52,57,2
74,11,0,47,2
93,68,46,84,2
244,234,12,57,2
8,151,7,8,2
300,285,54,109,2
54,109,0,24,2
69,102,34,27,2
25,14,6,64,2
6,138,18,72,2
202,96,67,56,2
71,20,12,15,2
112,43,76,59,2
165,155,44,31,2
16,40,0,22,2
235,226,62,116,2
34,20,3,54,2
156,125,42,39,2
29,34,17,71,2
58,7,44,42,2
201,103,76,105,2
44,31,3,30,2
115,24,53,101,2
136,53,19,49,2
95,109,0,3,2
195,8,75,122,2
51,19,6,31,2
268,157,39,27,2
172,301,3,41,2
47,110,0,16,2
318,175,100,138,2
6,86,19,20,2
204,64,129,204,2
0,165,2,3,2
32,58,36,15,2
33,104,55,14,2
98,90,10,87,2
101,39,77,139,2
143,17,85,38,2
81,139,122,125,2
95,57,129,87,2
32,54,69,41,2
126,169,83,97,2
93,125,15,23,2
45,204,0,77,2
107,20,171,147,2
117,130,0,21,2
9,130,76,14,2
80,5,2,32,2
14,63,109,12,2
212,37,19,8,2
162,223,59,135,2
144,80,53,62,2
37,7,8,25,2
86,82,115,66,2
201,74,26,7,2
21,110,121,13,2
195,119,145,5,2
19,33,58,5,2
55,101,132,201,2
289,6,209,37,2
193,23,0,183,2
76,58,200,184,2
110,176,63,114,2
16,43,23,19,2
78,79,88,10,2
88,107,6,180,2
178,140,41,207,2
7,111,10,94,2
3,141,33,15,2
458,425,95,42,2
240,290,77,107,2
183,6,102,39,2
132,194,380,289,2
24,234,111,185,2
242,66,351,457,2
57,7,28,385,2
207,352,214,550,2
1,147,135,29,2
307,112,45,123,2
80,59,162,11,2
73,207,264,48,2
313,419,50,141,2
224,180,433,22,2
24,73,26,437,2
117,54,184,356,2
141,112,19,125,2
195,258,108,130,2
53,87,32,57,2
64,80,129,253,2
92,7,23,442,2
197,269,181,65,2
284,17,65,487,2
176,22,455,98,2
150,358,105,448,2
257,61,532,378,2
140,435,139,521,2
256,199,396,201,2
133,188,0,61,2
125,97,256,78,2
166,77,346,61,2
372,117,428,211,2
42,27,361,16,2
307,59,68,90,2
35,37,105,293,2
832,454,390,258,2
173,294,0,562,2
298,11,231,507,2
397,146,96,58,2
308,298,534,105,2
65,363,0,21,2
171,81,549,160,2
361,192,17,40,2
262,86,212,329,2
64,61,235,318,2
253,75,160,673,2
72,89,253,387,2
425,277,284,643,2
267,404,273,253,2
293,380,373,54,2
359,346,371,167,2
440,401,243,110,2
332,125,286,3,2
550,514,307,263,2
590,499,844,501,2
36,199,61,475,2
560,510,75,419,2
598,504,416,145,2
552,216,840,260,2
314,75,365,398,2
513,297,721,210,2
203,301,73,1004,2
241,664,322,420,2
478,302,15,329,2
128,69,201,29,2
49,220,385,421,2
563,177,287,151,2
339,496,375,280,2
431,747,573,506,2
520,11,300,187,2
397,205,738,870,2
30,162,168,68,2
224,231,9,752,2
561,18,179,657,2
27,34,693,733,2
411,203,22,104,2
442,16,155,407,2
32,25,194,333,2
286,80,869,606,2
37,77,32,532,2
488,108,1023,332,2
214,404,685,651,2
30,483,840,3,2
127,54,626,116,2
169,602,214,553,2
244,125,377,16,2
92,13,134,82,2
199,65,156,136,2
201,13,325,218,2
270,8,725,606,2
216,106,289,93,2
353,163,686,244,2
63,237,173,351,2
285,158,483,65,2
131,111,124,388,2
454,136,188,208,2
64,5,23,254,2
158,137,321,1023,2
82,116,154,588,2
135,441,73,362,2
31,41,127,225,2
0,185,389,314,2
295,193,10,118,2
138,300,0,183,2
254,451,48,221,2
388,174,85,283,2
73,5,421,527,2
331,271,456,418,2
74,314,415,42,2
178,190,765,223,2
249,287,42,582,2
57,401,325,293,2
82,45,369,337,2
60,474,757,431,2
136,248,71,240,2
416,135,827,590,2
163,71,95,1023,2
8,79,905,961,2
23,257,260,551,2
80,32,855,825,2
97,100,49,254,2
476,140,40,372,2
681,487,884,548,2
471,21,569,81,2
131,61,478,21,2
167,159,196,402,2
202,353,7,239,2
225,115,1023,244,2
141,76,199,427,2
179,336,1023,134,2
359,9,226,1023,2
111,239,711,31,2
308,264,491,933,2
67,554,35,140,2
166,6,900,419,2
576,609,365,435,2
194,82,83,1023,2
197,233,1023,363,2
46,260,25,617,2
175,9,1023,9,2
566,201,478,1023,2
13,7,532,823,2
344,203,14,207,2
54,160,402,46,2
69,17,45,789,2
710,298,284,268,2
116,467,298,139,2
454,69,599,58,2
450,121,109,296,2
313,248,478,140,2
148,44,548,455,2
234,13,79,488,2
189,159,317,855,2
86,327,583,131,2
20,163,600,419,2
175,185,368,324,2
100,198,1023,563,2
298,24,510,112,2
6,170,890,390,2
60,55,393,124,2
280,277,554,784,2
182,27,838,512,2
21,433,958,149,2
101,421,332,189,2
50,178,273,310,2
69,190,112,41,2
3,124,0,20,2
310,402,0,23,2
68,141,280,599,2
288,138,619,148,2
715,524,1023,137,2
118,410,227,213,2
13,214,222,847,2
263,47,172,754,2
313,178,8,156,2
255,159,837,599,2
111,95,1023,405,2
455,132,546,565,2
294,165,894,406,2
238,238,1023,710,2
177,400,81,958,2
436,915,859,196,2
11,182,482,629,2
185,408,1023,171,2
405,228,962,367,2
79,289,448,212,2
67,8,664,666,2
183,179,880,650,2
236,23,721,489,2
203,262,604,671,2
463,378,390,1023,2
306,373,715,122,2
294,167,12,225,2
67,742,264,402,2
65,608,132,147,2
264,198,562,204,2
263,363,595,155,2
331,853,654,118,2
344,239,681,514,2
21,18,787,347,2
704,389,184,53,2
415,68,512,667,2
49,182,87,1023,2
238,364,7,22,2
95,37,237,98,2
183,256,164,324,2
20,66,309,62,2
220,210,50,48,2
324,22,0,106,2
81,170,273,74,2
455,419,127,165,2
113,99,96,147,2
293,328,256,25,2
110,21,41,39,2
81,20,215,86,2
277,121,474,292,2
114,16,49,213,2
132,271,178,255,2
267,121,80,14,2
30,11,428,731,2
318,228,94,327,2
97,7,221,323,2
139,243,459,2,2
129,248,221,125,2
248,225,498,118,2
501,326,582,494,2
213,407,888,266,2
227,201,70,682,2
30,467,414,261,2
45,90,178,63,2
256,356,361,183,2
57,141,480,197,2
