Ch1,Ch2,Ch3,Ch4,label
184,170,168,61,1
200,212,549,389,1
56,11,134,194,1
138,84,58,155,1
41,42,161,128,1
190,102,639,412,1
153,22,82,13,1
62,172,172,130,1
53,39,125,6,1
163,139,40,160,1
121,39,121,231,1
22,85,32,181,1
3,27,217,222,1
108,29,413,358,1
127,216,143,1,1
18,21,401,238,1
305,300,190,232,1
15,35,464,520,1
81,10,19,0,1
59,45,227,67,1
106,5,406,32,1
1,37,187,118,1
28,13,407,267,1
6,213,648,536,1
31,114,379,252,1
48,125,606,362,1
20,141,1023,859,1
87,87,526,555,1
157,154,184,69,1
34,7,593,467,1
134,113,122,242,1
43,40,326,332,1
47,80,567,251,1
174,317,289,85,1
28,223,1023,776,1
280,343,441,498,1
138,212,1023,1009,1
230,404,549,41,1
4,22,984,652,1
498,203,106,632,1
33,12,1023,1023,1
224,197,652,714,1
101,73,59,307,1
95,25,241,513,1
137,10,939,820,1
276,265,95,42,1
514,386,1023,1023,1
130,250,32,261,1
496,90,282,236,1
256,147,334,302,1
353,118,81,302,1
73,62,468,220,1
158,74,407,234,1
69,150,191,817,1
378,6,455,321,1
480,247,314,108,1
226,8,555,190,1
33,177,214,17,1
332,220,484,9,1
84,29,691,139,1
172,189,393,371,1
94,74,205,517,1
4,455,966,1023,1
375,10,102,57,1
444,197,470,739,1
86,54,343,344,1
76,7,520,1023,1
156,178,357,800,1
29,180,348,338,1
158,151,372,886,1
28,23,39,882,1
84,194,676,735,1
211,163,457,475,1
119,43,22,231,1
64,43,167,278,1
188,39,1023,752,1
476,509,43,49,1
56,188,599,217,1
817,561,414,399,1
382,182,33,133,1
91,97,310,576,1
337,10,594,74,1
53,178,1023,815,1
148,154,579,7,1
513,437,1023,1023,1
79,154,389,450,1
87,105,49,121,1
664,229,387,456,1
426,82,1019,982,1
196,320,1023,1023,1
306,152,21,995,1
294,54,776,424,1
6,604,717,556,1
523,238,434,457,1
291,171,49,138,1
2,293,334,261,1
373,217,520,997,1
256,147,702,826,1
37,65,546,529,1
160,100,712,601,1
121,107,308,101,1
238,238,1023,1023,1
825,223,1023,1023,1
59,48,32,833,1
288,212,1023,1023,1
136,26,235,396,1
201,402,680,954,1
385,190,179,593,1
324,57,775,291,1
50,134,1023,166,1
72,20,69,214,1
195,21,1023,694,1
227,91,652,756,1
425,181,769,587,1
488,121,161,782,1
228,23,447,428,1
457,120,163,831,1
12,12,5,555,1
151,123,132,165,1
552,409,502,985,1
8,73,513,859,1
236,16,344,114,1
18,65,211,1023,1
466,23,968,387,1
140,92,1023,236,1
46,406,109,341,1
6,30,1023,1023,1
291,39,1023,1023,1
83,355,562,10,1
507,574,1023,776,1
59,46,422,1023,1
12,206,854,1023,1
18,79,1023,1023,1
110,401,1023,886,1
126,420,920,703,1
20,94,210,15,1
50,197,243,211,1
152,104,1023,1023,1
139,223,1023,1023,1
192,9,304,411,1
33,100,1023,998,1
148,346,967,281,1
140,288,696,929,1
63,125,852,1023,1
427,272,562,405,1
585,156,263,1023,1
380,473,262,478,1
369,197,577,998,1
78,132,491,954,1
189,78,546,408,1
89,58,1023,846,1
340,138,1023,563,1
90,222,421,280,1
283,617,788,0,1
70,170,290,583,1
13,91,830,190,1
10,91,179,290,1
280,330,1023,706,1
7,410,333,843,1
0,5,1023,1023,1
20,183,1023,159,1
157,75,110,354,1
294,261,557,369,1
124,49,124,0,1
46,179,419,694,1
127,105,527,312,1
20,131,170,93,1
19,35,582,14,1
320,328,784,884,1
239,264,1023,614,1
58,45,588,211,1
30,19,119,633,1
158,113,851,518,1
102,34,247,7,1
11,55,130,159,1
129,106,114,47,1
239,454,265,202,1
24,9,1023,833,1
219,307,268,132,1
100,5,984,886,1
269,149,1023,1023,1
262,94,759,128,1
10,63,956,772,1
162,125,1023,883,1
451,468,1023,232,1
118,40,43,209,1
102,100,585,396,1
196,211,566,393,1
41,133,459,374,1
190,265,150,42,1
50,117,330,281,1
314,330,450,201,1
66,84,197,215,1
105,166,787,519,1
12,45,671,285,1
79,81,618,511,1
275,254,50,19,1
51,247,659,521,1
132,259,595,323,1
122,57,248,124,1
144,98,481,0,1
62,54,460,129,1
57,26,122,129,1
83,113,152,30,1
136,16,889,987,1
98,208,585,897,1
60,159,493,488,1
62,12,74,209,1
173,10,378,233,1
77,15,811,738,1
78,32,770,429,1
174,40,318,25,1
137,151,117,134,1
156,152,282,216,1
130,129,30,298,1
72,18,50,89,1
365,24,195,412,1
9,83,174,180,1
28,208,79,87,1
93,39,70,31,1
212,352,85,269,1
105,144,341,597,1
71,14,558,553,1
172,160,403,439,1
167,63,557,333,1
160,11,45,656,1
25,47,126,352,1
119,144,180,183,1
345,9,575,584,1
12,139,503,243,1
94,132,156,173,1
314,234,521,346,1
192,57,430,359,1
137,39,90,176,1
235,59,99,156,1
286,180,218,5,1
25,151,359,144,1
25,39,313,461,1
23,111,683,693,1
149,55,660,120,1
87,306,407,187,1
189,200,390,236,1
168,145,394,97,1
144,47,286,237,1
349,228,85,143,1
376,143,206,307,1
124,135,298,890,1
76,329,51,114,1
100,466,225,269,1
82,44,366,49,1
75,251,182,161,1
31,108,52,65,1
19,105,241,171,1
153,12,12,10,1
88,9,303,679,1
161,94,449,382,1
67,9,304,187,1
89,146,8,98,1
23,45,36,101,1
15,17,355,361,1
226,12,407,618,1
197,101,309,262,1
125,31,711,1023,1
182,37,844,856,1
123,40,188,126,1
11,72,244,185,1
222,14,195,6,1
7,92,312,306,1
54,223,291,28,1
5,156,706,439,1
121,56,532,464,1
137,13,352,1,1
53,97,448,527,1
277,99,253,512,1
169,103,211,433,1
150,47,211,454,1
85,30,263,237,1
249,25,547,228,1
198,228,385,426,1
83,112,364,195,1
404,512,219,420,1
111,155,382,129,1
43,11,31,359,1
168,55,75,122,1
684,716,1023,629,1
56,19,504,110,1
359,622,1023,1023,1
166,157,555,506,1
80,32,548,311,1
33,78,67,259,1
18,303,316,250,1
22,12,452,643,1
115,71,110,228,1
231,287,353,502,1
558,403,159,169,1
274,398,232,196,1
90,141,386,272,1
345,381,400,0,1
81,69,106,591,1
43,123,334,253,1
140,147,33,261,1
104,295,59,41,1
84,115,260,341,1
40,258,152,115,1
78,634,29,146,1
4,348,259,281,1
117,250,134,229,1
105,120,276,163,1
119,162,575,71,1
121,257,489,176,1
5,70,558,3,1
17,61,117,163,1
81,75,74,6,1
462,315,238,148,1
223,109,141,254,1
153,35,17,47,1
111,47,195,3,1
20,17,126,386,1
40,82,279,263,1
63,555,145,23,1
22,180,46,161,1
76,195,238,143,1
186,302,261,173,1
1,21,214,200,1
101,184,74,288,1
6,30,230,230,1
23,20,136,194,1
194,308,637,376,1
45,51,245,4,1
39,143,313,158,1
22,28,37,15,1
41,5,290,295,1
292,183,278,147,1
120,11,228,343,1
25,147,145,49,1
101,88,189,330,1
2,166,112,54,1
32,233,163,174,1
151,10,14,112,1
62,56,40,16,1
114,123,81,4,1
7,30,66,20,1
33,142,7,158,1
155,27,291,245,1
73,163,377,394,1
164,270,577,226,1
369,503,574,657,1
4,47,390,359,1
10,6,392,348,1
59,65,186,336,1
286,249,345,342,1
3,25,304,393,1
83,132,201,199,1
244,361,117,30,1
102,107,165,46,1
131,211,155,43,1
26,13,34,96,1
41,21,301,286,1
0,44,92,345,1
67,113,31,98,1
157,25,246,353,1
167,22,340,22,1
124,79,109,189,1
153,124,5,71,1
248,459,359,362,1
209,281,168,147,1
63,74,145,94,1
14,8,237,253,1
54,127,24,0,1
76,48,247,12,1
0,133,244,249,1
32,84,477,265,1
69,149,35,230,1
1,14,46,92,1
7,102,168,48,1
70,123,186,195,1
0,66,164,75,1
100,16,264,197,1
1,118,168,52,1
136,327,267,205,1
75,156,46,93,1
148,151,100,34,1
74,16,73,253,1
1,71,81,46,1
95,112,302,103,1
132,59,167,206,1
108,46,202,27,1
4,214,167,15,1
48,20,90,0,1
123,63,46,169,1
97,232,92,334,1
143,55,201,356,1
18,67,261,12,1
27,142,6,5,1
41,97,100,23,1
73,143,172,281,1
10,76,283,396,1
75,101,245,16,1
4,58,66,136,1
29,121,87,39,1
11,6,705,462,1
62,153,465,695,1
314,76,282,365,1
216,30,460,465,1
145,237,265,222,1
147,92,186,134,1
275,124,181,5,1
113,80,310,446,1
408,134,695,1023,1
231,77,427,499,1
3,75,217,13,1
33,69,653,457,1
33,220,18,108,1
762,279,678,624,1
251,299,81,476,1
387,205,15,294,1
138,85,408,350,1
82,265,321,623,1
4,10,197,280,1
20,91,108,316,1
199,104,43,426,1
67,220,103,429,1
392,49,269,329,1
194,368,640,640,1
137,91,141,814,1
324,47,1023,1023,1
394,166,539,664,1
242,143,480,940,1
375,43,914,1023,1
295,75,321,239,1
538,50,244,19,1
109,534,766,706,1
16,272,227,0,1
122,267,128,319,1
254,202,218,693,1
255,17,34,53,1
230,332,825,587,1
316,76,828,821,1
214,247,690,23,1
118,58,852,688,1
131,21,921,734,1
129,494,211,295,1
26,381,762,499,1
467,33,202,117,1
432,273,616,102,1
709,368,1023,1023,1
240,87,1023,637,1
183,210,322,156,1
51,172,93,374,1
2,137,169,533,1
736,521,22,26,1
302,222,640,231,1
382,202,637,461,1
210,117,506,638,1
242,56,249,230,1
380,125,16,313,1
250,572,159,47,1
154,65,759,722,1
227,495,201,1023,1
151,261,170,63,1
71,152,181,675,1
134,324,396,634,1
552,185,389,313,1
323,211,344,1023,1
107,12,446,632,1
14,254,743,602,1
415,710,894,816,1
90,7,212,340,1
354,112,259,669,1
23,15,778,1023,1
17,196,478,51,1
10,28,651,260,1
539,112,251,500,1
31,302,1023,652,1
99,157,1023,1023,1
118,53,647,187,1
428,57,882,1023,1
292,443,164,116,1
283,76,75,1023,1
224,160,98,672,1
96,223,178,0,1
19,270,139,35,1
208,57,324,439,1
187,7,443,362,1
401,244,397,1023,1
273,281,336,112,1
138,189,355,232,1
121,341,172,520,1
458,45,851,955,1
394,44,977,519,1
31,177,841,1023,1
46,75,1023,1023,1
140,253,56,457,1
244,305,1023,516,1
661,321,271,29,1
278,138,75,536,1
182,144,617,221,1
31,17,1023,764,1
615,368,957,84,1
187,546,108,139,1
87,84,1023,1023,1
230,199,249,213,1
397,101,102,516,1
35,48,373,431,1
119,50,132,87,1
123,145,1023,502,1
35,101,1023,830,1
94,123,321,1023,1
175,89,635,428,1
195,63,755,1023,1
220,22,1023,937,1
161,309,1023,1023,1
42,65,1023,394,1
272,13,257,424,1
376,407,1023,1023,1
271,270,1023,963,1
184,32,466,103,1
230,134,477,93,1
275,214,1023,952,1
135,113,487,580,1
204,99,1023,1023,1
123,34,583,36,1
41,157,287,277,1
187,187,420,15,1
414,372,248,277,1
89,70,301,96,1
68,9,263,61,1
140,26,300,937,1
228,251,942,1023,1
103,281,379,332,1
238,250,188,86,1
211,229,136,88,1
18,135,25,37,1
160,52,653,670,1
58,65,667,359,1
142,137,29,107,1
121,118,497,286,1
74,241,251,515,1
566,595,44,200,1
35,49,40,109,1
90,86,400,569,1
110,21,123,83,1
74,214,624,552,1
45,79,268,247,1
110,79,309,42,1
61,125,464,56,1
82,48,721,190,1
144,119,203,209,1
231,415,713,341,1
325,304,136,599,1
9,193,52,454,1
8,101,168,200,1
52,91,1023,409,1
51,34,597,32,1
140,134,183,144,1
125,22,651,616,1
74,114,498,10,1
56,113,60,116,1
33,19,488,449,1
53,172,22,121,1
46,158,81,164,1
249,128,22,20,1
98,55,308,432,1
99,147,162,0,1
4,15,63,482,1
2,90,758,670,1
192,207,493,226,1
91,142,329,561,1
64,41,338,271,1
54,40,437,611,1
192,73,507,537,1
109,39,198,290,1
126,126,420,407,1
94,103,425,461,1
67,76,10,438,1
134,401,392,800,1
164,103,457,510,1
155,15,337,512,1
115,94,541,487,1
2,16,527,589,1
47,87,1023,550,1
257,127,25,531,1
69,128,302,603,1
318,263,139,55,1
61,13,84,99,1
6,233,337,164,1
219,295,385,342,1
87,39,887,339,1
42,87,219,272,1
19,52,366,196,1
118,212,501,417,1
171,291,450,41,1
319,239,614,439,1
233,65,107,73,1
185,146,1023,469,1
112,20,185,30,1
153,43,153,0,1
11,66,589,259,1
57,31,531,101,1
102,55,1023,643,1
89,208,439,25,1
266,227,1023,485,1
276,511,682,374,1
135,69,66,67,1
200,246,610,623,1
51,46,236,262,1
35,270,482,520,1
226,253,790,765,1
187,22,372,298,1
133,149,267,125,1
78,6,9,2,1
80,45,849,530,1
333,139,123,0,1
188,75,555,676,1
92,211,5,174,1
172,61,709,563,1
23,87,1023,1023,1
27,389,342,343,1
115,271,565,492,1
50,244,601,195,1
359,120,201,423,1
82,291,317,952,1
148,12,298,595,1
155,344,21,2,1
113,52,100,444,1
533,368,813,935,1
3,114,366,387,1
183,482,43,92,1
285,424,604,748,1
202,142,736,652,1
61,21,308,292,1
195,271,565,479,1
20,131,692,218,1
359,833,58,238,1
300,443,486,771,1
148,115,125,1,1
231,123,38,88,1
82,105,326,54,1
137,18,197,219,1
57,111,350,413,1
45,42,103,34,1
273,293,508,942,1
132,25,460,484,1
96,197,318,187,1
264,76,584,571,1
55,98,161,284,1
112,169,552,376,1
195,167,159,6,1
66,161,396,218,1
12,25,100,99,1
18,115,42,406,1
84,145,586,296,1
87,337,63,528,1
282,73,406,1023,1
92,39,167,312,1
81,8,103,257,1
454,172,377,316,1
95,7,67,227,1
491,266,176,84,1
61,107,131,261,1
155,196,468,510,1
113,6,214,32,1
263,89,243,294,1
315,227,277,76,1
147,73,784,717,1
8,64,589,317,1
4,25,471,544,1
75,136,436,185,1
29,157,28,136,1
290,242,30,467,1
97,138,481,653,1
13,56,179,37,1
92,350,1023,351,1
206,374,270,150,1
99,258,371,414,1
97,49,122,283,1
87,52,108,421,1
177,108,504,475,1
179,141,126,118,1
105,176,31,48,1
33,32,51,187,1
13,94,463,391,1
12,13,241,253,1
30,46,608,328,1
8,95,238,263,1
221,136,207,67,1
12,10,202,120,1
252,380,244,163,1
11,15,245,281,1
42,452,328,77,1
47,88,5,20,1
182,296,444,167,1
101,152,133,202,1
117,19,281,165,1
176,202,344,311,1
129,122,118,243,1
34,15,321,410,1
1,19,368,307,1
66,37,108,607,1
145,15,23,86,1
92,158,133,123,1
87,89,64,315,1
185,286,8,141,1
10,101,379,374,1
69,147,526,121,1
38,13,122,226,1
183,371,331,63,1
141,106,284,354,1
238,408,283,152,1
75,126,396,361,1
134,185,2,47,1
26,25,113,25,1
80,105,72,148,1
212,251,210,241,1
104,540,525,375,1
23,92,97,153,1
199,19,547,399,1
240,374,233,26,1
123,172,97,257,1
71,103,85,65,1
72,161,218,219,1
54,67,74,45,1
5,8,54,130,1
14,18,349,305,1
29,48,342,186,1
128,141,166,36,1
182,310,338,376,1
1,109,559,270,1
103,296,259,345,1
17,178,390,119,1
65,11,60,420,1
62,50,59,1,1
22,177,195,500,1
38,146,24,115,1
100,119,488,344,1
245,143,182,229,1
63,129,458,345,1
106,273,371,46,1
147,159,256,243,1
167,22,295,0,1
218,212,20,112,1
7,19,284,524,1
7,57,190,145,1
47,176,232,251,1
23,50,108,2,1
97,99,401,271,1
28,217,213,137,1
267,215,193,236,1
169,205,417,605,1
162,144,8,70,1
56,49,339,190,1
23,11,253,202,1
172,48,498,329,1
140,294,12,243,1
0,73,3,0,1
159,174,432,290,1
33,191,569,363,1
134,6,411,484,1
170,126,419,42,1
134,13,597,804,1
195,313,463,619,1
405,226,549,771,1
83,11,69,71,1
149,318,440,1023,1
207,253,365,209,1
0,17,835,708,1
328,360,57,665,1
9,266,284,186,1
69,262,624,711,1
7,301,559,1023,1
153,19,923,1023,1
13,382,332,950,1
95,50,84,206,1
230,72,1023,1023,1
232,75,360,335,1
140,58,786,419,1
69,223,1023,782,1
9,230,68,102,1
10,128,673,126,1
95,46,82,717,1
119,167,319,434,1
129,16,230,1023,1
468,452,182,742,1
231,408,685,1023,1
294,337,120,88,1
294,350,143,744,1
145,46,21,430,1
84,268,1023,1023,1
102,98,371,132,1
5,260,1023,1023,1
479,144,327,493,1
186,203,369,295,1
20,149,767,279,1
450,69,665,1023,1
224,63,1023,1001,1
53,22,193,699,1
131,71,407,350,1
303,90,703,460,1
272,37,666,313,1
543,40,341,240,1
109,262,578,834,1
178,322,1023,957,1
360,386,831,1023,1
60,237,562,52,1
209,310,1023,1023,1
400,89,201,840,1
17,48,1023,1023,1
391,161,277,176,1
348,30,309,680,1
273,128,402,664,1
89,394,76,20,1
105,387,824,1023,1
139,62,702,339,1
203,99,1023,724,1
284,84,346,51,1
296,199,153,1023,1
232,261,293,793,1
134,7,1023,634,1
746,1023,99,236,1
14,207,1003,326,1
91,375,1023,1023,1
90,216,1023,1023,1
45,320,1023,1023,1
167,422,969,769,1
34,175,74,472,1
438,326,599,1023,1
3,171,46,222,1
494,19,1023,1023,1
406,66,42,697,1
126,142,1023,1023,1
159,113,13,972,1
140,26,1023,1023,1
81,83,1023,319,1
18,88,451,543,1
128,20,196,32,1
517,59,612,14,1
161,95,115,1023,1
83,165,445,1023,1
511,268,137,989,1
439,249,232,626,1
199,108,923,498,1
43,226,445,502,1
360,79,1023,1023,1
192,311,1023,1023,1
26,115,540,558,1
253,113,1023,503,1
143,192,241,505,1
610,195,921,45,1
290,124,1023,1023,1
41,31,639,581,1
26,236,1023,1023,1
434,38,864,39,1
641,133,300,640,1
240,258,43,502,1
343,123,1023,1023,1
282,439,828,1023,1
313,366,459,482,1
463,122,29,1023,1
110,26,654,83,1
569,244,90,302,1
506,433,375,454,1
203,149,1023,1023,1
417,16,262,124,1
52,199,1023,1023,1
20,8,942,1023,1
273,82,630,410,1
132,111,1023,1023,1
418,278,1023,1023,1
217,35,900,1023,1
5,425,1023,862,1
95,162,527,458,1
46,127,416,17,1
63,441,649,1023,1
284,25,1023,1023,1
128,313,119,149,1
72,124,1023,593,1
450,301,844,1023,1
226,135,1023,797,1
19,81,947,841,1
120,157,138,184,1
16,137,1023,1023,1
174,363,209,76,1
348,250,1023,66,1
97,96,233,127,1
6,8,1023,430,1
370,121,1023,731,1
213,102,1023,499,1
42,15,1023,1023,1
284,414,1023,910,1
141,85,473,901,1
206,218,292,305,1
28,92,550,556,1
127,74,209,318,1
64,171,37,227,1
22,26,1023,415,1
8,201,1023,176,1
41,58,295,430,1
229,174,1023,1023,1
17,107,872,724,1
106,47,990,490,1
291,342,868,302,1
173,119,115,131,1
82,94,513,267,1
16,221,780,86,1
35,134,476,403,1
3,50,410,209,1
2,40,442,223,1
43,151,12,88,1
98,100,431,110,1
38,35,678,282,1
0,125,482,409,1
28,69,627,432,1
51,67,363,447,1
4,54,156,1023,1
37,136,183,1023,1
51,62,1023,950,1
48,71,203,249,1
72,26,614,752,1
28,43,49,200,1
4,63,12,64,1
4,45,330,401,1
101,203,159,481,1
86,37,152,0,1
3,46,230,184,1
12,51,36,244,1
83,92,245,40,1
119,90,501,602,1
313,212,359,131,1
24,56,77,425,1
94,196,305,51,1
88,36,362,342,1
62,125,347,533,1
193,351,293,545,1
93,474,51,183,1
156,39,242,154,1
227,184,327,40,1
101,135,19,177,1
161,287,336,254,1
81,32,337,150,1
52,44,19,54,1
176,344,48,0,1
158,126,363,143,1
10,15,676,65,1
423,375,60,6,1
100,18,61,102,1
69,241,769,636,1
87,195,795,691,1
81,236,524,699,1
163,12,935,838,1
186,61,206,96,1
112,17,100,291,1
56,103,130,41,1
36,53,114,183,1
35,86,83,118,1
0,28,512,489,1
127,311,623,419,1
154,109,610,193,1
198,157,713,229,1
97,39,555,570,1
111,18,715,794,1
112,179,35,180,1
2,43,354,646,1
37,171,176,351,1
55,305,338,218,1
8,243,247,496,1
475,306,23,506,1
165,363,469,493,1
14,101,657,520,1
214,272,13,209,1
67,70,1023,1023,1
337,38,520,372,1
284,114,755,689,1
86,70,638,478,1
76,31,343,365,1
342,219,263,289,1
167,58,545,849,1
14,7,198,420,1
243,555,59,1023,1
480,679,613,548,1
108,419,322,602,1
51,24,602,229,1
56,91,80,400,1
197,29,1023,1023,1
27,253,310,159,1
194,208,579,658,1
87,72,405,75,1
0,23,225,239,1
442,90,547,537,1
164,51,363,379,1
206,212,157,393,1
12,137,656,793,1
288,342,114,401,1
194,14,71,398,1
40,342,30,20,1
168,404,755,477,1
51,13,143,161,1
47,275,458,447,1
75,44,157,220,1
162,248,257,526,1
89,163,411,42,1
221,150,21,140,1
94,90,768,145,1
536,436,132,9,1
221,264,118,238,1
137,90,10,357,1
104,347,175,348,1
25,212,67,25,1
231,77,221,271,1
371,442,266,368,1
100,86,50,95,1
42,138,152,246,1
179,7,177,6,1
86,70,105,40,1
63,47,181,227,1
52,84,65,188,1
259,281,73,229,1
273,401,112,14,1
106,119,189,179,1
126,20,29,289,1
59,37,934,357,1
71,16,73,203,1
39,149,779,89,1
51,332,177,333,1
5,102,16,410,1
77,159,540,337,1
186,191,240,81,1
33,70,108,439,1
196,223,96,307,1
104,129,47,168,1
82,29,157,7,1
54,152,174,193,1
105,115,48,105,1
179,229,333,206,1
32,23,586,682,1
77,110,360,263,1
167,405,467,533,1
25,88,98,77,1
23,204,146,94,1
28,55,211,123,1
129,127,307,629,1
133,160,43,25,1
38,98,595,659,1
11,7,567,40,1
3,112,114,551,1
5,28,948,821,1
139,81,124,288,1
43,135,826,396,1
15,130,305,359,1
122,270,250,51,1
41,27,182,623,1
22,170,120,291,1
104,14,187,182,1
73,74,43,89,1
99,25,394,318,1
25,131,206,74,1
265,208,507,456,1
17,10,571,339,1
47,70,27,181,1
45,117,135,50,1
86,106,120,91,1
47,62,174,124,1
144,133,235,16,1
33,108,502,489,1
27,35,289,645,1
118,39,241,0,1
112,13,536,431,1
84,77,596,324,1
51,119,112,69,1
73,100,411,96,1
0,76,259,132,1
193,78,236,131,1
3,73,127,117,1
67,54,226,176,1
109,264,255,223,1
211,184,453,273,1
93,63,16,104,1
103,102,712,765,1
90,93,84,23,1
97,99,443,271,1
15,106,16,260,1
66,71,400,236,1
15,87,16,19,1
75,131,421,391,1
30,33,435,362,1
111,222,240,250,1
159,74,39,83,1
50,98,120,121,1
72,42,404,428,1
16,95,258,445,1
235,471,187,190,1
165,249,415,370,1
232,337,268,109,1
46,163,216,228,1
46,106,148,0,1
248,111,125,277,1
8,90,468,407,1
7,81,298,531,1
178,128,253,296,1
31,97,263,207,1
57,41,190,126,1
10,65,241,45,1
52,72,37,25,1
76,109,244,408,1
1,92,180,162,1
149,309,484,307,1
14,119,637,293,1
257,448,703,585,1
187,190,226,263,1
258,101,755,582,1
187,71,82,0,1
28,177,1023,961,1
178,156,99,115,1
8,17,888,586,1
14,111,61,574,1
33,11,640,790,1
17,308,559,378,1
497,298,469,614,1
339,147,720,817,1
47,159,654,1023,1
58,36,312,804,1
29,219,569,333,1
189,364,8,31,1
18,57,625,472,1
187,63,481,539,1
165,162,404,468,1
54,185,728,817,1
12,169,777,638,1
92,95,13,310,1
186,158,732,1,1
216,173,298,74,1
132,17,176,20,1
1,8,245,110,1
75,34,548,394,1
54,60,451,317,1
10,192,408,48,1
41,9,49,706,1
246,353,118,66,1
287,11,375,124,1
32,75,312,193,1
97,55,792,314,1
300,107,835,238,1
116,364,238,107,1
107,305,295,669,1
176,663,568,821,1
113,286,516,528,1
305,241,408,353,1
333,184,223,2,1
49,215,525,1023,1
127,111,673,848,1
350,370,738,967,1
191,107,201,107,1
10,69,1023,603,1
94,131,719,595,1
258,86,212,256,1
384,98,717,785,1
176,62,190,399,1
219,132,1023,1023,1
128,548,383,587,1
218,162,113,1023,1
364,183,10,373,1
587,328,341,7,1
593,466,863,1023,1
112,7,399,776,1
20,119,19,293,1
353,80,455,466,1
233,215,204,58,1
270,60,1023,1023,1
305,62,1023,1023,1
269,346,28,528,1
376,13,929,278,1
600,401,815,834,1
120,266,1023,1023,1
98,53,1023,121,1
106,185,1023,879,1
291,82,686,648,1
50,153,761,589,1
332,111,1023,216,1
521,32,384,1023,1
48,22,1023,1023,1
10,56,825,77,1
115,9,69,1,1
42,7,533,244,1
144,163,595,234,1
115,32,973,322,1
373,311,1023,564,1
218,305,52,565,1
402,464,605,636,1
539,370,500,251,1
280,383,1023,1023,1
244,37,816,1023,1
194,119,1023,1023,1
191,112,1023,1023,1
309,45,709,678,1
236,175,603,296,1
276,102,1023,431,1
372,12,903,348,1
208,45,746,500,1
42,196,257,587,1
114,401,1023,842,1
248,805,705,964,1
166,97,68,945,1
17,18,434,1023,1
477,20,475,144,1
413,285,184,943,1
338,218,583,174,1
309,14,745,904,1
134,25,250,502,1
7,373,1023,1023,1
346,182,1023,1023,1
886,434,188,133,1
13,130,1023,960,1
57,851,1023,1023,1
492,694,715,1023,1
81,152,1023,1023,1
268,511,511,680,1
180,438,1023,162,1
94,176,557,678,1
608,134,1023,632,1
363,41,25,49,1
308,105,451,494,1
216,154,1023,696,1
159,118,276,863,1
261,139,1023,625,1
226,92,1023,1023,1
45,288,1023,1023,1
62,214,1023,1023,1
78,206,923,1023,1
3,69,610,613,1
11,15,1023,956,1
88,258,698,1023,1
163,121,1023,1023,1
134,145,1023,600,1
275,45,924,467,1
456,234,268,390,1
336,257,1023,1023,1
59,11,441,203,1
477,181,1023,1023,1
268,263,1023,1023,1
188,187,379,91,1
179,117,663,1023,1
121,542,429,575,1
94,131,78,721,1
36,153,69,452,1
389,58,1023,1023,1
109,36,1023,1023,1
597,388,195,454,1
272,175,975,493,1
21,83,915,810,1
168,169,78,193,1
306,229,148,401,1
140,152,715,189,1
235,174,280,0,1
177,48,177,67,1
152,61,930,535,1
34,49,802,339,1
19,8,713,215,1
196,247,296,189,1
225,275,799,965,1
88,123,721,447,1
241,557,723,951,1
146,180,1023,785,1
370,559,307,125,1
226,338,9,167,1
185,285,268,44,1
45,31,396,200,1
176,217,375,319,1
93,48,397,16,1
39,80,37,66,1
174,193,785,291,1
113,77,89,265,1
115,34,1010,714,1
35,238,1023,717,1
96,26,135,20,1
291,432,349,185,1
130,13,332,102,1
58,153,23,0,1
104,157,49,71,1
73,65,550,369,1
170,126,1004,676,1
157,89,717,279,1
135,83,227,0,1
68,62,88,140,1
41,41,28,225,1
180,174,220,396,1
78,79,517,380,1
47,34,167,287,1
65,9,97,120,1
58,104,51,0,1
63,48,435,114,1
199,183,498,72,1
50,140,63,105,1
78,292,180,156,1
53,18,14,211,1
24,60,237,337,1
24,9,554,184,1
15,143,36,409,1
50,148,958,964,1
0,37,781,841,1
0,7,176,298,1
81,48,456,366,1
24,29,590,507,1
3,78,233,46,1
45,61,545,618,1
159,378,422,314,1
44,140,510,385,1
173,186,741,405,1
118,57,542,55,1
127,177,485,603,1
25,130,1023,805,1
75,21,749,202,1
118,117,5,380,1
5,129,17,392,1
70,75,346,261,1
21,45,367,358,1
112,171,62,3,1
93,187,741,728,1
419,66,134,42,1
163,228,624,783,1
69,278,519,377,1
218,68,235,140,1
357,353,126,90,1
407,337,396,502,1
361,272,78,41,1
99,279,721,256,1
77,53,535,53,1
120,89,503,52,1
187,152,809,272,1
290,427,558,500,1
137,190,465,177,1
35,99,884,891,1
181,21,569,238,1
365,187,230,13,1
22,85,549,606,1
6,129,179,412,1
27,470,247,199,1
13,312,318,36,1
118,26,263,245,1
58,115,113,176,1
266,98,281,15,1
88,74,446,383,1
137,121,420,347,1
95,17,772,808,1
86,291,353,20,1
84,258,391,290,1
6,118,207,185,1
284,35,489,163,1
2,92,583,614,1
12,10,465,184,1
26,18,920,554,1
212,126,264,147,1
137,359,1010,881,1
80,163,561,758,1
139,198,615,396,1
74,38,1023,1023,1
194,261,566,151,1
73,11,1011,1023,1
85,139,684,802,1
243,316,454,679,1
45,398,204,559,1
171,323,6,27,1
44,54,134,129,1
150,46,455,917,1
75,51,299,2,1
153,203,808,640,1
310,67,438,64,1
158,40,174,24,1
165,22,51,265,1
151,207,163,371,1
165,239,511,159,1
28,282,54,56,1
4,42,272,57,1
78,46,96,271,1
38,9,788,430,1
25,58,266,292,1
34,126,489,681,1
61,108,555,462,1
72,67,149,354,1
151,16,457,252,1
143,8,391,467,1
182,234,25,75,1
57,90,150,146,1
55,166,267,19,1
244,159,418,52,1
204,183,205,163,1
125,9,404,352,1
132,94,554,182,1
112,267,212,295,1
59,121,442,178,1
57,200,214,538,1
82,19,96,450,1
112,168,575,459,1
28,176,223,70,1
39,183,908,895,1
104,43,353,126,1
17,131,85,287,1
91,60,335,142,1
110,102,68,380,1
63,26,294,133,1
46,240,219,362,1
50,35,66,51,1
119,101,350,364,1
0,15,500,15,1
30,176,266,482,1
6,433,170,146,1
11,107,792,257,1
110,25,333,1,1
43,45,329,56,1
16,81,131,208,1
66,29,99,0,1
13,20,432,191,1
22,75,30,0,1
30,12,235,38,1
133,185,335,87,1
153,63,386,27,1
24,46,118,6,1
88,244,125,437,1
16,244,237,159,1
268,286,38,25,1
224,327,118,643,1
98,169,612,718,1
145,144,577,162,1
27,39,840,810,1
92,27,381,287,1
63,67,409,163,1
109,115,3,31,1
22,49,227,200,1
53,112,51,23,1
71,55,442,301,1
107,135,184,75,1
34,86,121,209,1
12,61,65,49,1
32,122,93,74,1
97,40,61,48,1
169,93,75,26,1
117,189,254,132,1
6,56,53,70,1
140,70,42,18,1
0,123,184,0,1
43,193,173,129,1
79,134,15,317,1
67,26,476,163,1
100,21,143,134,1
61,196,501,440,1
133,151,389,61,1
314,317,94,284,1
29,8,521,195,1
52,17,339,7,1
73,101,208,257,1
64,160,67,78,1
84,143,123,428,1
10,139,20,2,1
114,209,478,659,1
62,131,234,137,1
149,27,154,581,1
21,60,166,224,1
31,103,321,70,1
149,26,486,387,1
46,36,13,73,1
15,163,365,789,1
44,64,13,312,1
124,95,527,362,1
251,90,268,416,1
377,286,201,768,1
263,253,846,571,1
5,63,1023,557,1
202,138,405,659,1
558,59,257,140,1
135,302,751,1023,1
374,125,357,960,1
204,245,12,389,1
326,211,10,255,1
325,85,15,215,1
134,145,635,344,1
66,43,246,362,1
177,435,1023,1023,1
52,321,836,460,1
120,7,44,35,1
143,84,380,114,1
110,248,480,192,1
155,42,83,620,1
19,86,1014,391,1
247,219,680,497,1
380,155,508,63,1
323,19,367,525,1
41,183,89,149,1
33,91,42,329,1
615,77,199,995,1
143,293,264,796,1
444,111,47,123,1
335,223,259,44,1
244,37,235,745,1
356,54,478,568,1
9,291,430,56,1
423,163,350,1023,1
97,13,682,865,1
261,34,787,851,1
234,68,160,399,1
283,242,296,280,1
104,378,1023,1023,1
569,75,132,636,1
311,154,1023,1023,1
172,466,72,386,1
216,118,1023,1023,1
282,239,168,518,1
255,33,899,57,1
100,57,531,1023,1
145,299,107,645,1
343,44,1023,697,1
91,94,70,587,1
536,22,220,689,1
484,493,304,401,1
583,334,130,291,1
29,6,200,121,1
104,8,243,271,1
716,628,1023,358,1
768,356,359,121,1
173,471,1023,919,1
159,349,544,735,1
161,408,508,52,1
54,333,1023,1023,1
578,351,491,781,1
183,80,978,1023,1
210,61,387,380,1
98,209,906,480,1
17,188,89,1023,1
468,523,665,89,1
41,404,439,422,1
802,29,921,1023,1
23,214,896,1023,1
723,180,1023,305,1
470,375,738,548,1
448,106,268,452,1
928,454,65,944,1
30,240,416,461,1
361,73,99,141,1
475,427,847,1023,1
298,665,1023,1012,1
174,38,351,560,1
257,53,164,185,1
466,45,796,504,1
670,400,354,398,1
262,563,408,470,1
404,898,899,1023,1
38,54,921,309,1
171,345,1023,956,1
88,263,1023,1023,1
55,225,738,863,1
153,19,1023,1023,1
484,579,1023,1023,1
659,407,1023,1023,1
187,376,1023,1023,1
504,407,74,1023,1
45,193,1023,1023,1
79,168,1023,458,1
32,151,970,197,1
42,257,1023,359,1
31,461,163,76,1
214,341,1023,559,1
46,39,46,208,1
400,168,1023,1023,1
522,47,462,187,1
81,113,354,910,1
516,15,1023,498,1
334,84,1023,738,1
507,245,451,182,1
14,11,192,1023,1
360,371,1023,1023,1
329,442,648,129,1
685,189,1023,1023,1
15,138,1023,1023,1
397,28,1023,1023,1
40,129,1023,1023,1
22,294,1023,1023,1
89,99,195,765,1
112,193,31,275,1
126,119,562,644,1
265,109,610,780,1
18,313,1023,889,1
237,285,71,575,1
68,77,812,107,1
186,199,701,773,1
155,63,711,147,1
63,16,180,107,1
361,326,1023,455,1
358,277,789,93,1
212,124,309,274,1
7,42,967,591,1
225,158,165,20,1
12,13,539,587,1
0,16,974,737,1
44,74,1023,731,1
254,39,939,1023,1
125,281,125,1023,1
101,90,496,667,1
82,50,417,391,1
297,236,1023,753,1
25,59,796,158,1
23,23,143,304,1
83,34,239,553,1
59,33,309,255,1
262,154,229,130,1
9,6,598,387,1
183,161,107,43,1
328,313,1023,637,1
298,367,573,462,1
216,80,445,489,1
128,6,223,653,1
120,50,339,1023,1
58,170,528,926,1
3,89,81,3,1
40,89,687,574,1
29,28,560,8,1
89,161,70,486,1
156,142,11,58,1
26,35,1023,811,1
217,133,537,251,1
12,70,508,8,1
16,16,216,75,1
93,106,853,321,1
320,324,1023,9,1
204,87,201,870,1
143,195,1023,745,1
169,129,70,732,1
2,13,503,507,1
66,173,92,244,1
8,133,334,125,1
23,127,31,11,1
301,294,573,453,1
145,146,381,531,1
22,84,382,390,1
266,26,130,129,1
189,117,555,307,1
308,307,796,471,1
287,191,19,116,1
7,46,295,224,1
188,53,516,151,1
448,191,434,334,1
5,472,1023,1023,1
180,443,289,331,1
20,142,338,545,1
256,39,485,603,1
221,93,665,898,1
286,215,341,402,1
116,15,223,378,1
408,285,471,20,1
127,223,134,121,1
80,10,730,247,1
42,96,226,629,1
208,123,202,97,1
320,136,807,717,1
111,19,1023,1023,1
306,340,958,567,1
214,306,24,515,1
175,188,632,378,1
24,274,364,54,1
654,20,472,68,1
275,46,648,1023,1
241,189,703,411,1
35,143,204,236,1
107,63,716,337,1
74,133,933,664,1
112,34,508,141,1
128,188,608,445,1
39,199,213,285,1
421,293,671,1023,1
538,257,1023,1023,1
1,337,622,1023,1
681,321,794,24,1
36,279,1023,738,1
488,166,275,42,1
330,204,964,807,1
45,438,59,509,1
197,279,54,180,1
86,54,480,292,1
228,162,149,16,1
172,171,384,164,1
57,45,1023,887,1
66,224,651,405,1
552,29,116,257,1
363,85,159,37,1
156,257,254,404,1
6,291,657,333,1
0,168,148,303,1
5,156,153,408,1
167,32,531,151,1
15,341,427,679,1
215,378,1023,740,1
87,129,421,38,1
108,144,421,377,1
159,120,694,459,1
368,365,1023,1023,1
484,582,160,278,1
138,30,835,430,1
304,87,145,249,1
143,328,106,156,1
24,167,239,246,1
184,20,11,123,1
90,139,205,830,1
219,718,197,295,1
0,285,91,473,1
244,260,46,248,1
7,39,267,151,1
298,68,157,134,1
66,65,494,116,1
81,233,360,189,1
9,150,90,91,1
161,101,655,129,1
345,281,29,417,1
154,77,281,74,1
30,289,675,851,1
246,10,175,9,1
57,64,713,321,1
138,13,325,131,1
42,11,696,469,1
20,181,154,132,1
82,67,43,27,1
24,82,423,424,1
23,8,230,82,1
22,26,35,0,1
230,175,19,9,1
40,49,246,140,1
99,124,356,605,1
19,53,156,90,1
68,10,359,387,1
9,272,200,306,1
142,309,509,526,1
171,315,50,229,1
174,103,404,479,1
307,334,451,673,1
44,435,89,0,1
18,56,170,348,1
18,34,218,197,1
20,18,73,190,1
62,19,77,40,1
33,34,105,525,1
215,264,140,111,1
57,28,463,426,1
53,82,10,38,1
483,613,554,443,1
194,62,13,27,1
274,349,141,317,1
244,194,343,475,1
127,249,293,272,1
370,243,220,578,1
35,95,17,135,1
39,214,272,227,1
238,280,48,284,1
71,187,159,26,1
70,95,135,828,1
85,67,185,48,1
357,243,378,419,1
137,99,165,271,1
196,141,202,315,1
62,239,112,170,1
73,356,278,448,1
95,14,586,117,1
306,398,404,375,1
35,492,301,195,1
293,295,381,547,1
30,14,182,306,1
15,181,473,216,1
83,113,8,3,1
27,73,478,217,1
203,260,67,65,1
121,163,124,116,1
118,205,310,239,1
18,9,755,593,1
52,139,63,218,1
8,29,485,351,1
96,139,322,40,1
101,67,437,426,1
7,238,89,1,1
214,450,469,479,1
68,339,47,153,1
64,11,345,306,1
53,56,261,219,1
10,166,260,0,1
235,101,229,486,1
132,6,15,44,1
4,103,336,171,1
74,7,115,159,1
6,63,40,54,1
55,101,110,46,1
102,10,364,91,1
187,10,283,270,1
168,255,236,109,1
84,54,170,182,1
103,68,149,214,1
213,317,16,0,1
23,291,151,159,1
71,8,399,479,1
57,296,420,253,1
85,173,176,341,1
1,71,731,711,1
40,63,423,493,1
13,19,70,75,1
78,84,351,452,1
12,88,554,691,1
17,84,264,9,1
28,170,914,830,1
34,346,197,320,1
52,42,477,289,1
121,135,236,143,1
131,34,79,306,1
41,366,14,0,1
17,143,131,65,1
72,203,242,134,1
3,119,449,402,1
217,314,601,285,1
22,20,822,225,1
200,261,332,466,1
121,332,841,146,1
26,117,62,537,1
103,199,760,918,1
22,99,296,47,1
182,106,405,279,1
413,103,176,159,1
93,177,98,52,1
104,216,658,946,1
336,90,253,197,1
337,76,180,456,1
252,64,39,451,1
89,100,384,226,1
293,200,430,698,1
94,190,534,368,1
68,22,463,280,1
1,97,1023,1023,1
40,162,399,172,1
39,167,1023,1023,1
117,169,79,357,1
13,380,1023,987,1
55,41,475,30,1
206,13,222,285,1
47,128,548,237,1
26,296,345,42,1
154,340,347,419,1
369,276,379,344,1
311,296,970,414,1
347,33,138,275,1
133,287,850,767,1
219,38,12,299,1
75,61,390,274,1
145,36,640,954,1
0,167,628,562,1
154,46,378,1023,1
493,33,1023,701,1
16,55,566,1023,1
69,318,423,568,1
265,265,502,1023,1
160,124,226,499,1
33,26,64,149,1
137,156,352,33,1
248,597,759,293,1
275,477,724,703,1
176,218,525,650,1
111,314,1023,1023,1
139,29,715,441,1
216,214,812,374,1
172,121,92,455,1
296,459,17,406,1
27,254,47,496,1
614,420,24,383,1
33,33,444,889,1
30,26,591,315,1
11,305,1023,1023,1
546,127,1023,1023,1
430,113,755,0,1
269,286,1023,1023,1
699,353,553,988,1
395,474,61,378,1
471,183,380,1023,1
62,264,518,275,1
153,68,156,715,1
20,13,446,1023,1
157,388,576,300,1
66,391,389,89,1
158,13,201,46,1
240,43,695,1023,1
140,128,78,67,1
287,10,664,955,1
172,164,295,927,1
84,141,545,968,1
72,60,60,763,1
39,162,272,810,1
416,444,667,54,1
129,371,846,903,1
156,35,513,717,1
170,154,469,806,1
33,632,67,259,1
183,93,1023,414,1
535,161,36,265,1
174,202,1023,1023,1
276,337,803,1008,1
171,194,1023,1023,1
151,77,1023,1023,1
109,58,886,955,1
159,249,256,197,1
303,30,200,442,1
349,208,1023,956,1
404,86,497,237,1
211,451,536,63,1
242,509,1023,1023,1
277,174,1023,1023,1
70,249,1023,1023,1
7,324,362,62,1
278,247,645,1023,1
113,101,886,282,1
205,37,126,465,1
181,319,1023,912,1
1023,267,126,122,1
22,18,1023,1002,1
675,341,1023,1023,1
224,573,265,505,1
543,58,1023,1023,1
250,190,845,311,1
44,68,1023,1023,1
373,603,473,768,1
425,350,561,512,1
357,562,334,251,1
298,279,89,539,1
122,210,1023,1023,1
175,20,1023,767,1
78,239,1023,1023,1
299,54,1023,1023,1
397,236,454,13,1
55,263,1023,1023,1
164,189,1023,1023,1
15,67,410,893,1
327,94,1023,1023,1
126,40,178,272,1
291,118,1023,1023,1
245,305,983,725,1
114,271,191,193,1
628,113,511,1023,1
178,75,1023,1023,1
19,210,1023,383,1
114,254,37,196,1
336,53,513,869,1
185,105,279,51,1
57,16,1023,1023,1
19,11,1023,1023,1
387,300,225,417,1
161,30,1023,1023,1
19,54,1023,701,1
139,283,665,81,1
17,136,67,49,1
65,210,450,253,1
204,427,734,646,1
284,340,1023,1023,1
26,284,1023,748,1
214,125,791,528,1
40,76,789,571,1
107,116,266,227,1
49,47,374,452,1
125,487,367,211,1
136,38,39,337,1
54,103,185,18,1
94,24,166,6,1
10,120,204,271,1
9,16,895,119,1
245,131,141,957,1
4,143,888,1001,1
337,273,619,270,1
68,139,268,56,1
132,194,24,62,1
151,151,8,6,1
233,131,337,244,1
224,40,177,318,1
227,359,396,110,1
47,170,327,158,1
334,307,47,15,1
236,212,559,7,1
152,193,253,444,1
162,172,539,113,1
108,158,668,189,1
10,24,351,139,1
93,42,573,543,1
89,198,679,455,1
73,102,85,73,1
78,5,267,383,1
21,15,557,107,1
121,169,698,65,1
103,105,168,89,1
44,117,598,596,1
66,122,68,107,1
19,12,523,446,1
74,31,154,146,1
94,10,368,380,1
7,166,326,25,1
28,9,238,208,1
318,111,200,289,1
32,235,788,725,1
51,162,631,177,1
32,285,426,992,1
64,342,786,822,1
236,180,113,149,1
182,261,169,84,1
125,43,790,458,1
56,163,1023,576,1
163,93,269,5,1
175,253,848,546,1
7,34,707,158,1
4,76,432,209,1
251,454,640,19,1
101,394,168,375,1
54,130,706,653,1
110,255,529,466,1
42,370,77,55,1
59,48,518,238,1
3,23,434,365,1
113,310,233,300,1
22,165,6,95,1
62,154,312,50,1
37,14,536,492,1
0,101,625,280,1
31,49,304,167,1
168,123,61,192,1
155,87,293,46,1
269,17,400,363,1
244,246,357,589,1
283,179,960,877,1
203,155,405,307,1
26,34,695,911,1
28,231,146,40,1
22,169,353,905,1
80,65,306,216,1
83,123,50,351,1
72,44,666,933,1
113,141,272,503,1
213,313,154,147,1
94,97,9,342,1
182,92,306,468,1
233,116,407,532,1
218,212,67,169,1
104,103,1023,1023,1
60,233,429,571,1
260,188,642,45,1
239,293,461,0,1
102,55,22,85,1
23,94,497,260,1
107,153,142,237,1
190,13,11,211,1
231,203,422,139,1
336,374,16,287,1
159,49,742,1023,1
267,408,613,462,1
250,376,158,434,1
77,232,653,667,1
150,105,352,263,1
55,72,173,411,1
418,396,129,28,1
434,444,268,187,1
72,52,525,287,1
250,599,193,99,1
119,347,580,740,1
320,438,1023,1023,1
327,404,551,297,1
163,53,584,709,1
225,39,423,174,1
310,278,263,55,1
130,66,359,334,1
102,79,49,242,1
108,12,387,154,1
157,110,392,32,1
9,340,132,83,1
164,398,285,51,1
24,24,24,16,1
23,144,574,597,1
182,40,506,108,1
207,11,782,46,1
17,127,623,715,1
180,128,122,11,1
108,301,679,227,1
233,244,269,187,1
194,271,90,31,1
195,375,92,104,1
97,151,74,74,1
113,120,163,129,1
38,129,264,443,1
7,188,591,508,1
39,173,177,0,1
16,35,287,246,1
306,9,156,302,1
219,283,319,206,1
232,204,165,165,1
77,95,374,914,1
25,56,37,218,1
217,11,366,227,1
384,259,149,79,1
34,89,514,461,1
100,72,236,222,1
7,27,237,286,1
113,10,199,362,1
77,51,101,136,1
55,169,225,456,1
14,69,366,215,1
203,69,54,91,1
120,249,255,142,1
241,197,50,473,1
374,262,330,464,1
106,38,226,563,1
24,23,483,26,1
183,111,3,56,1
125,75,701,501,1
94,247,176,21,1
21,9,448,318,1
176,195,161,237,1
58,8,183,109,1
2,16,398,34,1
155,158,324,40,1
10,120,269,137,1
2,9,608,224,1
184,113,13,67,1
93,191,133,197,1
174,248,77,342,1
143,240,231,6,1
55,23,278,473,1
113,338,235,21,1
70,41,479,415,2
297,160,94,120,2
257,344,18,51,2
18,118,368,248,2
63,12,185,23,2
241,153,50,161,2
101,25,287,440,2
61,108,89,162,2
66,257,423,359,2
17,106,59,251,2
95,231,253,140,2
95,49,334,240,2
29,15,251,258,2
1,6,136,54,2
6,17,303,3,2
39,118,2,34,2
33,23,105,53,2
59,17,218,39,2
36,343,122,114,2
0,24,143,626,2
129,58,273,470,2
99,240,86,301,2
52,89,63,348,2
38,90,628,529,2
59,111,86,132,2
91,6,420,362,2
103,14,170,2,2
76,129,125,113,2
70,26,687,666,2
13,84,843,1023,2
72,9,758,729,2
124,252,816,821,2
110,217,206,70,2
48,425,448,653,2
313,325,23,177,2
39,34,485,605,2
88,241,7,45,2
212,6,281,7,2
161,139,626,530,2
286,66,497,209,2
30,7,272,645,2
178,146,541,295,2
91,166,10,163,2
147,34,905,1023,2
48,72,78,97,2
106,73,437,305,2
192,54,677,724,2
84,11,969,33,2
79,127,709,573,2
530,291,814,578,2
259,76,242,393,2
400,47,481,243,2
58,175,168,242,2
268,17,643,538,2
71,91,142,19,2
168,45,409,172,2
137,106,322,448,2
93,149,221,498,2
45,127,232,734,2
11,93,33,158,2
190,62,712,909,2
75,175,190,298,2
198,332,111,713,2
222,29,524,866,2
300,113,112,422,2
67,294,327,585,2
309,22,49,752,2
500,339,648,1023,2
129,75,902,1023,2
374,423,259,897,2
278,668,369,569,2
188,141,938,572,2
123,48,801,25,2
191,127,618,443,2
101,83,1023,965,2
456,352,515,761,2
83,136,913,661,2
309,448,414,630,2
95,35,574,56,2
88,387,1023,1020,2
23,137,969,263,2
25,248,925,413,2
78,193,1023,1023,2
380,10,739,1023,2
237,365,1023,1023,2
395,22,1023,1023,2
416,25,1023,1023,2
365,462,988,1023,2
234,203,550,1023,2
370,630,560,478,2
94,531,918,1023,2
35,21,26,190,2
165,89,794,551,2
219,216,1023,1023,2
43,91,523,345,2
83,56,1023,1023,2
91,41,667,757,2
39,36,1023,301,2
352,138,192,506,2
34,539,1023,594,2
64,14,1023,1023,2
9,297,1023,1023,2
176,236,189,382,2
27,210,1023,1023,2
728,600,515,17,2
516,88,598,685,2
188,155,1023,774,2
157,224,601,83,2
297,126,340,1023,2
246,100,41,369,2
172,145,73,961,2
27,66,252,488,2
34,10,394,236,2
59,284,472,966,2
75,178,477,35,2
231,77,654,626,2
424,236,399,1023,2
29,286,42,1023,2
249,413,498,887,2
594,83,196,459,2
144,118,430,1023,2
6,30,258,380,2
51,434,135,292,2
256,220,28,39,2
5,180,848,1023,2
116,51,1023,1023,2
71,176,1023,120,2
98,44,681,156,2
204,50,49,584,2
138,131,291,40,2
233,588,132,580,2
339,443,384,39,2
19,216,76,77,2
283,94,190,1023,2
864,314,125,311,2
308,183,63,262,2
173,30,496,850,2
14,320,527,397,2
197,361,76,322,2
354,204,810,1023,2
536,373,1012,635,2
77,77,1023,1023,2
905,652,527,62,2
932,775,1023,844,2
48,154,965,326,2
561,486,528,1023,2
95,89,1023,1023,2
336,91,209,885,2
84,81,545,681,2
401,407,735,550,2
408,94,118,380,2
583,435,520,372,2
413,109,789,387,2
94,506,30,967,2
54,417,167,204,2
312,313,625,1023,2
31,57,976,9,2
165,6,101,813,2
69,111,161,20,2
307,216,254,674,2
49,21,16,664,2
139,49,641,777,2
443,414,76,21,2
257,6,1023,1023,2
120,114,279,255,2
108,193,41,259,2
40,167,197,327,2
83,171,1023,549,2
93,171,472,327,2
76,43,1023,1023,2
19,150,1023,100,2
689,92,1023,1023,2
395,15,1023,1023,2
216,60,78,426,2
5,14,751,492,2
251,40,173,96,2
150,101,328,151,2
119,108,84,78,2
103,35,1023,946,2
96,199,552,11,2
137,177,964,911,2
210,136,551,456,2
159,175,58,101,2
52,13,182,236,2
199,94,60,132,2
140,240,141,13,2
239,115,703,282,2
196,224,534,521,2
231,113,941,341,2
15,53,453,323,2
88,44,910,615,2
216,91,286,160,2
42,25,219,271,2
79,167,192,151,2
58,105,181,252,2
133,213,334,301,2
14,39,217,103,2
124,135,75,256,2
26,101,63,616,2
55,74,204,160,2
51,40,514,558,2
100,14,595,563,2
90,82,437,269,2
13,66,112,283,2
334,269,342,285,2
55,45,120,322,2
44,97,383,40,2
292,461,169,35,2
225,325,142,454,2
264,320,400,328,2
354,382,416,417,2
17,148,546,248,2
169,151,382,639,2
163,13,414,194,2
94,282,74,292,2
82,127,469,1023,2
109,263,878,1013,2
17,7,482,227,2
200,293,38,296,2
104,88,421,973,2
104,89,211,187,2
56,11,925,801,2
158,168,308,214,2
201,203,201,210,2
236,269,386,352,2
277,421,450,232,2
125,342,808,665,2
19,106,183,205,2
188,394,365,787,2
213,527,15,913,2
53,283,381,351,2
24,90,63,162,2
17,60,407,232,2
105,223,896,564,2
15,87,923,285,2
99,17,239,211,2
155,476,516,14,2
151,282,800,704,2
533,748,404,132,2
380,690,406,139,2
51,162,93,137,2
129,87,484,470,2
285,542,334,14,2
56,131,294,90,2
111,50,481,444,2
29,206,418,181,2
76,29,145,282,2
123,253,886,437,2
160,39,496,358,2
122,15,472,8,2
49,177,158,356,2
183,281,143,25,2
23,55,463,153,2
258,16,379,335,2
141,59,914,1023,2
68,107,459,570,2
221,301,820,656,2
280,240,299,484,2
19,55,698,587,2
463,319,361,624,2
90,100,168,0,2
378,361,218,135,2
203,175,822,849,2
127,240,30,171,2
43,321,893,910,2
52,188,181,20,2
168,52,357,387,2
5,33,120,48,2
124,161,310,49,2
171,177,263,218,2
227,270,756,680,2
28,257,69,150,2
34,245,732,954,2
18,320,663,663,2
5,275,463,1023,2
153,372,142,531,2
176,41,176,95,2
278,179,402,236,2
330,127,277,188,2
0,118,111,180,2
51,31,570,116,2
171,11,15,74,2
153,322,194,261,2
1,73,194,5,2
152,401,108,30,2
116,110,849,227,2
61,85,263,580,2
42,354,790,51,2
450,202,45,84,2
131,265,91,89,2
299,29,753,761,2
294,160,155,492,2
267,201,448,652,2
98,85,36,188,2
255,243,7,421,2
135,169,571,739,2
194,274,72,129,2
218,218,247,226,2
151,314,366,291,2
309,608,254,507,2
195,287,86,132,2
415,456,218,929,2
303,163,73,15,2
115,42,79,236,2
26,15,22,113,2
121,97,389,579,2
119,90,587,333,2
504,321,424,254,2
122,138,282,365,2
135,10,38,154,2
48,125,15,29,2
108,292,277,554,2
243,717,185,229,2
5,366,167,524,2
30,71,185,200,2
56,19,91,89,2
99,153,437,609,2
138,307,554,454,2
304,380,276,6,2
101,278,289,270,2
93,102,650,560,2
119,258,49,135,2
239,219,1023,1023,2
57,43,298,166,2
72,238,328,392,2
28,37,383,147,2
348,478,152,164,2
197,333,85,94,2
102,184,167,199,2
10,150,81,124,2
280,140,424,740,2
20,69,817,276,2
8,18,553,485,2
158,32,645,199,2
183,175,589,438,2
195,356,191,122,2
158,511,327,31,2
28,155,308,111,2
129,406,283,147,2
1,47,396,197,2
301,283,74,160,2
194,251,243,0,2
214,181,100,91,2
162,272,362,327,2
225,197,51,123,2
9,55,116,82,2
10,77,211,240,2
260,342,6,3,2
10,92,943,385,2
183,255,331,330,2
0,84,632,275,2
5,82,26,70,2
146,14,521,389,2
145,34,199,431,2
140,327,173,0,2
24,114,463,675,2
40,288,462,233,2
29,49,66,256,2
110,9,157,496,2
54,15,484,325,2
2,52,459,364,2
40,204,419,830,2
72,70,1023,673,2
18,27,438,102,2
7,194,994,104,2
19,166,257,265,2
75,82,114,1023,2
218,296,167,273,2
25,51,47,362,2
122,102,76,109,2
331,245,288,381,2
93,75,235,332,2
72,179,139,182,2
10,15,119,16,2
25,27,299,105,2
199,175,5,239,2
86,37,364,359,2
109,149,156,324,2
96,22,659,292,2
98,170,123,461,2
0,81,543,247,2
118,63,262,745,2
66,46,528,323,2
93,26,732,860,2
79,189,638,287,2
164,123,566,514,2
178,539,35,597,2
4,51,233,343,2
147,264,288,111,2
182,46,114,24,2
54,107,394,161,2
34,104,56,252,2
138,85,212,392,2
145,8,380,932,2
103,214,351,327,2
36,117,434,373,2
84,88,254,444,2
8,6,355,467,2
28,52,279,219,2
247,89,563,714,2
161,148,1023,783,2
118,152,944,1023,2
75,221,1023,1023,2
223,204,125,300,2
425,115,455,398,2
358,259,380,728,2
127,22,577,411,2
107,30,59,122,2
239,21,594,235,2
32,318,844,468,2
138,206,697,645,2
27,182,1023,1023,2
190,212,307,31,2
70,20,51,76,2
72,63,323,501,2
557,324,998,594,2
340,192,304,894,2
382,526,1023,26,2
366,281,89,453,2
19,60,1023,1023,2
228,297,513,1023,2
136,13,200,39,2
17,31,975,1023,2
95,66,47,849,2
354,145,330,759,2
81,205,10,754,2
650,25,322,646,2
134,140,23,117,2
0,191,1023,1023,2
160,69,35,390,2
433,280,443,465,2
104,398,739,1023,2
287,455,135,662,2
48,279,353,469,2
84,118,806,1023,2
323,763,675,940,2
238,118,808,591,2
227,357,109,177,2
8,187,961,1023,2
177,86,731,1023,2
9,259,101,279,2
161,502,787,187,2
84,285,48,1016,2
370,928,82,444,2
402,336,264,484,2
175,330,359,613,2
79,72,821,1023,2
681,221,296,141,2
208,251,1023,736,2
999,700,350,610,2
565,116,1023,1023,2
83,205,1023,690,2
316,270,122,935,2
65,373,837,1021,2
124,44,341,54,2
297,466,491,49,2
176,478,291,652,2
396,639,163,187,2
121,110,738,310,2
15,329,522,413,2
174,101,377,365,2
145,50,408,626,2
12,152,602,1023,2
212,12,42,424,2
84,59,1023,628,2
496,10,170,214,2
201,48,1023,1023,2
408,257,595,1023,2
55,116,1023,692,2
168,239,1023,600,2
179,329,373,1023,2
311,12,1023,769,2
284,23,146,1023,2
440,432,484,0,2
393,346,1023,1019,2
0,37,1023,1023,2
730,412,1023,1023,2
138,307,1023,1023,2
470,121,1023,1023,2
361,557,1023,1023,2
647,450,286,436,2
356,151,399,403,2
219,114,408,554,2
69,115,171,397,2
36,373,594,455,2
178,475,35,4,2
946,448,1023,1023,2
87,169,1023,1023,2
163,349,798,593,2
111,20,1023,1023,2
80,167,1023,1023,2
28,43,1023,1023,2
433,137,1023,1023,2
219,40,330,534,2
187,63,1023,1023,2
376,64,888,310,2
342,92,589,903,2
294,398,243,148,2
68,34,913,1004,2
479,160,830,114,2
795,433,394,676,2
201,193,1023,1023,2
872,691,387,585,2
90,403,1023,1023,2
796,73,1023,650,2
145,161,800,1023,2
305,88,1023,1023,2
115,153,114,119,2
130,355,623,1023,2
59,67,26,62,2
375,38,1023,1023,2
525,158,1023,375,2
142,127,1023,1023,2
145,95,1023,932,2
86,55,391,108,2
242,443,562,418,2
626,723,624,298,2
19,153,719,642,2
25,32,1023,1023,2
127,26,531,638,2
561,142,1023,1023,2
87,172,1023,1023,2
283,152,45,31,2
385,10,575,529,2
319,41,190,246,2
23,223,331,2,2
90,39,1023,1023,2
44,316,416,149,2
50,169,396,374,2
217,79,23,526,2
288,223,210,444,2
184,46,690,1023,2
150,41,1007,75,2
27,45,106,203,2
129,90,652,631,2
87,9,266,109,2
7,68,1023,1023,2
6,21,352,329,2
38,21,629,391,2
56,152,229,208,2
18,29,278,680,2
20,99,865,1023,2
67,70,123,830,2
54,17,528,221,2
330,9,1023,845,2
0,131,1023,677,2
251,30,685,104,2
147,307,278,264,2
192,14,1023,1023,2
402,311,1023,857,2
61,30,585,599,2
15,20,957,744,2
4,194,626,405,2
4,10,873,596,2
24,93,421,457,2
9,208,460,216,2
40,211,878,490,2
71,53,412,308,2
270,233,850,618,2
60,276,261,170,2
172,191,85,417,2
133,219,145,277,2
24,127,322,655,2
49,108,626,556,2
94,7,211,129,2
25,11,278,116,2
9,62,913,811,2
140,8,770,546,2
28,157,807,547,2
53,267,659,374,2
181,355,672,80,2
45,89,460,949,2
275,424,1023,819,2
129,295,473,78,2
142,110,239,576,2
94,291,442,307,2
50,9,861,550,2
35,35,182,124,2
99,8,118,675,2
3,240,274,824,2
72,90,89,131,2
299,126,449,597,2
35,164,778,538,2
320,230,218,104,2
99,62,369,182,2
63,147,848,733,2
201,572,588,296,2
107,161,104,297,2
167,127,286,648,2
243,518,71,235,2
4,189,524,101,2
72,19,266,518,2
1,92,366,458,2
105,54,138,98,2
3,76,229,425,2
62,88,676,385,2
141,191,621,260,2
197,392,66,179,2
240,142,16,254,2
178,611,349,19,2
133,17,200,743,2
323,453,1023,1023,2
344,440,182,125,2
154,328,976,464,2
129,43,168,486,2
60,59,758,473,2
69,13,56,200,2
159,178,507,136,2
103,141,246,52,2
2,16,107,256,2
299,74,433,413,2
161,82,155,769,2
156,233,667,551,2
61,292,507,4,2
4,179,411,259,2
115,80,98,284,2
164,343,650,288,2
38,148,754,590,2
116,93,535,860,2
43,168,566,312,2
5,148,14,198,2
25,383,461,850,2
87,279,16,61,2
67,125,773,571,2
91,21,417,72,2
93,79,528,681,2
440,148,923,787,2
135,101,76,9,2
310,386,60,305,2
71,375,324,221,2
279,215,320,206,2
308,362,671,538,2
236,215,559,794,2
381,329,97,483,2
55,137,253,174,2
159,528,67,1023,2
49,480,113,514,2
389,49,604,1023,2
97,392,343,374,2
10,270,649,521,2
259,286,275,405,2
163,379,139,441,2
106,192,11,59,2
191,196,338,324,2
6,141,83,146,2
19,270,423,75,2
66,23,105,110,2
32,59,431,251,2
18,92,164,413,2
87,203,421,293,2
175,55,127,13,2
23,9,228,623,2
157,317,359,188,2
73,162,538,726,2
23,71,47,76,2
202,32,270,649,2
307,61,118,123,2
6,61,261,172,2
47,19,601,377,2
92,137,77,67,2
114,275,146,561,2
40,6,42,474,2
137,43,3,541,2
163,241,105,159,2
84,78,231,69,2
13,143,98,213,2
159,57,626,792,2
43,9,373,231,2
44,216,426,375,2
73,110,296,142,2
3,65,285,172,2
31,40,228,329,2
55,209,228,261,2
75,55,294,7,2
135,211,73,104,2
153,47,181,0,2
14,43,344,357,2
152,34,93,266,2
25,47,151,47,2
74,123,32,100,2
106,92,289,5,2
76,96,331,224,2
88,130,169,34,2
88,7,447,399,2
108,177,177,42,2
33,8,272,270,2
38,132,312,44,2
91,78,103,253,2
47,7,156,176,2
114,124,271,150,2
0,50,237,273,2
140,125,539,380,2
99,108,523,650,2
62,87,181,201,2
75,109,212,328,2
74,334,89,30,2
49,94,344,57,2
192,278,41,94,2
82,151,63,72,2
376,604,373,142,2
32,37,133,0,2
173,436,180,212,2
40,102,97,115,2
119,233,1,27,2
1,94,298,170,2
25,376,369,214,2
104,86,361,270,2
139,179,811,332,2
21,79,207,500,2
15,260,397,251,2
121,11,435,422,2
176,308,171,128,2
68,171,33,74,2
11,313,38,231,2
41,123,504,474,2
4,17,464,636,2
292,441,810,896,2
10,75,425,601,2
41,39,682,705,2
92,14,674,601,2
48,5,184,364,2
1,29,326,200,2
62,71,471,497,2
26,49,122,201,2
92,299,451,801,2
15,209,427,2,2
215,28,147,95,2
80,31,599,567,2
14,154,574,274,2
153,217,632,312,2
2,91,432,123,2
41,54,27,4,2
7,44,89,219,2
27,53,63,154,2
200,79,549,110,2
163,89,63,87,2
82,56,397,2,2
267,102,56,65,2
229,59,315,369,2
67,279,180,150,2
64,152,803,425,2
23,62,65,82,2
139,30,493,82,2
314,301,932,1023,2
104,67,647,357,2
158,227,12,135,2
247,27,630,875,2
78,79,968,449,2
240,164,1023,846,2
347,311,1023,1023,2
386,154,1023,1023,2
182,30,1023,1023,2
23,36,608,636,2
287,295,476,1023,2
185,55,131,655,2
438,109,266,496,2
44,93,309,268,2
360,133,694,907,2
250,133,146,530,2
71,10,608,117,2
8,235,180,419,2
11,145,788,235,2
179,267,670,594,2
284,345,131,621,2
26,298,105,619,2
123,210,122,1023,2
332,294,102,560,2
131,44,677,433,2
441,9,539,966,2
167,111,164,370,2
397,54,255,36,2
379,101,1023,880,2
442,159,570,604,2
73,126,660,766,2
660,291,728,465,2
592,667,59,169,2
218,613,558,389,2
103,186,1023,1023,2
808,254,338,175,2
19,209,103,818,2
109,105,39,204,2
333,67,229,640,2
856,287,193,1023,2
159,66,94,570,2
618,143,648,189,2
339,224,856,840,2
231,6,794,1023,2
175,97,323,714,2
35,16,22,163,2
224,160,234,90,2
681,419,1023,499,2
44,319,1023,1023,2
116,407,1023,1023,2
7,55,1023,1023,2
135,263,1023,1023,2
519,195,776,1023,2
27,40,683,1023,2
376,193,672,525,2
77,273,252,323,2
173,24,718,687,2
284,209,316,439,2
662,184,979,755,2
175,480,142,626,2
1023,210,409,147,2
538,365,838,390,2
448,27,783,1023,2
26,180,490,1023,2
504,624,33,172,2
253,317,379,569,2
606,630,1023,1023,2
76,167,909,161,2
411,427,1023,1023,2
43,238,1023,633,2
244,145,62,1023,2
141,68,789,1019,2
222,44,384,538,2
123,155,184,248,2
940,164,484,20,2
349,55,997,970,2
340,346,604,1023,2
184,371,407,316,2
518,310,365,637,2
388,144,106,242,2
227,139,1023,714,2
651,83,191,557,2
507,423,689,1023,2
85,203,464,262,2
320,407,879,383,2
349,607,371,670,2
87,393,366,346,2
178,593,568,888,2
263,251,199,1023,2
533,913,106,1023,2
808,36,230,591,2
888,47,177,350,2
55,87,803,429,2
226,205,1023,1023,2
645,373,24,94,2
279,174,1023,856,2
998,687,1023,929,2
35,296,667,117,2
12,369,1023,43,2
911,176,616,401,2
124,306,584,779,2
62,345,362,117,2
98,99,164,831,2
479,336,1023,1023,2
36,55,555,868,2
438,245,230,1,2
691,311,426,412,2
284,214,50,472,2
783,333,774,696,2
774,391,970,921,2
488,348,131,138,2
101,117,59,106,2
286,369,666,893,2
540,189,423,924,2
428,93,548,160,2
424,61,1023,1023,2
91,20,1023,417,2
516,222,250,343,2
48,17,28,492,2
59,273,1023,1023,2
169,217,641,1023,2
1023,290,755,1023,2
160,399,142,427,2
420,494,35,140,2
315,280,108,906,2
14,9,240,243,2
294,133,659,387,2
66,225,1023,1023,2
187,86,46,32,2
96,189,492,1023,2
573,202,613,590,2
161,135,1023,1023,2
11,88,27,111,2
115,211,509,413,2
24,147,1012,1023,2
18,66,223,270,2
39,467,1023,1023,2
387,153,393,589,2
311,313,523,492,2
13,219,76,653,2
318,290,510,330,2
30,105,751,404,2
154,170,904,667,2
150,232,314,445,2
124,97,1023,1023,2
36,91,732,493,2
364,209,963,706,2
141,13,655,61,2
375,530,629,15,2
448,824,94,204,2
430,702,73,576,2
31,356,380,363,2
200,26,173,170,2
12,103,132,92,2
220,159,707,799,2
78,55,258,247,2
369,234,1023,859,2
67,95,961,774,2
20,225,467,261,2
141,188,1023,223,2
118,242,743,1023,2
131,8,514,280,2
45,259,565,528,2
159,88,211,678,2
157,357,467,830,2
65,48,638,503,2
118,69,160,50,2
169,143,241,188,2
81,132,55,227,2
240,119,641,471,2
250,11,488,570,2
11,11,720,291,2
312,199,551,792,2
4,45,86,114,2
89,44,348,104,2
26,35,216,331,2
169,416,1023,781,2
199,186,1023,1023,2
289,28,370,376,2
282,49,921,475,2
199,144,687,862,2
123,162,10,279,2
4,202,435,22,2
22,133,12,153,2
104,86,25,54,2
62,125,448,661,2
170,65,486,479,2
25,99,144,89,2
97,266,251,28,2
65,35,521,254,2
53,56,734,260,2
19,162,216,19,2
15,7,32,391,2
228,496,283,562,2
42,103,602,249,2
208,605,208,9,2
100,51,560,439,2
28,95,629,309,2
166,100,330,137,2
36,132,1023,951,2
151,23,650,737,2
403,23,587,400,2
142,345,356,491,2
277,271,608,549,2
407,610,1023,300,2
251,360,137,439,2
310,376,838,705,2
150,156,50,30,2
111,117,194,80,2
38,184,110,649,2
106,152,179,273,2
376,207,33,114,2
82,20,974,236,2
188,73,675,274,2
250,307,1023,968,2
155,110,562,395,2
81,144,420,448,2
112,19,10,6,2
342,370,393,126,2
38,21,119,162,2
49,103,421,179,2
16,10,188,314,2
350,123,193,201,2
74,322,250,88,2
168,239,424,519,2
278,284,227,539,2
25,35,127,185,2
135,269,663,528,2
143,200,447,871,2
37,21,218,151,2
106,438,946,950,2
130,518,422,164,2
203,207,203,446,2
62,357,1023,1023,2
531,59,204,728,2
265,164,253,657,2
51,23,854,736,2
46,229,88,267,2
112,11,572,1023,2
563,650,150,94,2
83,198,520,439,2
362,440,163,234,2
113,342,838,417,2
179,14,383,112,2
62,150,876,1023,2
418,103,354,35,2
384,227,322,198,2
7,24,410,216,2
51,47,92,109,2
9,474,52,21,2
244,240,50,179,2
20,42,454,982,2
89,143,251,543,2
211,34,640,359,2
18,256,457,104,2
222,146,30,29,2
25,317,277,399,2
121,137,299,291,2
55,110,16,198,2
31,86,299,291,2
77,156,674,342,2
172,75,120,269,2
38,178,135,3,2
87,17,410,225,2
305,258,339,467,2
328,353,431,253,2
124,37,9,39,2
27,142,290,127,2
65,55,164,128,2
341,381,403,151,2
66,45,240,68,2
90,135,679,926,2
218,372,40,93,2
52,86,539,758,2
11,11,59,571,2
36,78,308,7,2
4,14,84,126,2
22,33,113,254,2
229,183,38,123,2
168,70,51,200,2
10,10,373,604,2
34,244,106,323,2
203,121,159,444,2
195,372,257,275,2
168,388,637,264,2
38,31,323,907,2
90,215,348,246,2
118,113,84,18,2
125,258,262,68,2
42,23,549,614,2
90,130,522,149,2
94,139,572,366,2
16,7,147,35,2
19,90,170,23,2
39,19,9,221,2
135,171,233,390,2
117,350,261,355,2
202,562,70,2,2
197,256,364,217,2
112,65,24,378,2
133,122,134,257,2
216,114,228,175,2
9,238,354,198,2
32,100,105,55,2
69,230,175,159,2
109,185,5,130,2
64,14,162,41,2
20,6,247,389,2
186,278,152,134,2
3,61,147,167,2
142,296,125,371,2
36,372,21,162,2
70,239,420,321,2
65,12,23,87,2
147,118,6,233,2
187,209,149,12,2
250,261,156,417,2
29,71,194,140,2
13,6,232,60,2
139,169,81,0,2
3,33,175,135,2
80,168,4,65,2
45,214,206,147,2
36,10,46,299,2
67,61,189,57,2
40,68,40,139,2
71,325,181,370,2
86,127,7,213,2
190,224,307,392,2
331,327,405,97,2
247,126,12,61,2
1,125,325,87,2
166,199,500,79,2
61,139,91,397,2
192,179,484,264,2
6,118,226,415,2
63,174,266,110,2
74,41,129,59,2
36,73,255,299,2
20,253,386,404,2
1,131,124,37,2
70,25,9,81,2
218,302,346,261,2
92,385,11,37,2
60,152,432,449,2
224,238,14,321,2
62,99,44,191,2
15,75,196,411,2
23,9,202,318,2
101,56,172,374,2
196,199,486,500,2
87,196,267,304,2
47,121,753,754,2
270,56,590,667,2
126,43,244,303,2
235,95,29,324,2
109,177,357,167,2
100,332,11,52,2
176,131,686,1023,2
284,13,122,462,2
141,60,670,157,2
108,93,526,1023,2
223,27,541,613,2
178,56,49,385,2
59,141,135,730,2
298,72,306,372,2
30,8,494,12,2
31,70,68,486,2
103,167,260,475,2
188,143,301,284,2
153,228,329,385,2
116,166,2,472,2
91,43,180,239,2
94,170,878,561,2
146,27,392,913,2
100,133,885,992,2
1,27,388,721,2
109,150,352,421,2
55,228,1,350,2
409,44,407,283,2
526,436,481,443,2
65,202,557,1023,2
745,744,29,818,2
10,270,686,65,2
54,10,300,101,2
385,157,507,39,2
150,111,619,555,2
320,7,404,1023,2
784,131,704,1023,2
266,131,27,177,2
201,79,490,751,2
648,499,338,1023,2
596,306,374,258,2
46,219,940,1023,2
209,137,236,332,2
275,245,396,50,2
126,127,126,1023,2
162,46,34,730,2
92,339,998,243,2
45,397,941,985,2
291,580,1023,912,2
449,190,929,1023,2
493,167,518,122,2
432,251,5,191,2
527,501,126,721,2
36,29,62,974,2
76,20,1023,894,2
385,63,53,28,2
374,27,1023,654,2
17,212,394,18,2
148,133,726,1023,2
197,489,164,602,2
137,197,167,115,2
58,428,203,172,2
191,384,238,1023,2
195,64,247,495,2
619,467,751,63,2
55,311,405,707,2
59,295,383,306,2
567,549,137,634,2
369,99,1023,1023,2
858,492,790,1023,2
298,56,1023,1023,2
327,387,299,554,2
283,205,1023,1023,2
670,289,1023,1023,2
409,202,1023,1023,2
631,35,272,329,2
10,97,460,944,2
827,270,33,694,2
897,1023,1023,1023,2
354,644,697,53,2
11,583,846,1023,2
352,331,1023,1018,2
334,361,757,638,2
372,156,1023,1023,2
538,109,240,371,2
57,497,899,687,2
374,315,764,76,2
352,387,336,64,2
467,402,135,640,2
388,406,446,499,2
246,338,206,438,2
274,175,614,1023,2
599,82,369,29,2
136,415,1023,347,2
144,261,455,52,2
134,152,191,757,2
250,104,57,574,2
136,87,225,269,2
298,126,160,780,2
110,274,837,1023,2
142,298,809,720,2
59,495,1023,1023,2
453,565,547,1023,2
92,561,1023,1023,2
134,635,92,340,2
609,386,28,23,2
319,145,891,707,2
14,305,350,50,2
169,56,1023,1023,2
466,388,311,330,2
207,77,884,1023,2
321,121,87,529,2
238,185,272,443,2
27,160,195,450,2
230,554,1023,1023,2
26,120,1023,1023,2
193,322,1023,919,2
413,26,915,608,2
58,435,374,1023,2
91,200,1023,1023,2
702,343,391,8,2
413,9,387,413,2
158,59,1023,1023,2
531,163,455,284,2
572,46,1023,1023,2
280,277,1023,474,2
198,9,1023,1023,2
58,351,772,114,2
81,170,546,1023,2
139,431,260,223,2
180,237,112,175,2
80,41,371,832,2
519,18,397,512,2
154,103,40,73,2
47,108,293,215,2
376,329,350,305,2
290,270,416,183,2
20,19,303,421,2
284,189,1023,877,2
582,390,410,476,2
267,97,1023,1023,2
23,531,414,1023,2
194,217,854,794,2
193,435,1023,977,2
177,255,117,26,2
238,85,474,53,2
501,111,97,797,2
32,163,128,500,2
121,120,273,719,2
433,168,461,37,2
63,32,326,8,2
406,136,434,102,2
47,89,463,547,2
164,101,36,277,2
286,251,1023,583,2
6,431,1023,769,2
385,662,529,285,2
43,232,1023,704,2
159,153,684,563,2
127,214,716,1023,2
16,154,326,168,2
178,117,916,560,2
210,96,151,123,2
171,199,968,858,2
309,265,16,510,2
75,104,101,148,2
11,47,839,500,2
45,8,402,580,2
66,125,1023,1023,2
235,206,250,168,2
234,396,477,377,2
90,99,397,432,2
6,139,491,287,2
410,371,639,650,2
99,7,49,115,2
68,133,419,415,2
32,165,902,768,2
76,224,19,327,2
243,130,546,488,2
322,227,38,319,2
71,45,548,1023,2
309,136,340,15,2
458,210,64,346,2
92,44,178,235,2
13,128,168,195,2
124,243,303,334,2
113,21,237,349,2
427,226,591,227,2
87,28,348,178,2
134,9,393,427,2
65,112,336,187,2
67,23,767,732,2
119,11,62,58,2
8,27,1023,1023,2
347,153,27,358,2
73,100,530,61,2
3,27,560,951,2
50,279,286,448,2
10,253,119,305,2
139,173,193,416,2
167,383,146,688,2
114,372,117,119,2
14,63,715,812,2
305,337,401,574,2
111,110,589,294,2
14,30,197,39,2
40,61,860,638,2
127,127,950,881,2
114,150,392,122,2
199,191,338,580,2
638,372,74,26,2
266,142,102,35,2
6,163,103,236,2
97,111,302,775,2
131,121,171,102,2
513,688,7,271,2
3,99,131,135,2
110,255,318,163,2
125,172,336,859,2
95,70,51,42,2
24,23,42,46,2
174,71,36,0,2
9,88,888,555,2
120,87,47,288,2
219,309,625,825,2
248,176,302,343,2
72,88,13,249,2
110,28,865,314,2
378,521,402,813,2
162,204,404,291,2
346,518,459,585,2
223,307,112,252,2
291,203,360,240,2
5,92,280,620,2
81,54,318,219,2
17,112,595,343,2
131,28,384,66,2
139,124,346,292,2
212,106,530,714,2
302,320,158,461,2
42,57,268,258,2
169,374,112,433,2
12,282,956,805,2
18,16,175,234,2
117,333,565,836,2
18,15,652,396,2
256,316,262,627,2
59,1023,783,1023,2
51,716,415,175,2
261,199,791,772,2
161,34,789,697,2
12,88,503,20,2
133,46,1023,1023,2
157,19,49,193,2
129,46,473,116,2
30,217,200,362,2
319,90,84,285,2
132,282,507,821,2
126,639,648,869,2
274,798,854,972,2
122,399,513,61,2
303,171,707,871,2
17,456,171,153,2
123,119,328,211,2
53,66,3,121,2
8,87,139,587,2
150,294,211,159,2
78,152,144,452,2
122,164,418,569,2
1,179,150,180,2
284,501,79,546,2
8,284,240,217,2
59,147,27,103,2
514,50,363,278,2
106,247,235,115,2
129,14,24,233,2
122,80,625,920,2
255,393,126,252,2
5,297,107,160,2
66,140,267,319,2
24,158,71,235,2
159,322,235,316,2
138,111,418,326,2
64,72,271,157,2
237,314,524,219,2
243,377,657,277,2
94,81,267,285,2
64,27,58,66,2
131,52,303,245,2
89,151,124,165,2
311,724,375,0,2
216,324,246,527,2
40,39,443,538,2
113,105,360,383,2
102,145,242,121,2
93,24,653,543,2
64,261,233,336,2
169,150,104,28,2
63,23,132,545,2
32,227,12,217,2
60,141,3,20,2
22,100,329,426,2
112,48,97,173,2
136,124,436,326,2
190,173,168,60,2
90,217,159,39,2
86,28,319,343,2
169,285,125,34,2
248,147,343,34,2
2,15,245,423,2
255,385,326,210,2
204,210,54,248,2
130,231,131,56,2
274,475,258,267,2
232,185,111,214,2
8,172,204,78,2
162,87,20,3,2
20,81,52,47,2
139,67,5,118,2
4,51,338,181,2
162,215,94,6,2
98,20,82,0,2
9,171,45,582,2
137,81,416,134,2
18,198,288,216,2
308,531,483,614,2
102,25,10,19,2
81,287,499,731,2
185,160,128,129,2
342,563,602,551,2
7,36,27,6,2
210,559,409,464,2
44,135,313,12,2
113,76,235,191,2
14,13,19,39,2
88,21,201,147,2
6,143,97,177,2
34,29,127,56,2
98,141,247,276,2
100,77,56,9,2
278,201,62,0,2
212,502,65,0,2
174,75,119,0,2
22,190,6,240,2
1,67,323,152,2
205,87,116,0,2
207,365,133,142,2
47,96,14,29,2
20,111,168,8,2
40,80,19,23,2
2,22,170,203,2
236,197,231,89,2
41,248,5,168,2
7,58,101,74,2
0,76,264,644,2
13,23,139,68,2
39,82,240,749,2
62,192,149,54,2
38,208,198,344,2
79,168,223,245,2
141,210,730,121,3
317,309,281,36,3
205,177,477,367,3
97,28,351,478,3
58,117,224,120,3
75,68,296,366,3
73,194,253,356,3
107,139,218,428,3
26,27,213,463,3
43,51,551,483,3
57,168,120,26,3
17,69,247,685,3
172,116,376,21,3
220,293,3,52,3
245,197,78,153,3
367,338,31,143,3
268,400,135,440,3
218,144,523,452,3
34,210,697,731,3
12,12,36,318,3
46,72,168,162,3
10,107,16,133,3
139,153,159,316,3
100,291,32,3,3
60,22,97,279,3
105,40,588,313,3
810,199,666,794,3
43,11,765,674,3
452,436,864,1023,3
40,53,133,179,3
417,116,863,325,3
303,295,261,71,3
81,17,275,195,3
204,23,88,0,3
139,158,134,197,3
79,18,287,341,3
113,164,240,386,3
234,192,317,194,3
106,145,433,584,3
71,277,357,248,3
267,248,48,205,3
78,265,1023,891,3
262,328,431,896,3
11,64,557,636,3
153,234,364,689,3
9,397,710,310,3
431,22,830,1023,3
432,437,1023,1023,3
60,124,1023,1023,3
169,85,454,247,3
137,134,590,248,3
324,60,141,14,3
61,12,110,69,3
179,397,105,348,3
152,170,457,515,3
28,17,575,987,3
328,174,556,496,3
96,24,550,396,3
38,686,233,143,3
188,307,23,234,3
143,128,183,142,3
834,23,392,1023,3
311,74,887,482,3
353,169,768,835,3
128,271,1007,876,3
321,127,1000,1023,3
175,21,721,350,3
400,29,458,994,3
246,511,255,31,3
340,94,452,327,3
616,97,63,1023,3
61,814,237,927,3
195,24,312,517,3
2,356,51,472,3
337,254,719,1023,3
130,406,68,622,3
183,300,324,859,3
99,291,576,628,3
303,371,84,86,3
162,64,1023,1023,3
228,177,428,592,3
579,468,582,1023,3
456,33,887,1023,3
483,253,637,958,3
32,244,86,303,3
146,154,846,1023,3
313,602,892,1023,3
319,525,448,1023,3
281,101,1023,1023,3
453,306,632,1023,3
661,422,1023,516,3
236,139,486,135,3
103,154,842,126,3
84,147,478,1023,3
133,938,144,619,3
625,709,578,738,3
1023,680,763,25,3
391,357,895,1023,3
259,314,385,511,3
485,402,121,89,3
268,170,571,367,3
257,401,642,367,3
477,137,445,198,3
452,468,1023,1023,3
1001,601,950,1023,3
486,114,1023,391,3
647,482,1023,755,3
98,450,1023,1023,3
340,311,1023,958,3
512,100,1023,856,3
130,409,1023,1023,3
675,366,338,137,3
86,728,243,1023,3
173,125,1023,1023,3
109,6,1023,1023,3
178,68,701,410,3
142,44,1023,831,3
33,141,1023,700,3
596,245,1023,724,3
43,629,704,625,3
557,848,1023,1023,3
197,462,853,552,3
20,113,226,511,3
313,108,737,263,3
148,241,640,550,3
333,416,1023,980,3
25,735,462,1023,3
389,494,1023,1023,3
676,433,169,0,3
248,684,190,48,3
221,655,359,111,3
32,33,498,841,3
520,235,1023,482,3
76,353,149,728,3
216,348,1023,722,3
200,72,1023,1023,3
696,275,1023,1023,3
244,237,1023,1023,3
874,564,1023,1023,3
483,431,1023,1023,3
26,594,1023,22,3
1023,585,1023,1023,3
20,330,1006,1023,3
767,279,997,678,3
238,588,1023,1023,3
237,45,709,1023,3
421,266,337,779,3
742,125,712,1023,3
309,33,1023,1023,3
325,22,690,22,3
216,33,1023,1023,3
330,188,595,201,3
280,163,715,772,3
249,69,737,634,3
580,175,1023,993,3
458,615,1023,1023,3
129,23,1023,1023,3
26,70,651,411,3
121,322,1023,1023,3
266,368,302,208,3
338,13,1023,1023,3
21,38,1023,1023,3
139,170,586,373,3
948,707,1023,1023,3
431,503,1023,1023,3
76,201,435,306,3
158,141,782,1023,3
191,51,1023,1023,3
99,82,185,48,3
142,129,1023,1023,3
70,156,45,278,3
142,92,12,228,3
225,189,1023,1023,3
212,248,109,334,3
432,404,591,394,3
261,62,695,498,3
0,321,651,134,3
321,366,43,119,3
20,77,365,263,3
218,421,159,174,3
25,237,1023,1023,3
194,78,556,1023,3
249,41,488,346,3
83,148,907,723,3
26,23,378,184,3
304,184,538,520,3
46,21,27,48,3
142,239,945,951,3
43,104,521,75,3
10,47,1023,1023,3
229,178,437,334,3
59,121,508,527,3
42,58,181,289,3
276,329,438,198,3
262,69,813,538,3
151,28,1023,790,3
7,83,640,484,3
179,256,1023,716,3
151,280,219,546,3
126,146,456,526,3
114,208,203,290,3
0,63,705,453,3
395,9,500,663,3
145,73,1023,1023,3
103,127,45,480,3
232,184,1023,1023,3
66,41,846,1023,3
51,13,405,239,3
10,87,728,409,3
3,59,46,253,3
148,70,363,101,3
21,83,263,233,3
153,106,910,537,3
84,33,555,429,3
149,39,324,385,3
98,266,657,732,3
173,107,152,100,3
51,357,957,1023,3
111,319,225,562,3
111,21,421,3,3
74,72,945,611,3
46,198,656,0,3
3,14,585,728,3
444,87,410,382,3
123,67,316,141,3
204,263,522,281,3
20,84,36,183,3
61,208,1023,59,3
23,190,906,5,3
508,63,608,55,3
423,740,612,1023,3
146,303,399,468,3
237,77,755,594,3
62,68,327,1023,3
299,140,656,1023,3
141,210,848,698,3
204,263,1023,1023,3
54,25,1023,695,3
216,71,198,297,3
68,36,348,53,3
134,225,285,0,3
357,211,81,34,3
137,124,260,244,3
105,16,234,452,3
315,859,322,284,3
91,327,312,1023,3
188,461,379,89,3
147,332,707,28,3
545,186,63,482,3
159,86,560,492,3
120,57,683,180,3
103,121,294,39,3
455,467,13,175,3
89,125,60,276,3
281,289,167,376,3
134,30,500,398,3
48,145,177,672,3
197,311,263,194,3
46,38,917,259,3
335,520,29,41,3
72,361,847,329,3
18,63,54,200,3
146,49,369,207,3
71,89,148,237,3
91,229,55,118,3
429,407,455,153,3
266,269,836,651,3
205,251,272,5,3
111,198,917,14,3
56,31,30,315,3
17,59,444,72,3
29,150,241,62,3
605,881,222,124,3
151,218,96,153,3
2,198,459,470,3
137,39,139,456,3
371,477,596,764,3
59,73,395,279,3
38,14,326,486,3
7,110,419,299,3
780,966,648,457,3
323,348,256,416,3
303,110,22,22,3
41,128,47,85,3
173,135,409,555,3
42,122,596,595,3
16,441,379,505,3
324,177,196,203,3
155,545,500,904,3
152,369,572,183,3
7,289,254,1,3
282,237,444,910,3
368,189,800,465,3
17,226,484,33,3
186,185,718,1023,3
10,42,673,889,3
26,172,445,167,3
86,295,529,707,3
38,19,183,73,3
87,43,63,47,3
288,254,391,328,3
8,59,103,176,3
186,147,798,757,3
151,261,34,167,3
387,488,463,319,3
353,669,195,278,3
54,277,411,307,3
74,68,441,482,3
165,123,474,499,3
324,151,74,54,3
92,204,855,950,3
159,15,369,224,3
141,43,135,34,3
95,52,37,0,3
3,118,1,54,3
5,17,199,122,3
0,12,280,246,3
75,142,236,250,3
8,63,496,243,3
302,30,131,308,3
178,207,115,154,3
128,358,274,744,3
39,146,149,598,3
56,56,123,41,3
128,140,250,78,3
303,332,43,102,3
143,33,32,194,3
67,108,264,290,3
53,65,42,22,3
65,60,363,202,3
2,66,207,229,3
263,320,22,61,3
104,103,98,0,3
262,278,176,167,3
130,241,39,118,3
451,429,95,213,3
590,176,3,517,3
278,255,258,189,3
25,107,27,90,3
18,28,174,36,3
18,117,253,98,3
86,90,271,155,3
185,133,476,70,3
41,240,166,174,3
187,276,157,4,3
336,251,242,0,3
20,151,186,129,3
210,182,156,201,3
47,56,188,116,3
366,158,254,67,3
187,360,334,32,3
103,10,336,545,3
99,397,234,79,3
138,430,196,44,3
144,163,412,232,3
96,227,105,7,3
149,141,449,240,3
112,157,344,548,3
38,46,78,135,3
195,246,667,509,3
18,15,210,373,3
396,356,399,257,3
16,50,107,75,3
79,123,446,309,3
120,135,90,103,3
103,226,204,334,3
55,125,273,6,3
128,91,303,100,3
220,424,449,211,3
66,213,95,184,3
309,373,195,137,3
121,72,37,52,3
278,272,102,69,3
4,19,40,6,3
72,120,76,59,3
140,20,356,0,3
357,201,293,222,3
205,168,272,122,3
62,206,341,670,3
102,320,112,46,3
49,374,571,738,3
302,158,116,145,3
61,79,520,381,3
17,99,555,790,3
20,71,99,209,3
159,114,454,191,3
23,271,74,125,3
218,191,88,75,3
8,33,303,76,3
122,63,516,502,3
71,162,250,130,3
431,7,440,273,3
25,319,447,341,3
53,31,484,498,3
88,190,67,16,3
84,290,167,230,3
26,118,274,381,3
297,245,227,270,3
123,265,238,81,3
73,9,829,625,3
158,103,224,406,3
231,239,693,771,3
157,525,646,712,3
5,153,85,140,3
58,258,612,248,3
319,293,181,81,3
240,247,196,255,3
118,37,577,1016,3
159,333,782,505,3
130,177,1023,1023,3
278,53,998,257,3
69,306,1023,1023,3
97,775,520,480,3
318,492,997,686,3
234,341,756,23,3
233,59,823,339,3
741,246,771,540,3
11,133,835,830,3
31,23,266,127,3
287,115,892,1023,3
33,229,385,528,3
143,140,750,1023,3
164,83,809,138,3
629,171,418,1023,3
48,490,730,317,3
52,226,482,1023,3
72,274,1023,1023,3
425,79,800,622,3
469,558,1023,871,3
149,247,900,157,3
181,222,884,661,3
303,405,300,40,3
435,481,792,54,3
364,128,34,700,3
518,53,150,269,3
209,19,751,1023,3
37,9,833,820,3
135,297,4,1023,3
952,455,155,995,3
75,194,122,952,3
373,47,178,551,3
611,71,501,648,3
38,96,191,250,3
322,618,29,760,3
161,94,338,181,3
393,350,660,449,3
353,308,40,861,3
365,456,501,197,3
140,106,154,835,3
124,154,930,1023,3
521,836,1023,1023,3
656,480,195,553,3
16,124,26,51,3
238,201,227,764,3
92,151,610,741,3
398,13,404,259,3
537,289,588,492,3
20,215,563,488,3
79,171,970,1023,3
212,74,1023,443,3
118,95,47,334,3
260,127,129,563,3
195,211,607,223,3
55,386,1001,1023,3
218,113,320,70,3
913,63,1023,1023,3
557,552,321,1023,3
43,258,1004,1023,3
33,383,159,356,3
1023,919,451,717,3
650,400,355,665,3
147,818,711,129,3
442,123,255,500,3
226,415,360,199,3
38,255,146,785,3
137,309,85,616,3
3,468,479,173,3
27,274,133,201,3
231,187,1023,175,3
254,756,597,916,3
343,272,833,381,3
47,208,761,1023,3
149,388,359,70,3
201,36,1023,1023,3
875,563,200,9,3
250,271,1023,1023,3
1023,744,1023,704,3
654,660,474,785,3
759,230,1023,1023,3
526,232,65,97,3
107,348,1023,655,3
700,332,297,145,3
479,80,131,2,3
21,287,28,79,3
98,177,831,375,3
486,578,305,48,3
48,25,357,119,3
808,892,462,63,3
428,188,1023,170,3
151,259,448,872,3
392,66,1023,1023,3
384,257,252,246,3
134,44,941,891,3
23,242,1023,853,3
172,284,246,688,3
547,22,1023,1023,3
219,109,579,45,3
601,222,1023,1023,3
167,73,725,438,3
23,55,123,897,3
172,507,1023,413,3
1023,1023,699,813,3
332,128,145,582,3
398,63,541,69,3
335,533,516,395,3
593,205,1023,180,3
239,46,39,505,3
60,32,1023,349,3
551,369,472,123,3
103,322,875,1023,3
452,233,970,186,3
98,231,448,157,3
175,36,1023,1023,3
477,729,543,889,3
165,141,1023,1023,3
200,31,761,1023,3
51,52,281,0,3
118,44,178,183,3
75,450,747,440,3
247,510,86,378,3
178,148,583,295,3
474,14,451,1023,3
306,582,994,1021,3
44,56,115,371,3
259,277,1023,953,3
163,125,250,235,3
30,10,39,305,3
116,79,152,534,3
364,231,301,21,3
517,450,636,579,3
141,166,771,848,3
79,40,163,246,3
27,191,1023,1023,3
349,777,913,368,3
397,33,1023,897,3
481,589,388,240,3
121,132,821,1023,3
237,6,432,1023,3
52,244,232,475,3
79,96,1023,1023,3
57,121,57,73,3
324,376,1023,1023,3
285,155,602,462,3
326,18,696,556,3
82,55,1023,1023,3
28,92,114,116,3
62,44,664,646,3
88,124,177,105,3
16,133,39,67,3
179,305,933,844,3
4,253,4,637,3
390,208,645,105,3
52,127,79,215,3
105,149,328,365,3
31,177,450,358,3
7,89,245,367,3
17,7,325,332,3
223,223,442,248,3
168,45,134,97,3
257,255,413,587,3
79,9,411,271,3
128,285,239,168,3
506,420,703,228,3
181,532,400,740,3
65,55,165,4,3
102,199,1023,1023,3
69,37,336,723,3
123,45,1023,1023,3
445,504,643,468,3
13,10,801,642,3
225,297,315,82,3
144,121,704,346,3
157,39,184,106,3
63,207,364,398,3
199,111,161,244,3
138,241,19,135,3
449,408,321,115,3
246,148,35,44,3
43,60,408,959,3
212,293,38,109,3
131,448,720,284,3
218,248,233,451,3
72,139,760,911,3
43,49,720,537,3
381,397,26,206,3
220,235,389,292,3
179,89,944,0,3
106,190,303,133,3
47,130,397,6,3
2,118,459,468,3
195,22,137,18,3
72,158,667,294,3
1,120,225,764,3
160,301,173,200,3
234,401,34,1023,3
277,320,1023,672,3
57,398,186,249,3
8,246,1023,905,3
227,49,255,582,3
56,213,949,999,3
101,23,533,530,3
177,444,152,332,3
5,81,35,351,3
228,186,563,635,3
75,126,354,145,3
440,158,622,1023,3
6,26,671,936,3
134,35,571,1023,3
171,80,16,189,3
244,22,44,123,3
5,434,217,371,3
123,440,861,762,3
240,127,793,316,3
52,111,822,607,3
34,245,1023,869,3
144,248,221,307,3
16,192,167,44,3
30,283,1015,463,3
131,495,893,572,3
46,183,1023,660,3
230,88,22,192,3
185,253,1023,1023,3
120,559,175,408,3
281,1023,911,389,3
388,275,547,1023,3
95,145,654,429,3
24,134,262,59,3
379,10,343,16,3
81,311,246,86,3
120,188,293,490,3
54,37,521,239,3
164,94,150,52,3
3,159,569,260,3
142,95,348,438,3
141,209,57,76,3
13,335,133,335,3
133,33,806,1023,3
457,365,428,73,3
78,32,336,875,3
286,298,529,724,3
178,197,78,127,3
286,143,792,643,3
177,217,61,50,3
157,65,130,131,3
69,146,16,26,3
79,15,814,638,3
77,91,37,103,3
15,158,137,153,3
126,10,243,293,3
235,483,634,321,3
123,48,451,641,3
2,167,339,511,3
44,163,561,387,3
7,31,72,86,3
104,367,338,850,3
232,237,139,405,3
65,316,294,246,3
53,81,143,145,3
24,86,613,251,3
204,392,299,144,3
15,194,993,824,3
260,556,61,181,3
104,29,415,418,3
81,18,100,542,3
88,68,154,244,3
165,34,97,215,3
185,156,78,65,3
164,99,23,107,3
108,240,25,7,3
128,301,55,75,3
48,7,310,71,3
260,274,110,26,3
90,138,342,407,3
16,333,259,166,3
13,107,130,9,3
97,70,100,223,3
158,129,369,268,3
33,55,198,38,3
130,129,179,4,3
88,50,361,221,3
7,21,114,234,3
6,22,126,94,3
142,213,358,348,3
273,304,390,351,3
136,142,203,319,3
231,385,224,65,3
396,325,62,0,3
15,54,56,58,3
314,519,14,248,3
35,116,13,298,3
103,55,152,205,3
22,40,368,183,3
13,27,86,16,3
10,19,176,190,3
19,64,175,182,3
45,26,53,0,3
0,51,235,213,3
4,189,288,191,3
132,147,102,90,3
18,139,337,146,3
13,38,147,128,3
167,79,19,71,3
196,211,345,132,3
324,356,169,215,3
58,85,637,315,3
386,268,335,325,3
59,297,29,75,3
54,336,19,210,3
35,41,5,44,3
0,258,77,246,3
23,41,7,86,3
126,118,6,140,3
36,143,396,360,3
157,19,28,195,3
85,156,527,577,3
239,322,86,45,3
10,45,854,741,3
236,187,331,310,3
194,206,540,299,3
4,8,548,412,3
205,250,184,283,3
97,72,228,84,3
78,38,226,309,3
15,106,144,109,3
3,153,143,32,3
81,284,10,198,3
45,102,1,3,3
182,160,79,35,3
39,188,128,141,3
14,57,400,455,3
66,96,625,347,3
30,82,323,300,3
42,103,548,461,3
318,425,95,26,3
113,63,168,130,3
34,134,58,45,3
79,32,88,113,3
111,58,82,203,3
16,216,18,228,3
73,182,504,124,3
108,191,426,394,3
33,130,406,352,3
185,57,528,432,3
92,107,301,41,3
59,11,215,263,3
226,197,298,231,3
467,39,116,38,3
165,33,573,536,3
47,100,65,95,3
74,5,125,71,3
71,111,64,61,3
217,248,255,252,3
96,7,4,455,3
35,261,315,430,3
344,157,388,450,3
115,130,409,612,3
202,175,143,513,3
28,108,681,628,3
18,39,301,526,3
199,103,76,355,3
294,245,37,27,3
40,307,761,948,3
276,394,832,828,3
108,235,283,139,3
229,365,484,811,3
647,83,654,622,3
466,24,180,655,3
6,45,226,656,3
240,397,524,506,3
520,388,607,890,3
132,76,899,788,3
385,221,211,195,3
233,150,1023,1023,3
658,504,308,1023,3
275,30,1023,1018,3
89,158,389,1023,3
96,135,153,371,3
263,69,51,683,3
712,305,864,1023,3
107,115,693,902,3
434,230,679,2,3
346,718,112,536,3
72,99,1023,1023,3
850,807,131,587,3
257,213,369,76,3
284,494,93,22,3
256,438,1015,928,3
436,38,204,11,3
155,387,209,494,3
512,315,733,1023,3
362,305,161,612,3
314,216,783,819,3
198,78,488,105,3
93,755,139,641,3
553,223,1023,117,3
681,538,878,3,3
36,175,946,480,3
239,208,1023,457,3
140,135,451,1023,3
384,237,976,555,3
1017,505,163,1011,3
165,467,714,1023,3
512,286,39,700,3
301,416,563,560,3
148,119,261,27,3
1023,826,827,820,3
785,43,148,643,3
866,333,227,3,3
368,344,264,828,3
698,335,411,72,3
378,1023,678,1023,3
519,417,95,494,3
177,212,1023,1023,3
358,568,172,90,3
71,169,717,1023,3
532,500,306,1,3
34,661,269,274,3
145,245,619,910,3
175,282,312,504,3
528,344,1023,944,3
76,599,20,318,3
561,433,1023,507,3
1023,576,222,1023,3
276,187,1023,776,3
556,94,759,33,3
171,295,393,1023,3
30,399,1023,459,3
175,586,269,726,3
349,492,958,186,3
69,77,825,273,3
333,47,325,1023,3
78,1023,385,89,3
50,65,1023,1023,3
267,843,484,809,3
174,641,1023,1023,3
565,228,609,724,3
270,180,903,195,3
1023,442,466,104,3
660,781,892,890,3
333,369,138,857,3
724,683,1002,1023,3
278,159,379,46,3
290,462,305,351,3
138,47,613,0,3
53,87,393,711,3
138,1012,30,644,3
255,574,95,47,3
189,518,207,93,3
214,617,343,410,3
47,78,396,301,3
418,327,75,454,3
609,295,1023,735,3
253,6,565,1023,3
964,341,348,166,3
478,12,465,155,3
192,265,971,13,3
122,222,107,1023,3
1023,1023,420,236,3
793,338,362,814,3
534,1023,101,103,3
166,507,724,1023,3
1023,996,552,780,3
320,265,709,109,3
113,40,622,784,3
195,308,1023,1023,3
198,226,804,1023,3
239,392,1023,1023,3
226,191,949,81,3
426,305,65,613,3
456,338,14,205,3
273,52,1023,890,3
185,443,538,1023,3
265,34,970,687,3
153,291,485,758,3
474,221,385,1023,3
697,432,193,85,3
967,513,752,357,3
49,82,390,0,3
574,520,1023,786,3
31,101,898,983,3
98,188,1023,547,3
490,428,423,818,3
79,720,479,81,3
363,156,422,480,3
109,99,323,791,3
205,441,115,680,3
1,172,616,589,3
126,113,455,362,3
162,277,801,600,3
108,276,1023,953,3
91,352,753,1023,3
421,360,1023,1023,3
280,288,993,772,3
428,84,1023,1023,3
356,92,778,132,3
248,197,1023,1023,3
268,290,513,172,3
306,268,636,744,3
478,408,139,262,3
187,84,42,49,3
389,372,494,346,3
246,169,73,125,3
48,194,426,800,3
187,402,183,158,3
42,118,228,114,3
7,19,442,448,3
249,37,345,231,3
522,420,299,379,3
30,94,259,124,3
212,211,189,188,3
126,48,602,536,3
228,276,387,6,3
542,374,50,200,3
0,9,1023,1023,3
170,100,1023,1023,3
114,282,956,987,3
216,294,938,615,3
1,47,1023,1023,3
262,235,374,237,3
66,62,1023,1023,3
102,532,512,208,3
16,137,15,220,3
58,34,242,77,3
44,108,1023,1023,3
204,333,606,62,3
184,178,1000,982,3
41,54,111,186,3
153,213,571,205,3
61,75,380,483,3
51,12,118,169,3
64,34,497,333,3
33,87,226,25,3
30,139,978,843,3
11,120,153,100,3
64,26,625,469,3
57,165,70,119,3
98,284,645,321,3
252,224,533,701,3
47,38,716,545,3
2,10,635,448,3
168,148,373,192,3
261,161,360,476,3
15,200,73,157,3
42,411,274,443,3
46,36,222,91,3
224,462,633,1023,3
2,176,869,1023,3
230,113,209,55,3
181,332,754,831,3
515,587,736,712,3
265,55,95,85,3
68,177,1023,1023,3
34,50,74,235,3
278,290,1023,1023,3
194,14,152,212,3
56,27,738,446,3
175,227,971,547,3
667,437,611,251,3
92,280,630,442,3
368,872,174,949,3
394,191,1011,799,3
554,423,363,509,3
125,15,1023,1023,3
252,253,101,278,3
53,65,221,354,3
30,23,260,333,3
197,109,694,448,3
82,31,527,165,3
458,43,155,142,3
51,51,803,471,3
156,47,370,220,3
157,257,891,559,3
503,293,148,166,3
211,282,528,95,3
321,201,641,717,3
18,73,167,344,3
209,114,345,15,3
2,313,39,11,3
102,337,251,552,3
265,35,176,0,3
79,277,15,16,3
54,31,732,688,3
97,164,694,642,3
106,299,620,706,3
79,127,1023,917,3
10,64,128,581,3
162,419,956,596,3
176,234,22,58,3
318,233,501,311,3
97,152,295,590,3
117,215,170,628,3
416,204,78,300,3
860,528,72,187,3
158,203,315,165,3
35,87,15,157,3
68,44,325,0,3
106,155,58,193,3
61,29,419,231,3
400,130,326,82,3
148,228,561,193,3
32,27,415,129,3
270,186,183,44,3
68,309,573,531,3
191,700,124,289,3
58,97,75,1017,3
130,222,153,436,3
126,199,88,628,3
68,197,759,880,3
254,467,487,797,3
265,567,618,398,3
33,226,446,463,3
131,145,605,803,3
138,64,293,429,3
3,18,201,85,3
72,292,105,40,3
409,634,302,554,3
319,195,79,20,3
41,81,105,111,3
186,417,21,129,3
60,173,245,281,3
138,551,829,757,3
253,66,260,274,3
223,280,907,640,3
59,34,17,327,3
435,37,277,432,3
377,359,1,6,3
375,467,380,447,3
45,122,37,71,3
171,200,234,29,3
234,265,235,409,3
134,130,230,86,3
15,348,124,233,3
313,493,168,371,3
200,380,128,295,3
116,250,222,3,3
471,259,200,209,3
308,118,77,51,3
81,58,301,283,3
390,399,207,67,3
107,197,31,123,3
183,237,24,97,3
36,69,306,130,3
136,142,81,132,3
73,38,453,373,3
262,485,27,134,3
11,114,227,228,3
163,23,322,644,3
309,24,31,450,3
128,90,336,56,3
89,73,51,257,3
139,385,313,250,3
10,28,147,70,3
253,212,123,46,3
110,163,231,162,3
29,25,49,0,3
9,156,137,53,3
83,132,119,81,3
12,35,141,86,3
80,179,114,110,3
46,14,173,90,3
265,202,213,433,3
71,253,77,85,3
41,284,233,244,3
109,203,151,11,3
51,46,18,341,3
404,656,96,215,3
288,339,175,185,3
172,108,111,190,3
24,68,145,20,3
120,91,121,149,3
82,203,50,0,3
27,90,50,215,3
96,141,190,19,3
34,86,41,90,3
157,6,111,83,3
175,72,174,227,3
71,109,90,75,3
20,95,87,88,3
25,9,334,171,3
184,290,111,105,3
20,297,10,5,3
24,78,195,41,3
62,111,199,300,3
6,41,30,37,3
130,263,356,273,3
87,54,47,54,3
22,92,453,567,3
196,128,108,6,3
121,216,469,713,3
2,339,329,391,3
149,222,371,183,3
170,292,272,341,3
7,91,136,37,3
101,29,227,219,3
271,246,157,108,3
120,215,225,350,3
257,247,398,182,3
4,158,251,100,3
251,139,203,242,3
104,18,287,389,3
32,145,224,166,3
15,146,65,227,3
108,363,151,89,3
198,134,372,108,3
48,115,215,332,3
12,141,56,737,3
48,55,150,5,3
177,297,129,119,3
107,479,479,638,3
120,21,183,84,3
265,613,481,674,3
22,153,258,284,3
122,14,65,291,3
58,41,78,271,3
283,509,277,173,3
188,51,200,241,3
668,791,100,265,3
475,196,357,277,3
248,42,434,474,3
78,361,26,228,3
273,376,857,861,3
24,58,193,26,3
158,130,47,363,3
264,274,156,346,3
28,334,601,147,3
7,200,364,306,3
235,66,116,211,3
25,109,558,734,3
56,405,1023,1023,3
43,78,1023,1023,3
8,227,295,347,3
372,198,1023,1023,3
47,335,583,869,3
294,218,805,541,3
67,231,274,191,3
323,338,217,798,3
310,670,100,326,3
240,448,396,657,3
187,313,858,920,3
285,464,1001,1023,3
279,344,978,395,3
159,114,1023,1023,3
276,101,146,657,3
469,133,1023,1023,3
132,261,528,802,3
209,448,1012,761,3
466,191,17,69,3
32,260,268,290,3
334,386,114,621,3
286,318,558,734,3
150,17,128,582,3
0,128,81,228,3
258,469,571,899,3
223,648,393,27,3
99,169,584,188,3
122,202,298,984,3
876,153,39,293,3
68,295,15,440,3
601,480,1023,1023,3
362,174,36,158,3
103,35,1023,806,3
242,307,226,80,3
439,198,325,727,3
83,18,210,873,3
43,222,438,66,3
207,106,438,280,3
149,40,531,615,3
317,193,180,1023,3
252,189,15,580,3
207,173,24,394,3
56,116,402,363,3
203,388,367,457,3
692,111,159,891,3
963,286,20,509,3
451,267,877,278,3
212,157,128,1023,3
636,400,805,703,3
631,928,596,364,3
557,654,991,391,3
612,259,1023,799,3
330,68,121,199,3
256,112,1023,247,3
280,248,489,61,3
119,295,602,798,3
239,637,806,0,3
532,227,324,21,3
316,378,518,211,3
520,159,521,1023,3
29,347,312,1023,3
40,376,348,854,3
562,29,16,1023,3
369,288,51,574,3
233,422,234,164,3
1023,190,296,439,3
927,44,126,137,3
35,491,1023,1023,3
124,135,162,1023,3
78,224,1023,1023,3
214,11,1004,426,3
171,773,1023,1023,3
107,146,225,571,3
57,354,643,405,3
62,610,129,739,3
157,219,304,408,3
11,231,162,1023,3
239,142,401,672,3
869,510,367,532,3
49,224,1023,195,3
355,362,183,997,3
387,215,679,9,3
411,925,197,107,3
583,1023,308,43,3
369,514,1010,881,3
184,35,549,1023,3
109,110,958,1023,3
457,363,625,1023,3
38,589,739,262,3
13,202,395,515,3
273,102,460,175,3
361,323,389,231,3
47,108,126,228,3
223,101,309,1023,3
155,24,279,196,3
104,10,175,879,3
479,817,1023,1023,3
51,171,198,502,3
849,1023,347,49,3
210,686,1023,1023,3
208,778,129,51,3
204,521,632,1002,3
47,475,471,988,3
417,166,277,274,3
85,494,948,1017,3
1023,290,205,81,3
850,569,1023,1023,3
504,899,757,696,3
149,53,1023,1023,3
846,75,972,691,3
493,664,1023,1023,3
247,88,81,1023,3
629,200,36,437,3
64,492,1023,1023,3
474,174,711,1023,3
620,70,1023,945,3
403,647,1023,1023,3
877,358,1023,1023,3
291,15,698,1023,3
111,379,160,0,3
240,85,171,25,3
96,118,167,425,3
670,221,182,480,3
106,251,243,275,3
836,753,866,1023,3
35,84,1023,361,3
1023,1023,81,45,3
333,409,1023,1023,3
123,128,358,719,3
31,361,1023,1023,3
730,29,24,448,3
51,564,573,341,3
122,311,307,63,3
370,638,370,451,3
298,32,817,1023,3
563,576,513,494,3
488,592,969,1023,3
534,469,619,729,3
25,61,785,952,3
89,173,233,296,3
122,326,994,253,3
260,426,594,699,3
887,765,1023,669,3
176,16,102,374,3
30,27,1023,866,3
186,431,466,14,3
393,195,581,316,3
272,291,289,402,3
14,117,289,157,3
23,108,144,178,3
174,57,692,437,3
180,87,380,589,3
283,86,727,403,3
172,225,766,520,3
265,266,211,401,3
221,166,317,59,3
36,85,341,571,3
59,20,279,466,3
338,52,158,259,3
35,134,327,333,3
36,34,253,74,3
215,338,585,858,3
110,424,619,282,3
55,178,18,52,3
22,258,1023,720,3
7,65,437,5,3
203,189,868,623,3
8,88,837,1023,3
19,33,360,228,3
90,79,90,189,3
89,119,336,366,3
14,21,483,591,3
131,178,170,47,3
40,291,185,362,3
11,270,49,130,3
185,251,27,277,3
269,388,489,487,3
89,48,255,15,3
167,6,714,545,3
48,73,423,405,3
208,184,353,491,3
100,17,447,620,3
36,69,139,172,3
19,200,428,656,3
40,13,809,308,3
260,42,587,642,3
112,36,38,164,3
341,476,922,214,3
181,282,808,342,3
292,751,388,20,3
30,63,195,532,3
108,41,857,361,3
162,190,375,60,3
253,135,1023,1023,3
170,258,350,651,3
63,22,998,785,3
300,277,432,423,3
62,138,881,886,3
186,73,512,385,3
66,130,194,359,3
30,18,270,281,3
137,135,230,51,3
258,115,68,113,3
103,712,12,378,3
204,412,392,482,3
42,206,675,496,3
303,292,6,916,3
150,30,970,1023,3
28,49,359,2,3
14,40,442,320,3
141,60,571,463,3
246,120,38,389,3
119,90,385,67,3
45,124,10,313,3
107,182,541,660,3
285,221,321,700,3
47,23,748,620,3
27,279,564,111,3
289,203,257,1023,3
207,327,736,66,3
193,90,509,47,3
210,85,661,1023,3
119,225,194,410,3
113,315,433,545,3
42,142,23,24,3
70,19,448,650,3
90,194,108,216,3
2,105,117,110,3
101,79,97,97,3
545,327,159,113,3
273,311,35,207,3
496,159,521,588,3
128,68,138,165,3
75,189,285,261,3
86,92,168,167,3
93,232,456,20,3
10,62,39,109,3
33,147,97,114,3
67,33,385,293,3
64,36,277,226,3
169,133,152,173,3
138,175,835,292,3
68,12,796,646,3
7,291,981,268,3
427,452,509,312,3
464,585,111,375,3
288,70,652,772,3
206,58,199,69,3
74,47,337,0,3
163,208,264,50,3
255,307,257,89,3
483,147,756,71,3
131,109,596,460,3
137,158,724,464,3
168,116,36,232,3
127,233,248,610,3
310,75,686,199,3
50,29,198,220,3
34,15,467,109,3
59,88,335,447,3
132,46,229,233,3
107,361,371,642,3
91,29,22,46,3
239,604,881,773,3
227,158,112,139,3
26,470,629,151,3
131,441,714,978,3
200,231,170,216,3
372,57,474,533,3
33,43,197,237,3
92,163,248,37,3
198,350,374,447,3
51,48,287,66,3
147,466,11,69,3
100,515,189,222,3
187,216,431,588,3
37,35,349,32,3
66,193,495,751,3
6,184,39,536,3
23,21,197,204,3
211,502,143,114,3
127,449,68,260,3
181,63,161,2,3
61,93,119,133,3
147,74,37,73,3
36,6,155,0,3
39,75,162,186,3
93,298,267,262,3
195,73,10,131,3
119,64,178,53,3
60,255,528,295,3
150,52,9,107,3
16,359,340,416,3
182,31,168,80,3
268,350,2,107,3
6,147,13,36,3
104,330,209,390,3
64,123,6,147,3
233,210,369,273,3
148,432,239,257,3
34,103,65,60,3
26,77,32,10,4
55,17,272,178,4
67,91,165,206,4
107,100,179,194,4
262,385,299,264,4
25,89,523,209,4
505,1023,46,68,4
173,64,429,194,4
23,25,193,160,4
3,121,693,898,4
47,65,21,147,4
107,119,387,185,4
32,43,609,491,4
225,594,148,209,4
5,242,522,484,4
364,489,107,171,4
197,100,226,350,4
75,37,211,158,4
75,169,125,25,4
336,107,278,110,4
183,167,536,137,4
259,396,66,49,4
68,26,3,187,4
445,39,332,317,4
121,125,32,211,4
38,208,189,278,4
146,63,68,163,4
99,70,218,115,4
32,33,234,462,4
296,268,342,227,4
76,51,73,265,4
25,126,59,105,4
50,321,71,218,4
83,373,1,95,4
10,86,433,447,4
14,38,306,193,4
306,633,360,503,4
9,36,423,32,4
42,13,824,805,4
0,18,98,185,4
14,6,687,363,4
100,206,581,499,4
218,37,243,149,4
135,73,166,40,4
155,509,230,306,4
181,102,151,259,4
77,199,113,64,4
316,283,325,440,4
301,44,3,83,4
161,257,516,312,4
197,64,227,470,4
174,67,818,251,4
92,114,66,317,4
21,10,236,309,4
20,190,221,474,4
155,45,313,73,4
478,404,113,28,4
38,99,214,427,4
1,367,121,372,4
321,61,714,388,4
39,11,67,524,4
305,184,708,401,4
291,103,508,1023,4
229,154,488,71,4
221,137,696,623,4
49,143,855,1023,4
165,124,809,375,4
403,667,639,736,4
89,51,234,1023,4
360,336,339,369,4
345,379,470,1023,4
150,59,56,94,4
357,159,554,799,4
119,260,882,262,4
70,96,465,1023,4
849,878,1023,725,4
199,376,501,1023,4
140,119,657,186,4
145,40,966,556,4
1,91,179,434,4
105,55,295,304,4
46,427,330,995,4
291,249,609,556,4
451,312,650,1023,4
109,229,109,456,4
257,319,184,728,4
225,159,97,179,4
331,514,311,49,4
222,144,601,138,4
253,254,982,355,4
66,275,330,662,4
298,218,686,235,4
111,569,81,650,4
130,485,970,935,4
11,381,238,619,4
535,25,1023,1023,4
415,72,293,54,4
247,237,1023,1023,4
136,150,68,623,4
531,620,770,997,4
94,248,553,130,4
163,256,122,155,4
393,595,472,243,4
105,729,556,59,4
17,51,69,482,4
28,64,922,60,4
574,679,674,603,4
7,319,786,673,4
64,361,255,20,4
467,594,782,1023,4
470,380,228,350,4
185,226,584,895,4
302,63,23,22,4
352,185,1023,678,4
231,97,267,125,4
119,318,1023,1023,4
312,102,60,169,4
243,115,1023,1020,4
32,668,268,243,4
885,1023,1023,1023,4
71,723,1023,1023,4
103,180,349,596,4
28,83,804,43,4
22,335,876,1023,4
266,472,428,711,4
238,225,388,1023,4
337,674,611,89,4
296,263,679,1023,4
678,409,373,434,4
247,183,438,573,4
1023,357,68,1023,4
889,1023,1023,1023,4
332,190,187,858,4
534,209,1023,1023,4
291,710,128,418,4
172,447,971,1023,4
818,704,36,53,4
72,152,269,166,4
472,221,67,6,4
241,240,467,1023,4
285,544,766,1023,4
339,622,440,650,4
1023,832,311,801,4
440,90,722,13,4
77,303,298,147,4
588,796,232,482,4
660,944,1023,858,4
570,698,323,476,4
645,285,783,111,4
70,355,452,376,4
447,396,616,838,4
200,294,16,177,4
601,806,658,27,4
1023,767,271,1023,4
254,420,284,339,4
293,492,699,600,4
313,98,575,334,4
86,77,217,119,4
389,11,481,1023,4
888,611,850,1023,4
11,224,15,748,4
454,862,489,811,4
271,458,679,145,4
263,7,318,728,4
512,190,523,299,4
365,35,542,191,4
77,382,594,504,4
1023,502,839,1016,4
570,797,887,209,4
57,186,105,249,4
208,46,994,914,4
217,156,851,824,4
1023,1023,118,267,4
153,89,760,1023,4
45,28,685,923,4
715,72,270,328,4
204,156,171,354,4
825,463,324,419,4
59,12,480,978,4
389,379,253,19,4
531,682,395,734,4
206,289,581,489,4
223,138,558,329,4
274,812,173,1023,4
623,807,872,1023,4
70,81,791,441,4
232,312,1023,606,4
1023,474,400,782,4
305,236,696,81,4
275,237,849,473,4
56,68,539,285,4
199,232,678,787,4
231,332,491,235,4
258,199,1023,475,4
764,465,21,495,4
167,424,575,875,4
368,541,601,699,4
456,147,617,496,4
294,233,292,705,4
252,312,437,790,4
330,188,91,131,4
130,61,272,102,4
205,358,336,294,4
154,55,801,673,4
133,154,535,602,4
216,119,415,186,4
659,551,26,39,4
286,289,583,767,4
144,23,25,66,4
585,822,271,760,4
214,196,259,756,4
359,60,230,357,4
70,460,21,39,4
220,525,3,63,4
227,193,538,461,4
291,277,318,581,4
35,28,261,369,4
151,272,270,134,4
183,12,555,140,4
305,375,227,250,4
46,27,424,346,4
222,139,279,209,4
0,128,761,494,4
294,384,595,821,4
22,196,559,28,4
179,312,882,1023,4
110,23,773,567,4
27,132,357,465,4
43,316,951,1023,4
202,404,821,727,4
130,49,10,221,4
75,140,939,875,4
8,128,1023,674,4
149,415,5,139,4
83,82,683,419,4
87,256,130,11,4
262,211,189,73,4
247,144,306,475,4
10,132,392,240,4
188,74,179,146,4
63,355,3,87,4
78,586,203,242,4
293,244,394,234,4
37,324,189,75,4
472,583,302,980,4
257,210,34,8,4
23,59,90,177,4
15,167,873,1021,4
319,165,556,388,4
203,260,753,886,4
410,308,791,569,4
90,32,1023,1023,4
306,245,538,66,4
151,136,1023,956,4
35,232,344,350,4
150,47,115,224,4
88,184,142,77,4
8,70,243,108,4
129,402,70,141,4
301,362,231,361,4
97,78,126,69,4
15,64,481,333,4
8,78,238,148,4
349,86,500,123,4
25,16,188,268,4
226,316,9,116,4
93,374,12,96,4
7,77,112,17,4
37,17,428,299,4
101,270,494,313,4
124,340,38,292,4
235,713,656,964,4
330,102,29,374,4
318,484,444,497,4
68,23,193,267,4
15,262,59,68,4
62,131,186,257,4
477,296,356,72,4
386,489,626,135,4
139,6,98,23,4
22,119,323,49,4
663,475,509,602,4
49,45,198,251,4
199,320,237,17,4
191,539,255,608,4
115,62,10,110,4
299,29,118,414,4
211,582,1023,1023,4
347,406,636,276,4
394,942,1023,1023,4
238,82,480,43,4
159,422,631,658,4
160,436,157,303,4
526,268,588,537,4
262,115,241,286,4
144,353,950,72,4
199,202,1023,1023,4
194,158,509,731,4
382,756,173,784,4
156,120,124,385,4
162,342,163,510,4
159,94,13,112,4
204,281,463,115,4
284,451,83,220,4
7,20,700,332,4
72,210,383,131,4
77,17,506,296,4
225,227,298,565,4
452,503,215,48,4
149,176,116,95,4
2,261,166,305,4
201,297,52,1,4
485,548,118,16,4
99,343,222,347,4
213,127,111,341,4
55,394,124,35,4
249,138,66,179,4
301,346,18,5,4
34,11,266,174,4
195,189,302,383,4
573,647,195,399,4
599,347,425,326,4
111,13,308,314,4
0,404,323,245,4
216,23,369,235,4
25,85,84,263,4
26,331,128,112,4
20,157,278,1023,4
46,169,181,211,4
177,250,339,594,4
28,274,52,18,4
700,643,363,287,4
608,663,145,341,4
189,87,787,406,4
208,298,488,487,4
34,107,166,102,4
429,561,553,445,4
127,150,282,8,4
590,788,56,49,4
132,41,255,63,4
204,209,7,211,4
109,52,18,77,4
29,51,16,19,4
336,308,180,153,4
96,20,496,545,4
162,118,171,79,4
70,25,275,163,4
41,135,128,134,4
424,212,144,171,4
403,326,637,330,4
3,129,101,333,4
234,126,458,0,4
67,69,449,231,4
330,161,214,319,4
19,529,38,312,4
41,198,106,65,4
107,86,62,111,4
105,186,79,69,4
99,146,9,113,4
133,313,25,57,4
78,8,2,32,4
175,303,112,175,4
187,90,130,91,4
24,98,115,69,4
46,94,243,195,4
351,189,143,156,4
277,282,186,270,4
9,469,13,146,4
138,528,263,345,4
86,200,189,170,4
176,430,324,503,4
282,432,255,660,4
814,1023,142,39,4
353,421,170,70,4
191,225,96,66,4
160,222,17,91,4
7,99,137,22,4
77,69,319,50,4
4,155,83,225,4
38,8,211,81,4
83,187,22,89,4
249,464,180,53,4
63,15,304,385,4
91,142,106,164,4
102,72,25,178,4
40,5,82,407,4
10,17,244,30,4
68,56,451,98,4
94,162,35,367,4
102,196,7,109,4
76,30,341,251,4
221,289,297,0,4
268,160,21,72,4
166,160,155,121,4
114,182,513,379,4
39,72,148,95,4
81,125,340,280,4
137,408,31,257,4
38,29,19,157,4
252,214,17,160,4
369,77,271,75,4
84,211,320,739,4
338,652,607,436,4
39,42,743,328,4
21,275,704,821,4
24,80,543,49,4
12,54,1023,945,4
96,111,940,696,4
20,131,1023,1023,4
54,17,570,131,4
814,270,907,586,4
75,276,521,1017,4
606,509,576,44,4
0,86,1023,1023,4
49,212,28,225,4
246,92,1023,984,4
284,54,852,666,4
101,57,93,5,4
408,58,27,147,4
390,58,507,204,4
23,44,1023,1023,4
679,625,337,76,4
460,404,1023,741,4
313,269,690,1023,4
838,582,339,1023,4
152,22,1023,1000,4
95,109,338,979,4
261,261,1023,796,4
486,265,242,596,4
70,218,353,255,4
417,167,481,945,4
345,50,284,91,4
210,362,221,118,4
469,334,1023,1023,4
158,29,283,261,4
26,71,101,447,4
155,155,78,77,4
1023,230,498,274,4
1023,264,917,1023,4
196,36,558,1023,4
306,72,158,509,4
12,143,254,9,4
15,367,136,687,4
377,69,550,621,4
537,16,142,154,4
531,190,1023,1023,4
168,222,3,113,4
432,667,107,748,4
389,567,730,1023,4
331,982,104,1023,4
730,1004,58,900,4
34,763,1023,1023,4
209,199,28,138,4
276,139,598,1023,4
210,265,15,972,4
789,196,209,599,4
187,258,165,442,4
695,46,183,12,4
329,237,241,651,4
439,292,7,103,4
34,464,92,223,4
121,927,157,532,4
283,141,417,713,4
867,972,313,19,4
361,408,680,1023,4
484,625,156,645,4
1023,384,521,712,4
266,67,580,192,4
683,199,785,214,4
356,277,131,235,4
284,15,1013,681,4
213,85,520,842,4
648,740,344,787,4
856,90,2,35,4
213,1023,1023,1023,4
215,917,38,970,4
81,442,1023,518,4
33,27,154,784,4
336,577,8,699,4
176,1023,477,329,4
963,433,564,624,4
198,331,28,0,4
925,807,308,39,4
116,644,332,116,4
83,252,400,58,4
134,366,67,43,4
365,41,247,817,4
676,120,146,555,4
55,141,107,107,4
249,472,728,430,4
28,87,313,78,4
129,311,88,491,4
510,14,1023,932,4
445,365,249,144,4
119,142,348,510,4
738,395,295,658,4
224,247,334,512,4
820,81,177,507,4
713,11,647,523,4
428,358,73,373,4
591,511,780,753,4
186,53,359,426,4
41,295,1023,906,4
60,350,184,141,4
143,825,623,861,4
887,837,125,937,4
196,638,331,473,4
274,95,581,1023,4
185,976,527,1019,4
515,1017,14,322,4
558,908,220,305,4
265,705,1000,716,4
567,372,650,531,4
880,396,59,121,4
102,135,158,38,4
159,100,236,213,4
21,253,148,607,4
39,137,504,1023,4
893,1023,263,971,4
794,1023,523,609,4
457,255,339,304,4
245,150,106,635,4
339,630,613,34,4
362,497,438,359,4
195,101,586,140,4
474,282,245,524,4
65,334,99,228,4
589,184,774,427,4
1023,785,56,390,4
986,365,551,32,4
200,137,234,40,4
794,88,74,192,4
1023,173,59,57,4
238,45,228,530,4
430,407,281,824,4
175,427,1023,1023,4
367,1023,390,97,4
97,380,1023,1023,4
77,83,637,32,4
473,145,788,715,4
467,300,383,27,4
175,139,208,372,4
250,261,34,18,4
410,124,586,1023,4
640,169,691,882,4
58,645,1023,554,4
430,1023,536,707,4
30,684,1023,1023,4
437,238,303,480,4
1023,1023,1023,1023,4
294,286,182,142,4
107,376,1006,828,4
713,419,731,410,4
797,128,339,221,4
321,48,802,919,4
470,360,995,1023,4
414,406,990,1023,4
765,242,208,548,4
411,31,974,863,4
422,72,187,38,4
902,378,361,414,4
64,196,787,538,4
186,37,1023,1023,4
172,308,755,957,4
219,420,1023,1023,4
623,413,839,666,4
175,23,829,1023,4
278,28,796,743,4
345,324,1023,529,4
546,283,174,271,4
555,296,1023,1023,4
66,5,601,674,4
313,245,208,436,4
429,710,408,516,4
303,393,471,228,4
199,502,456,424,4
12,126,423,43,4
60,651,860,1023,4
169,8,582,247,4
182,318,237,105,4
274,585,161,105,4
25,7,196,458,4
222,349,734,401,4
265,203,262,183,4
307,381,227,520,4
235,57,962,694,4
328,74,714,425,4
163,223,1023,1023,4
8,80,1023,1023,4
148,150,412,191,4
29,335,595,601,4
197,99,1023,755,4
162,427,188,137,4
23,347,684,712,4
154,38,276,586,4
197,115,125,267,4
83,34,873,1023,4
308,468,255,134,4
375,481,419,1023,4
37,94,50,65,4
63,23,501,0,4
70,302,109,121,4
91,206,83,221,4
41,43,239,377,4
143,270,201,427,4
246,20,189,177,4
293,202,35,197,4
413,576,435,1023,4
181,246,298,978,4
325,315,235,389,4
470,151,698,1023,4
81,81,825,747,4
317,15,44,154,4
105,163,1023,1023,4
320,157,92,22,4
13,211,1023,1023,4
82,17,81,154,4
255,155,1023,1023,4
689,451,122,162,4
210,47,730,641,4
528,48,236,113,4
247,732,199,132,4
120,426,23,216,4
367,38,325,730,4
414,470,393,1023,4
226,27,352,426,4
560,646,453,1023,4
561,279,171,203,4
105,236,129,372,4
176,171,661,248,4
212,301,576,190,4
314,13,1018,1023,4
269,209,166,287,4
252,386,469,54,4
434,718,103,27,4
42,405,424,538,4
276,156,827,994,4
209,498,503,813,4
491,613,1023,292,4
320,690,172,482,4
87,387,1023,806,4
105,274,812,561,4
257,32,911,1023,4
27,49,826,683,4
151,9,518,641,4
48,20,624,464,4
164,88,324,791,4
19,32,84,13,4
168,232,384,478,4
464,480,166,322,4
252,712,694,1023,4
47,394,5,153,4
398,328,744,1018,4
269,682,152,511,4
178,250,153,253,4
112,37,770,758,4
62,168,254,193,4
95,117,420,751,4
145,213,297,134,4
207,103,153,286,4
272,288,45,153,4
147,89,20,138,4
216,88,886,851,4
75,300,446,988,4
309,406,1023,920,4
367,565,880,1023,4
287,336,729,674,4
635,896,122,117,4
362,534,1023,1023,4
179,18,855,570,4
309,199,815,544,4
357,73,361,102,4
25,90,1023,1023,4
242,19,368,259,4
504,120,1023,836,4
223,45,653,121,4
105,51,84,593,4
305,39,243,87,4
283,164,680,101,4
154,150,11,22,4
87,127,41,156,4
32,109,519,556,4
213,217,559,364,4
299,128,657,123,4
499,349,614,578,4
33,263,96,213,4
259,241,135,495,4
356,564,174,279,4
159,199,71,86,4
271,141,427,130,4
14,154,613,505,4
182,22,208,88,4
34,201,888,837,4
133,234,65,423,4
179,100,5,71,4
20,74,157,280,4
276,206,197,87,4
167,66,84,138,4
118,394,420,220,4
294,212,759,839,4
28,535,54,124,4
117,24,326,415,4
185,247,120,459,4
168,100,330,379,4
12,174,266,325,4
75,29,310,99,4
51,17,96,129,4
170,177,656,364,4
173,142,237,147,4
538,394,259,4,4
141,83,183,276,4
591,349,70,14,4
26,120,312,30,4
102,183,219,247,4
62,253,313,472,4
187,190,346,117,4
482,354,401,430,4
392,210,567,747,4
60,36,302,161,4
717,683,354,477,4
573,665,124,79,4
98,132,58,91,4
273,483,77,81,4
31,7,589,444,4
222,269,403,317,4
214,112,258,552,4
585,423,379,249,4
120,380,474,389,4
266,372,481,587,4
74,80,69,160,4
77,140,9,39,4
253,597,351,311,4
10,102,212,285,4
500,589,143,5,4
16,299,229,303,4
160,449,203,3,4
32,13,217,280,4
302,458,186,277,4
110,80,13,154,4
511,448,136,41,4
88,120,66,193,4
301,241,31,58,4
210,266,43,0,4
89,204,170,107,4
69,164,208,133,4
337,162,57,96,4
663,585,1,0,4
483,698,12,46,4
19,320,97,95,4
141,596,303,10,4
131,152,211,115,4
217,293,486,291,4
145,187,177,117,4
217,183,320,209,4
806,609,531,261,4
102,105,119,202,4
21,14,446,152,4
162,277,313,297,4
109,27,8,0,4
147,24,102,0,4
438,174,43,30,4
48,26,11,65,4
4,207,131,70,4
60,20,24,182,4
6,405,166,26,4
20,237,52,155,4
206,136,2,13,4
223,257,142,80,4
8,19,101,151,4
93,50,93,39,4
80,80,155,75,4
26,156,252,214,4
71,130,582,543,4
143,243,53,96,4
282,235,182,43,4
14,288,196,327,4
71,82,35,116,4
201,109,233,98,4
39,107,59,193,4
171,391,239,140,4
44,7,353,284,4
92,525,235,50,4
135,65,245,300,4
378,638,152,182,4
380,307,148,405,4
147,466,6,63,4
138,104,184,648,4
43,60,476,866,4
11,50,137,279,4
76,168,471,577,4
176,488,137,19,4
1023,982,219,402,4
639,377,500,858,4
165,154,193,671,4
60,91,237,359,4
11,425,351,638,4
189,9,46,732,4
619,285,46,402,4
205,210,99,23,4
243,223,51,51,4
250,205,155,1012,4
573,470,345,29,4
344,232,508,701,4
71,498,885,1023,4
211,141,76,14,4
70,241,856,380,4
319,471,437,1023,4
174,337,250,31,4
395,431,529,385,4
486,247,252,776,4
364,284,1023,740,4
234,118,165,78,4
64,213,1023,851,4
178,18,403,303,4
577,260,346,631,4
233,332,14,749,4
75,281,1022,902,4
269,478,807,380,4
188,454,388,61,4
118,97,1023,1023,4
311,40,159,615,4
98,84,449,51,4
580,377,207,399,4
582,362,89,226,4
339,88,43,230,4
407,120,381,451,4
254,10,192,659,4
217,323,639,85,4
233,235,182,122,4
188,191,853,416,4
258,122,160,550,4
236,232,364,415,4
863,288,717,754,4
560,22,307,226,4
345,118,448,854,4
173,228,136,129,4
570,18,514,92,4
25,98,743,509,4
308,1023,672,908,4
396,327,877,683,4
441,647,932,337,4
198,624,150,371,4
493,86,362,262,4
708,671,267,1023,4
88,328,295,204,4
516,21,1023,1023,4
216,504,665,352,4
573,391,346,532,4
153,353,141,274,4
596,209,173,426,4
137,238,483,1020,4
366,193,453,1023,4
361,172,1023,1023,4
1023,1023,952,128,4
65,1023,932,1003,4
613,846,1023,711,4
402,610,291,870,4
1023,856,1023,977,4
411,516,541,510,4
537,175,1023,1023,4
250,873,275,527,4
379,711,989,1023,4
183,84,415,478,4
398,42,369,1023,4
26,198,949,295,4
138,264,445,1023,4
176,98,984,730,4
25,514,55,268,4
490,681,1023,1017,4
388,201,662,126,4
280,204,1023,1023,4
229,492,635,323,4
163,193,918,822,4
191,335,1023,1023,4
106,235,858,414,4
248,358,33,163,4
278,256,947,1023,4
349,123,466,924,4
426,146,805,871,4
16,97,101,957,4
247,313,555,862,4
262,193,169,481,4
172,15,1023,1023,4
67,220,1023,489,4
258,859,563,596,4
792,822,1023,434,4
278,342,1023,1023,4
125,69,1023,628,4
435,559,221,907,4
9,764,917,476,4
161,426,601,1023,4
563,428,298,157,4
596,310,982,1023,4
97,330,510,111,4
408,156,235,517,4
780,212,60,901,4
101,92,852,49,4
21,324,1021,425,4
208,89,803,531,4
50,806,1023,106,4
217,296,203,268,4
90,80,1023,783,4
184,196,188,393,4
1016,357,1023,1023,4
888,306,430,24,4
578,163,1023,1023,4
630,829,712,42,4
710,881,258,560,4
1023,877,1023,1023,4
709,399,560,305,4
1023,1023,750,1023,4
688,561,572,769,4
412,143,84,189,4
250,276,317,1023,4
44,16,272,53,4
20,614,775,1023,4
402,272,12,593,4
127,264,571,1023,4
658,337,12,124,4
80,53,447,849,4
105,41,375,777,4
197,734,445,543,4
949,447,406,1023,4
889,248,879,489,4
574,744,109,93,4
1023,579,1023,1023,4
1023,688,286,86,4
32,476,895,75,4
110,187,630,266,4
427,775,995,944,4
743,372,25,487,4
401,13,1023,918,4
121,578,892,52,4
603,412,639,0,4
706,789,989,862,4
76,270,284,725,4
177,128,13,734,4
811,13,488,1023,4
143,209,32,189,4
307,485,721,243,4
293,266,1023,1002,4
638,31,123,501,4
86,601,429,826,4
248,113,328,888,4
89,86,1023,1023,4
398,251,156,180,4
619,22,868,1023,4
11,109,299,225,4
1017,1023,223,431,4
936,1023,509,117,4
123,793,594,455,4
1023,449,213,263,4
609,1023,519,1023,4
916,421,398,452,4
407,185,503,809,4
68,42,631,747,4
712,211,35,29,4
356,512,283,22,4
500,95,828,293,4
367,66,688,1023,4
282,201,856,676,4
98,363,224,249,4
177,483,149,659,4
529,688,690,1023,4
36,170,459,910,4
186,582,759,994,4
764,577,686,506,4
75,432,74,46,4
521,21,19,36,4
604,385,113,118,4
426,195,920,1005,4
622,73,258,113,4
651,37,479,329,4
102,309,317,182,4
457,322,283,518,4
411,311,729,804,4
20,1023,820,33,4
85,434,917,806,4
10,182,1023,1023,4
223,49,102,342,4
151,439,695,764,4
899,607,326,451,4
414,772,368,267,4
40,551,712,650,4
133,461,357,869,4
654,619,397,251,4
148,485,520,282,4
293,93,290,240,4
298,196,883,508,4
202,492,249,483,4
356,232,1023,1023,4
123,647,336,1023,4
1023,998,921,595,4
84,44,193,921,4
93,167,41,278,4
256,266,506,339,4
882,687,15,485,4
87,213,938,609,4
251,290,39,377,4
152,147,849,850,4
34,175,280,41,4
35,52,194,484,4
165,235,261,184,4
716,654,181,640,4
342,750,193,343,4
347,430,390,1023,4
20,151,726,1023,4
540,500,805,563,4
183,428,299,509,4
15,12,9,222,4
153,20,472,744,4
369,402,860,174,4
546,452,980,922,4
94,25,1023,1023,4
149,74,220,564,4
156,153,1023,1023,4
107,18,187,75,4
61,341,986,843,4
89,249,212,239,4
650,622,875,979,4
22,175,37,0,4
347,232,750,801,4
247,413,1005,983,4
141,189,110,762,4
238,320,921,531,4
560,519,95,100,4
196,213,133,146,4
67,104,79,258,4
177,258,516,599,4
109,179,250,412,4
58,181,280,17,4
205,218,180,269,4
44,10,182,280,4
726,741,205,243,4
314,406,520,379,4
207,103,147,269,4
197,11,453,505,4
56,525,517,386,4
218,680,125,458,4
619,508,113,278,4
82,237,221,20,4
611,590,258,218,4
198,231,121,106,4
30,332,159,374,4
36,244,117,13,4
285,206,428,848,4
298,386,164,624,4
329,571,756,462,4
365,407,131,242,4
136,69,312,578,4
47,510,370,870,4
463,569,88,49,4
117,567,180,404,4
308,239,222,1023,4
162,92,519,814,4
122,349,173,101,4
29,20,637,175,4
802,743,498,353,4
1023,904,692,511,4
150,271,1023,693,4
1,40,111,247,4
27,56,853,769,4
114,412,819,265,4
37,10,877,101,4
1,53,520,651,4
225,95,968,122,4
13,141,653,272,4
67,22,1023,1023,4
290,318,155,38,4
6,422,453,131,4
11,36,170,390,4
459,149,4,639,4
538,220,770,789,4
328,276,227,549,4
278,409,831,517,4
230,109,164,145,4
50,122,598,388,4
29,72,302,263,4
389,315,182,350,4
282,54,756,564,4
57,288,806,715,4
92,131,289,695,4
336,286,384,872,4
188,254,358,290,4
536,538,93,206,4
521,914,1015,771,4
251,431,73,82,4
79,101,143,53,4
120,272,391,245,4
36,80,933,591,4
87,30,726,610,4
56,171,899,936,4
175,480,775,1023,4
122,278,315,286,4
154,586,166,658,4
12,353,307,654,4
86,485,688,610,4
232,534,7,164,4
1,273,849,705,4
425,317,52,505,4
65,53,422,195,4
782,489,177,178,4
15,328,22,24,4
161,369,288,65,4
134,394,78,204,4
90,555,136,498,4
235,55,636,867,4
509,635,695,122,4
27,375,956,876,4
445,183,442,201,4
945,1023,172,205,4
861,1023,37,84,4
218,63,451,496,4
616,856,35,392,4
281,65,245,124,4
395,313,355,176,4
235,43,170,0,4
586,41,479,160,4
388,102,539,295,4
146,251,690,1023,4
96,148,44,340,4
23,134,216,23,4
228,502,122,1023,4
107,198,406,1023,4
34,120,430,479,4
442,282,51,329,4
99,504,143,163,4
621,325,455,1023,4
230,396,407,119,4
12,51,604,872,4
304,339,879,876,4
129,190,531,198,4
753,317,803,725,4
73,238,216,22,4
238,455,512,32,4
107,336,136,240,4
136,223,184,39,4
35,202,184,41,4
338,765,168,550,4
454,239,96,741,4
326,188,356,173,4
32,165,380,291,4
21,129,231,65,4
152,360,266,21,4
378,212,272,450,4
251,274,34,130,4
202,384,102,0,4
40,123,44,168,4
141,212,63,27,4
44,33,135,197,4
443,299,85,243,4
351,846,1,237,4
148,481,279,237,4
69,630,348,529,4
232,314,10,190,4
267,271,107,419,4
161,268,44,119,4
520,659,13,16,4
242,196,318,87,4
79,140,275,129,4
133,226,93,92,4
33,52,130,159,4
278,215,80,190,4
708,874,239,419,4
236,354,163,1,4
68,278,26,40,4
71,409,60,135,4
53,189,41,48,4
104,16,67,146,4
33,145,11,326,4
84,49,7,171,4
451,499,5,105,4
124,51,66,0,4
72,6,98,0,4
72,57,138,47,4
112,75,47,13,4
98,99,81,109,4
84,28,134,113,4
87,243,23,150,4
115,97,67,31,4
4,154,7,274,4
148,258,377,11,4
304,559,8,103,4
64,325,115,36,4
151,354,1,345,4
201,135,132,94,4
734,531,36,309,4
177,207,97,17,4
378,336,294,216,4
274,181,264,263,4
103,134,3,75,4
7,83,111,99,4
193,223,51,115,4
228,558,187,74,4
680,634,59,119,4
426,832,10,91,4
72,95,71,3,4
301,441,73,0,4
152,634,198,123,4
507,544,416,508,4
357,466,81,70,4
310,200,297,364,4
497,306,442,528,4
378,427,232,299,4
194,189,224,223,4
87,82,71,194,4
226,162,96,93,4
45,206,96,275,4
374,586,2,212,4
292,401,19,12,4
303,81,53,9,4
295,625,46,261,4
65,543,2,200,4
67,651,1,47,4
53,478,9,64,4
298,188,51,52,4
451,589,102,16,4
34,23,127,82,4
88,136,77,56,4
251,206,99,63,4
306,214,138,211,4
375,249,43,211,4
240,236,209,404,4
191,268,377,176,4
278,441,151,315,4
239,298,489,506,4
158,491,665,354,4
270,423,228,83,4
42,204,151,194,4
70,175,228,374,4
129,249,294,138,4
95,41,37,193,4
110,183,245,178,4
243,268,277,284,4
68,56,293,129,4
372,289,511,525,4
283,354,684,998,4
201,213,561,506,4
146,149,885,1023,4
361,454,28,253,4
26,110,168,245,4
77,22,573,310,4
70,458,9,441,4
545,172,618,535,4
253,523,187,1023,4
180,331,431,1023,4
648,325,763,1023,4
153,151,251,353,4
408,262,96,149,4
77,47,120,0,4
296,14,297,442,4
66,125,577,624,4
131,290,1023,874,4
709,312,615,542,4
137,170,1023,1023,4
617,651,58,304,4
433,374,1023,1023,4
171,78,450,355,4
133,285,963,1023,4
314,286,407,152,4
291,487,59,81,4
241,228,127,48,4
512,768,554,93,4
227,98,313,175,4
92,542,356,1023,4
354,272,507,275,4
93,63,1023,1023,4
286,538,1023,886,4
66,747,892,1023,4
480,142,838,1023,4
634,520,921,1023,4
33,342,874,859,4
7,98,60,1023,4
269,203,755,338,4
353,116,751,1017,4
193,81,937,1023,4
286,223,1023,1023,4
815,215,833,613,4
1023,580,1023,1023,4
635,534,288,353,4
41,225,1023,1023,4
221,55,292,534,4
114,718,1023,1023,4
408,250,213,167,4
302,754,1023,1023,4
62,310,244,325,4
146,395,1023,902,4
342,301,1023,1023,4
326,49,124,542,4
136,127,81,199,4
82,27,508,13,4
338,374,676,332,4
314,142,17,109,4
473,95,604,400,4
151,363,773,42,4
560,296,1023,964,4
1023,880,554,365,4
344,119,581,458,4
994,966,20,1023,4
313,441,833,325,4
644,662,447,1023,4
31,621,969,97,4
522,127,27,421,4
650,306,1023,1023,4
123,25,491,519,4
43,436,1023,1023,4
446,66,530,59,4
57,304,1023,1023,4
19,338,334,290,4
183,38,1023,1005,4
116,403,374,106,4
341,354,727,631,4
152,552,210,846,4
58,412,101,746,4
137,285,156,730,4
173,168,104,722,4
105,500,589,69,4
380,955,754,660,4
690,524,390,268,4
217,706,1023,747,4
482,369,1023,1023,4
553,236,1023,1023,4
1023,231,278,364,4
169,179,344,797,4
210,140,307,595,4
119,146,206,3,4
81,1023,645,859,4
216,623,11,122,4
75,736,357,1023,4
209,24,801,1023,4
151,173,876,1023,4
66,28,551,912,4
119,240,678,214,4
1023,986,1023,323,4
538,101,687,523,4
620,414,298,248,4
14,483,284,148,4
157,593,53,768,4
473,387,51,158,4
301,1023,813,517,4
241,172,166,234,4
135,34,114,324,4
554,255,399,154,4
1022,250,926,567,4
325,55,574,116,4
78,69,1023,1023,4
188,79,861,1023,4
310,403,1023,1023,4
238,161,553,283,4
249,994,1003,1014,4
83,175,852,622,4
107,1023,740,515,4
195,58,770,463,4
440,161,1023,1023,4
228,1023,524,863,4
7,398,1023,734,4
303,721,714,1023,4
539,599,709,367,4
362,401,232,48,4
954,436,211,248,4
151,128,554,573,4
712,88,469,524,4
677,370,790,122,4
347,60,987,523,4
720,354,248,37,4
452,1023,261,424,4
1023,1023,1002,154,4
372,480,358,1023,4
168,215,363,543,4
262,165,1023,1023,4
597,746,772,818,4
169,577,1023,1023,4
629,213,925,525,4
136,21,1023,1023,4
293,209,1023,569,4
169,481,1023,235,4
780,502,113,977,4
381,243,203,699,4
42,222,449,1008,4
972,706,298,30,4
159,252,759,1023,4
524,1008,884,1023,4
116,292,863,1023,4
735,737,742,604,4
6,79,292,44,4
261,1023,347,665,4
825,130,92,1023,4
680,833,474,720,4
115,219,552,286,4
492,175,1023,946,4
384,114,741,266,4
186,236,491,78,4
6,144,92,64,4
726,511,384,551,4
1023,757,267,251,4
182,349,784,581,4
457,560,744,712,4
432,519,413,1023,4
202,284,164,392,4
494,66,33,125,4
641,739,3,546,4
44,627,591,370,4
193,295,202,9,4
25,334,96,8,4
573,39,1023,920,4
799,295,220,157,4
137,155,1023,1023,4
1023,375,1023,938,4
514,248,39,279,4
398,46,1023,821,4
269,51,616,1023,4
152,264,643,529,4
247,41,393,1023,4
308,265,846,454,4
1023,176,656,1023,4
103,8,411,378,4
654,469,326,473,4
111,202,672,725,4
455,443,34,9,4
200,247,398,196,4
321,21,1023,808,4
236,96,558,218,4
587,569,1010,1023,4
380,18,463,119,4
929,391,435,564,4
382,641,363,1023,4
29,222,211,128,4
139,95,313,420,4
55,99,247,877,4
385,164,864,643,4
716,393,1023,1023,4
621,732,157,77,4
948,560,1023,1023,4
417,343,255,520,4
1023,727,1023,1023,4
90,308,885,0,4
180,22,943,1023,4
656,247,789,527,4
459,485,405,1023,4
178,708,226,97,4
807,232,885,292,4
117,459,533,560,4
186,510,866,298,4
458,351,524,724,4
27,310,687,855,4
199,112,276,79,4
345,196,1023,474,4
279,371,611,308,4
226,181,418,280,4
975,1023,322,528,4
434,164,83,1023,4
123,330,804,725,4
780,688,340,229,4
64,516,448,567,4
224,615,712,1023,4
835,465,1023,223,4
34,127,303,259,4
220,253,1023,1008,4
488,270,792,239,4
115,276,1023,1023,4
926,554,280,414,4
325,318,1023,753,4
621,572,1023,1023,4
173,179,457,666,4
33,91,1023,1023,4
861,955,410,47,4
399,789,724,773,4
655,1023,699,120,4
725,627,1023,752,4
356,97,558,313,4
324,128,1023,1023,4
334,443,161,299,4
197,449,876,1023,4
358,471,172,100,4
166,115,209,276,4
382,613,168,843,4
490,514,284,814,4
294,294,543,1023,4
56,595,527,1023,4
521,297,273,1023,4
77,171,269,772,4
291,1023,325,207,4
363,354,318,465,4
222,42,242,112,4
330,366,1023,764,4
28,10,412,553,4
925,601,1023,423,4
473,784,73,173,4
11,54,1023,1023,4
191,523,643,1023,4
268,196,1023,1023,4
435,263,239,678,4
444,367,994,731,4
416,1023,221,263,4
522,544,813,567,4
563,595,292,10,4
436,343,645,518,4
189,34,637,357,4
456,309,231,194,4
707,289,325,513,4
341,243,96,7,4
545,654,1023,1023,4
171,343,666,189,4
96,99,1023,1023,4
112,38,65,640,4
5,31,768,728,4
4,148,402,89,4
14,41,151,437,4
175,109,259,526,4
52,268,90,115,4
28,138,610,748,4
242,354,620,155,4
41,43,95,223,4
102,128,984,770,4
309,73,1023,296,4
70,42,250,649,4
195,467,1023,894,4
151,54,633,233,4
135,60,946,782,4
207,266,223,1023,4
109,291,64,513,4
286,586,152,187,4
359,333,366,322,4
73,12,958,1023,4
458,532,336,119,4
406,306,1023,1023,4
117,137,952,890,4
204,213,468,408,4
188,49,944,725,4
128,105,383,224,4
19,216,67,273,4
44,594,137,214,4
15,128,327,1023,4
393,537,117,1023,4
4,217,475,799,4
264,238,753,324,4
107,155,330,5,4
63,8,165,232,4
130,33,466,534,4
89,201,326,327,4
123,170,336,0,4
185,14,27,161,4
64,31,443,121,4
71,228,151,340,4
125,7,360,349,4
94,249,30,728,4
205,271,482,655,4
350,168,743,124,4
52,143,92,258,4
55,68,934,219,4
99,188,366,850,4
161,252,470,400,4
213,200,576,890,4
15,419,406,138,4
69,79,438,69,4
134,59,375,14,4
49,186,521,0,4
290,435,173,76,4
148,77,716,293,4
149,200,530,286,4
120,154,781,206,4
221,507,601,617,4
138,106,439,133,4
174,334,989,986,4
12,176,607,1023,4
147,218,277,1023,4
208,121,472,461,4
350,15,547,63,4
228,18,788,566,4
521,390,608,955,4
12,423,998,532,4
495,81,453,584,4
119,126,404,567,4
49,45,958,986,4
131,705,29,439,4
131,768,1023,1023,4
159,186,363,16,4
573,551,86,154,4
63,549,235,521,4
265,163,329,232,4
69,47,363,164,4
235,502,342,73,4
207,175,221,48,4
15,43,473,537,4
39,202,192,96,4
50,23,595,228,4
295,166,363,9,4
61,76,128,213,4
234,35,461,879,4
94,393,92,53,4
43,92,616,541,4
133,543,801,730,4
158,464,15,162,4
431,356,1023,1023,4
436,856,683,570,4
350,335,887,592,4
197,301,853,845,4
155,149,523,60,4
501,518,187,98,4
199,13,333,280,4
155,177,639,617,4
95,254,326,212,4
83,6,1023,1023,4
394,675,215,131,4
190,72,1023,870,4
556,49,437,425,4
109,573,372,273,4
35,177,635,780,4
247,300,116,223,4
204,365,343,684,4
115,151,47,76,4
48,118,343,167,4
110,422,12,10,4
93,184,245,495,4
237,62,187,102,4
557,471,137,393,4
201,293,317,134,4
231,12,232,442,4
15,68,272,214,4
72,342,6,61,4
164,30,13,353,4
19,41,167,71,4
19,25,534,448,4
28,170,70,39,4
71,62,404,463,4
37,235,549,323,5
27,186,489,509,5
83,480,960,1023,5
65,381,419,29,5
136,75,838,430,5
235,311,544,1023,5
410,277,247,78,5
8,50,546,847,5
269,424,214,19,5
109,204,378,555,5
199,6,321,185,5
140,149,444,557,5
182,206,151,227,5
183,431,173,4,5
124,65,92,207,5
37,244,574,646,5
120,67,66,315,5
2,195,350,413,5
75,62,650,671,5
164,236,84,41,5
29,29,415,481,5
215,53,226,498,5
179,150,87,1,5
54,284,297,284,5
178,62,214,174,5
66,7,131,25,5
350,25,461,862,5
124,294,270,174,5
40,354,18,313,5
60,371,371,483,5
88,48,105,64,5
83,168,21,7,5
192,237,117,94,5
143,169,92,45,5
387,455,262,218,5
70,53,15,190,5
2,49,316,145,5
62,38,266,136,5
132,256,23,58,5
199,39,114,87,5
152,102,52,30,5
177,379,79,98,5
95,191,160,195,5
38,53,8,56,5
155,123,71,114,5
2,9,2,450,5
14,31,1,18,5
97,21,2,171,5
6,158,89,220,5
172,182,23,18,5
3,98,1,17,5
12,203,83,74,5
279,81,5,0,5
263,466,86,29,5
205,33,7,59,5
127,23,94,48,5
52,167,147,4,5
273,172,106,119,5
212,248,94,50,5
91,51,97,87,5
89,246,28,0,5
41,93,27,0,5
122,110,28,20,5
174,184,50,51,5
48,28,5,63,5
11,173,33,56,5
53,62,1,79,5
111,242,28,10,5
24,183,71,0,5
27,48,105,51,5
240,58,124,43,5
52,15,75,0,5
60,90,14,44,5
64,269,2,2,5
207,373,37,25,5
376,565,102,28,5
0,7,27,14,5
71,66,16,4,5
8,37,26,5,5
77,183,31,31,5
47,75,27,0,5
22,95,3,0,5
88,199,6,43,5
175,185,37,7,5
107,68,33,15,5
213,260,52,66,5
68,41,9,33,5
3,92,19,0,5
10,19,42,0,5
6,13,17,10,5
64,229,17,34,5
0,47,4,31,5
50,261,1,0,5
101,231,24,4,5
23,109,55,89,5
68,38,57,23,5
64,191,5,28,5
16,9,4,3,5
129,289,3,6,5
83,173,7,14,5
52,177,7,0,5
6,25,3,8,5
13,91,35,15,5
158,202,39,0,5
132,142,33,0,5
30,77,53,50,5
2,22,1,5,5
51,75,17,0,5
35,126,42,30,5
2,11,7,39,5
18,54,16,11,5
96,41,1,26,5
195,179,16,6,5
17,88,27,1,5
91,87,43,2,5
31,46,41,24,5
25,154,5,4,5
3,149,8,0,5
25,164,44,0,5
98,256,31,33,5
11,57,29,0,5
118,156,2,13,5
113,104,20,4,5
91,96,6,7,5
153,164,2,27,5
16,13,28,0,5
3,17,36,21,5
8,12,38,0,5
18,36,20,6,5
36,70,28,45,5
55,196,25,28,5
9,38,13,0,5
132,389,10,18,5
66,81,29,8,5
144,267,13,0,5
2,60,37,21,5
6,65,2,0,5
170,72,37,0,5
32,106,26,0,5
106,150,39,8,5
4,51,17,0,5
102,225,18,3,5
92,95,26,21,5
37,26,3,0,5
33,14,9,0,5
91,10,41,47,5
5,67,6,16,5
45,30,25,35,5
106,212,32,19,5
28,38,20,8,5
15,57,31,12,5
1,33,11,0,5
