Ch1,Ch2,Ch3,Ch4,label
1,6,26,2,1
1,6,0,2,1
1,6,17,2,1
1,6,18,2,1
1,6,114,2,1
1,6,85,2,1
0,6,100,2,1
1,6,81,2,1
1,6,0,2,1
0,6,0,2,1
1,6,87,1,1
1,6,97,2,1
1,6,54,2,1
1,6,0,2,1
1,6,28,2,1
1,6,0,2,1
1,6,41,2,1
1,6,95,2,1
1,6,48,2,1
0,6,24,2,1
1,6,0,2,1
1,6,20,2,1
0,6,49,2,1
1,6,0,2,1
1,7,91,2,1
1,6,92,2,1
1,6,4,2,1
0,6,79,1,1
1,6,0,2,1
1,6,0,2,1
1,6,2,2,1
1,6,14,2,1
1,6,108,2,1
0,6,202,1,1
0,6,118,1,1
1,6,260,2,1
1,6,29,2,1
0,6,124,2,1
0,6,43,2,1
0,6,63,2,1
1,6,5,2,1
1,6,24,2,1
1,6,0,2,1
0,6,18,2,1
1,6,0,2,1
1,6,43,2,1
0,6,7,2,1
0,6,47,2,1
1,6,18,2,1
1,6,0,2,1
0,6,71,2,1
1,6,43,2,1
1,7,103,2,1
0,6,109,2,1
1,6,19,2,1
1,6,70,2,1
1,6,102,2,1
1,6,85,2,1
1,6,78,2,1
1,6,0,2,1
1,6,159,2,1
1,6,140,2,1
0,6,63,2,1
1,7,201,2,1
1,7,23,2,1
1,6,109,2,1
0,6,120,2,1
1,6,73,2,1
1,7,113,2,1
1,6,39,2,1
0,6,342,2,1
1,6,246,1,1
0,6,483,1,1
2,7,295,3,1
0,6,428,1,1
0,6,392,1,1
1,6,486,2,1
1,7,208,3,1
1,6,71,2,1
1,6,203,2,1
0,6,105,1,1
0,6,160,2,1
1,7,109,2,1
0,6,356,1,1
0,6,389,1,1
1,6,342,2,1
1,7,497,2,1
1,6,76,2,1
1,6,258,2,1
0,6,209,2,1
1,6,53,2,1
1,6,208,2,1
1,6,109,2,1
0,6,217,2,1
0,5,169,1,1
1,6,245,2,1
1,7,35,3,1
1,6,196,2,1
1,6,143,2,1
0,5,50,2,1
1,7,217,2,1
1,6,222,2,1
1,6,13,2,1
1,6,252,2,1
1,6,97,2,1
1,6,267,2,1
0,6,94,2,1
1,6,407,2,1
1,7,194,2,1
0,6,243,1,1
0,6,11,1,1
1,6,141,2,1
1,6,88,2,1
1,6,291,2,1
1,6,73,2,1
1,6,253,2,1
1,7,27,2,1
0,6,49,2,1
0,6,148,1,1
1,6,255,2,1
1,6,143,2,1
1,6,252,2,1
1,6,46,2,1
1,6,322,2,1
0,6,27,2,1
0,6,365,2,1
2,7,2,3,1
1,6,411,2,1
1,6,93,2,1
0,6,393,2,1
1,7,65,2,1
0,6,385,1,1
1,6,0,2,1
1,7,223,2,1
1,6,388,2,1
1,6,0,2,1
0,5,373,1,1
1,7,4,2,1
1,6,347,2,1
1,6,20,2,1
0,6,430,1,1
1,6,437,1,1
2,7,37,3,1
0,6,444,1,1
0,6,73,2,1
1,6,415,2,1
1,7,150,2,1
0,6,573,1,1
0,6,344,2,1
1,6,623,1,1
1,7,161,3,1
4,9,1023,5,1
0,6,549,1,1
0,5,954,1,1
3,8,10,4,1
1,6,252,2,1
1,7,58,2,1
0,6,102,2,1
0,6,195,2,1
1,6,21,2,1
0,5,499,1,1
2,7,60,3,1
0,6,431,1,1
0,6,127,2,1
1,7,442,2,1
1,6,170,2,1
0,6,506,1,1
1,6,192,2,1
1,7,95,2,1
1,6,415,1,1
1,6,286,2,1
1,7,344,2,1
0,6,161,2,1
1,6,439,2,1
1,6,505,1,1
1,6,236,2,1
0,5,678,1,1
2,7,58,3,1
0,6,540,1,1
1,6,309,2,1
1,6,280,2,1
1,6,50,2,1
1,6,133,2,1
1,7,148,2,1
0,6,39,2,1
0,6,143,2,1
0,6,238,1,1
1,6,399,1,1
0,6,624,1,1
0,5,1023,0,1
1,6,616,2,1
1,6,286,2,1
0,5,591,1,1
1,6,250,2,1
2,7,286,3,1
1,6,118,2,1
0,5,802,1,1
1,7,128,2,1
1,6,583,2,1
1,7,154,2,1
0,5,940,1,1
1,7,284,2,1
0,6,1023,1,1
3,8,277,4,1
1,7,573,3,1
1,7,477,2,1
1,6,792,1,1
1,6,818,2,1
1,6,41,2,1
0,5,626,1,1
1,6,29,2,1
1,6,591,1,1
1,6,358,2,1
0,6,799,1,1
1,6,70,2,1
0,6,948,1,1
0,6,721,1,1
1,6,284,2,1
1,6,603,2,1
0,6,537,2,1
2,7,328,3,1
0,5,1023,0,1
0,6,679,1,1
1,6,829,2,1
1,7,430,2,1
0,5,982,1,1
2,7,263,3,1
1,6,997,1,1
1,6,691,2,1
2,7,46,3,1
1,6,434,2,1
0,5,642,1,1
1,6,472,1,1
0,4,1023,0,1
1,6,173,2,1
6,11,1023,7,1
0,5,136,1,1
0,3,1023,0,1
0,5,189,1,1
8,12,1023,8,1
0,5,252,1,1
5,11,1023,6,1
0,5,22,1,1
7,12,1023,7,1
0,5,74,0,1
0,5,954,0,1
4,9,1023,5,1
0,3,1023,0,1
0,5,244,0,1
0,5,780,0,1
0,6,343,1,1
1,6,267,2,1
1,7,96,3,1
11,16,1023,12,1
0,5,908,0,1
6,11,1023,6,1
1,7,313,2,1
5,10,1023,5,1
0,5,279,0,1
3,8,379,5,1
0,5,989,0,1
0,6,1023,2,1
0,5,600,0,1
1,7,1023,2,1
1,7,131,3,1
0,3,1023,0,1
0,5,141,0,1
1,6,1023,2,1
2,7,59,3,1
0,5,1023,1,1
0,5,814,1,1
3,9,1023,5,1
0,5,122,1,1
5,10,1023,6,1
0,5,1023,0,1
4,9,719,4,1
0,4,669,0,1
2,7,906,2,1
0,5,536,1,1
1,6,357,2,1
3,8,950,4,1
1,6,159,2,1
0,6,164,2,1
0,6,541,1,1
2,7,82,2,1
0,6,474,1,1
1,6,317,2,1
1,7,190,3,1
1,6,268,2,1
0,5,830,1,1
1,6,799,1,1
1,7,500,2,1
1,6,373,2,1
1,7,62,2,1
1,7,157,3,1
0,6,282,1,1
1,6,178,2,1
0,6,651,1,1
0,6,534,1,1
0,6,241,2,1
1,6,419,2,1
1,6,303,2,1
0,6,461,1,1
1,6,17,2,1
2,7,89,3,1
1,6,87,2,1
1,6,135,2,1
1,6,80,2,1
0,6,235,2,1
1,7,10,2,1
1,7,63,2,1
1,6,269,1,1
0,5,164,1,1
0,6,34,2,1
1,6,73,2,1
1,6,131,2,1
1,6,121,2,1
1,7,76,2,1
1,6,235,2,1
0,6,119,2,1
1,7,157,2,1
1,6,266,2,1
0,6,186,2,1
1,7,238,2,1
1,6,75,2,1
0,6,9,2,1
1,6,64,2,1
1,7,73,2,1
1,6,34,2,1
0,6,346,1,1
1,6,145,2,1
1,6,279,2,1
0,6,44,2,1
1,6,374,2,1
1,7,129,2,1
1,6,40,2,1
1,6,102,2,1
1,7,228,2,1
1,6,183,2,1
1,6,55,2,1
1,6,147,2,1
1,6,70,2,1
0,6,59,2,1
1,6,26,2,1
1,6,265,2,1
1,6,15,2,1
1,6,8,2,1
1,6,63,2,1
1,6,78,2,1
1,6,220,2,1
1,6,47,2,1
1,6,329,1,1
0,6,32,2,1
1,7,165,2,1
0,6,449,1,1
1,6,29,2,1
1,6,284,2,1
1,6,114,2,1
0,6,229,1,1
1,6,125,2,1
1,7,17,2,1
1,6,87,2,1
1,6,10,2,1
1,6,106,2,1
1,6,41,2,1
0,6,335,1,1
1,7,29,2,1
1,6,199,2,1
1,6,99,2,1
0,6,15,2,1
1,6,176,2,1
1,6,164,2,1
0,6,387,2,1
1,7,39,2,1
1,7,274,2,1
1,6,34,2,1
0,6,32,2,1
1,6,72,2,1
0,6,0,2,1
0,6,124,2,1
1,6,32,2,1
1,6,117,2,1
0,6,52,2,1
1,6,118,2,1
1,7,14,2,1
0,6,23,2,1
0,6,279,1,1
1,6,136,2,1
1,6,107,2,1
0,6,161,1,1
1,6,16,2,1
1,7,369,2,1
1,6,326,1,1
1,6,217,2,1
1,6,12,2,1
1,6,27,2,1
1,6,0,2,1
1,6,123,2,1
1,6,54,2,1
0,6,273,1,1
1,7,10,3,1
0,6,26,1,1
1,6,0,2,1
0,6,41,2,1
1,7,123,2,1
0,6,18,2,1
1,6,57,2,1
1,6,25,2,1
1,6,0,2,1
0,6,0,2,1
1,7,202,2,1
1,7,131,2,1
0,6,315,1,1
1,6,211,2,1
0,6,66,2,1
1,6,56,2,1
0,6,254,2,1
1,6,126,2,1
0,6,0,2,1
1,6,119,2,1
1,6,0,2,1
0,6,0,2,1
0,6,126,2,1
0,6,0,2,1
1,6,412,2,1
1,6,70,2,1
1,6,385,2,1
0,6,78,1,1
1,6,423,1,1
1,7,127,3,1
1,6,15,2,1
1,6,103,2,1
1,7,109,2,1
1,6,148,1,1
1,6,42,2,1
0,6,0,2,1
1,6,192,2,1
0,6,199,2,1
1,6,219,2,1
1,6,69,2,1
1,6,99,2,1
0,6,30,2,1
0,6,86,2,1
2,7,116,2,1
1,6,177,2,1
1,6,35,2,1
1,7,2,2,1
0,6,199,2,1
1,6,168,2,1
1,6,107,2,1
0,6,34,2,1
0,6,15,2,1
1,6,26,2,1
1,6,156,2,1
0,6,228,1,1
1,6,148,2,1
1,6,127,2,1
0,5,159,1,1
1,7,187,2,1
1,6,104,2,1
1,6,85,2,1
0,6,377,2,1
1,6,83,2,1
1,6,152,2,1
1,6,11,2,1
0,6,76,2,1
1,6,72,2,1
1,6,89,2,1
0,6,89,2,1
1,6,71,2,1
1,6,47,2,1
0,5,225,1,1
2,7,223,3,1
2,7,275,2,1
1,6,300,2,1
1,6,97,2,1
0,6,24,2,1
0,6,197,2,1
1,6,262,2,1
0,6,199,2,1
0,5,13,1,1
2,7,45,3,1
0,6,299,2,1
1,6,84,2,1
0,5,17,1,1
0,5,70,1,1
1,6,91,2,1
0,6,153,2,1
1,6,182,2,1
1,6,118,2,1
0,6,0,1,1
1,6,116,2,1
0,6,20,2,1
3,8,255,5,1
1,6,8,2,1
0,5,475,0,1
0,5,879,1,1
2,7,11,3,1
1,7,0,2,1
1,7,15,3,1
0,5,58,1,1
0,5,0,2,1
1,6,51,2,1
1,7,30,3,1
0,6,121,2,1
1,6,0,2,1
1,6,11,2,1
1,6,8,3,1
1,7,154,2,1
1,6,88,2,1
0,6,52,2,1
1,6,55,2,1
0,6,115,2,1
1,6,30,2,1
1,6,96,2,1
1,6,1,2,1
0,6,121,2,1
1,6,0,2,1
1,6,70,2,1
1,7,148,2,1
1,6,51,2,1
1,6,203,2,1
1,6,35,2,1
1,6,196,2,1
1,6,87,2,1
1,6,28,2,1
1,6,103,2,1
1,6,88,2,1
1,7,14,3,1
0,5,124,1,1
1,6,26,2,1
1,7,137,2,1
0,6,11,2,1
1,6,207,2,1
1,6,105,2,1
1,6,0,2,1
1,6,113,2,1
1,6,53,2,1
1,6,25,2,1
1,7,146,2,1
1,6,275,2,1
0,5,36,2,1
1,6,122,2,1
1,6,307,2,1
1,7,116,2,1
1,6,67,2,1
0,6,66,2,1
1,6,29,2,1
1,6,58,2,1
1,6,143,2,1
0,6,173,1,1
1,7,60,2,1
1,7,274,2,1
1,6,54,2,1
0,6,104,1,1
1,6,124,2,1
0,6,18,2,1
1,6,0,2,1
1,6,86,2,1
1,6,135,2,1
1,7,144,2,1
0,6,22,2,1
1,6,128,2,1
1,6,113,2,1
0,6,0,2,1
1,6,61,2,1
1,7,164,2,1
0,6,12,2,1
1,6,150,2,1
0,6,17,2,1
0,6,60,1,1
1,6,0,2,1
1,6,63,2,1
0,5,0,2,1
1,6,23,3,1
0,6,130,2,1
1,6,302,2,1
1,6,69,2,1
0,6,191,1,1
0,6,12,2,1
1,6,74,2,1
1,6,28,2,1
0,6,0,2,1
0,6,80,2,1
1,6,54,2,1
1,6,62,2,1
0,6,81,2,1
1,7,59,2,1
1,7,123,2,1
0,6,35,2,1
1,6,117,2,1
0,6,0,2,1
1,6,156,2,1
0,6,10,2,1
1,6,80,2,1
0,6,28,2,1
1,6,54,2,1
1,6,19,2,1
1,6,72,2,1
1,6,5,2,1
0,5,133,1,1
1,6,66,2,1
1,7,227,3,1
1,6,193,2,1
0,6,37,1,1
0,6,135,2,1
1,6,62,2,1
1,6,41,2,1
1,6,7,2,1
0,6,21,2,1
0,6,54,2,1
1,6,1,2,1
0,6,224,2,1
0,6,0,2,1
1,6,226,2,1
1,7,123,2,1
1,7,30,2,1
0,6,203,2,1
1,6,120,2,1
1,6,185,2,1
1,6,57,2,1
1,6,0,2,1
1,6,105,2,1
0,6,81,1,1
1,6,0,2,1
1,6,62,2,1
0,6,163,2,1
0,6,311,2,1
0,6,269,2,1
1,6,42,2,1
1,6,150,2,1
1,6,90,2,1
1,6,4,2,1
1,6,29,2,1
1,6,129,2,1
1,6,38,2,1
0,6,228,1,1
1,6,51,2,1
0,6,179,2,1
1,6,0,2,1
1,6,98,2,1
1,6,0,2,1
0,6,66,2,1
1,7,19,3,1
1,6,389,2,1
1,6,72,2,1
1,6,493,1,1
2,7,29,3,1
0,6,572,2,1
0,6,77,1,1
1,6,116,2,1
1,6,216,2,1
1,7,51,3,1
0,6,378,1,1
0,6,0,2,1
1,7,341,2,1
1,7,131,2,1
0,6,268,2,1
0,6,292,1,1
0,6,242,2,1
1,6,341,3,1
1,6,334,2,1
0,6,305,1,1
0,6,325,1,1
1,6,292,2,1
1,7,67,3,1
1,6,26,2,1
0,5,284,1,1
0,6,301,2,1
0,6,121,1,1
1,7,512,2,1
1,7,117,3,1
0,6,229,2,1
0,6,371,2,1
1,6,25,3,1
0,6,0,1,1
1,6,63,2,1
1,6,494,2,1
0,5,486,1,1
0,5,519,1,1
1,7,472,2,1
1,6,352,3,1
0,6,526,1,1
0,6,802,1,1
1,7,794,2,1
2,7,221,3,1
0,6,590,1,1
1,6,115,2,1
1,6,455,1,1
2,7,56,3,1
0,5,669,1,1
1,7,48,3,1
0,5,1023,0,1
0,6,147,2,1
1,6,278,2,1
0,5,408,1,1
1,6,297,2,1
1,7,160,3,1
1,6,395,2,1
0,5,258,1,1
1,6,495,1,1
1,7,63,3,1
0,6,586,1,1
1,6,115,2,1
0,6,452,1,1
1,7,63,3,1
1,6,223,2,1
1,7,0,2,1
0,6,127,2,1
1,6,467,2,1
1,6,177,2,1
1,6,443,2,1
1,7,12,2,1
1,6,573,1,1
1,7,24,2,1
1,6,386,2,1
1,7,185,2,1
1,6,306,2,1
1,7,63,2,1
0,6,368,1,1
1,6,168,2,1
1,6,189,2,1
1,7,261,2,1
1,6,525,1,1
1,7,34,2,1
0,6,234,1,1
1,6,140,2,1
1,6,52,2,1
1,6,220,2,1
1,6,104,2,1
0,6,386,1,1
0,6,432,1,1
1,6,195,2,1
1,6,348,1,1
1,6,101,2,1
0,6,600,1,1
1,7,2,2,1
1,7,699,2,1
1,6,521,1,1
0,6,203,1,1
1,6,318,2,1
1,6,148,2,1
1,7,205,2,1
0,6,7,2,1
1,6,227,2,1
1,6,2,2,1
1,6,299,2,1
1,7,188,2,1
0,6,602,1,1
1,7,3,2,1
0,6,699,1,1
1,6,58,3,1
0,6,524,1,1
1,7,110,2,1
1,6,413,2,1
1,6,323,2,1
1,6,596,2,1
1,7,322,2,1
1,7,109,3,1
0,6,205,2,1
1,6,6,2,1
1,7,404,2,1
1,6,91,2,1
0,1,1023,0,1
0,5,57,1,1
6,12,1023,8,1
0,5,69,0,1
1,7,1023,3,1
0,5,332,0,1
2,8,1023,4,1
0,5,97,0,1
0,5,538,1,1
0,4,924,0,1
0,5,1023,0,1
1,7,143,3,1
1,6,145,3,1
0,6,744,1,1
1,7,77,2,1
0,6,840,1,1
1,6,258,2,1
1,6,640,1,1
1,6,208,2,1
0,5,934,1,1
2,7,37,3,1
1,6,626,1,1
0,6,387,2,1
0,6,563,1,1
2,7,295,3,1
1,6,189,2,1
0,5,814,1,1
2,7,278,3,1
1,7,79,2,1
0,6,71,1,1
0,6,449,2,1
0,5,976,1,1
0,6,21,2,1
1,6,806,2,1
2,7,228,3,1
0,6,861,1,1
0,5,134,1,1
0,5,812,0,1
1,6,498,2,1
1,6,538,2,1
1,7,440,2,1
1,6,379,2,1
0,6,752,1,1
4,9,132,5,1
0,5,951,0,1
5,10,837,5,1
4,9,1023,5,1
0,6,405,1,1
0,5,1023,0,1
0,5,981,0,1
4,9,1023,6,1
1,6,175,2,1
0,5,762,1,1
0,5,388,0,1
1,6,1023,2,1
3,8,11,4,1
0,5,390,1,1
1,7,319,2,1
1,6,36,2,1
0,6,253,2,1
1,6,242,2,1
0,6,704,1,1
1,6,1023,2,1
2,8,269,4,1
1,7,311,2,1
0,6,339,2,1
1,6,137,2,1
1,7,355,3,1
0,6,596,1,1
1,6,305,2,1
1,7,55,3,1
0,6,515,2,1
1,6,496,2,1
1,7,0,3,1
1,6,435,2,1
1,6,571,1,1
1,6,163,2,1
1,6,433,2,1
1,7,170,3,1
0,5,856,1,1
1,7,169,2,1
1,6,261,2,1
1,6,258,2,1
1,6,65,2,1
1,7,26,2,1
1,6,3,2,1
0,6,296,1,1
1,6,215,2,1
0,6,827,1,1
1,7,369,2,1
2,7,84,3,1
0,6,76,2,1
0,6,16,2,1
1,6,254,2,1
0,6,792,1,1
0,6,754,1,1
1,7,356,2,1
1,7,150,3,1
0,6,276,2,1
1,6,73,2,1
1,6,42,2,1
1,6,27,2,1
0,6,323,2,1
1,6,332,2,1
1,6,485,2,1
1,6,276,2,1
1,6,348,1,1
1,7,30,3,1
0,6,366,2,1
0,6,8,2,1
1,6,128,2,1
1,6,220,2,1
1,6,405,1,1
1,7,11,2,1
1,6,301,2,1
1,6,17,2,1
1,6,15,2,1
1,7,20,2,1
0,6,58,2,1
1,6,347,2,1
1,7,218,2,1
1,6,211,2,1
0,6,101,2,1
1,6,47,2,1
1,6,0,2,1
0,6,125,2,1
0,6,41,2,1
1,6,132,2,1
1,6,59,2,1
0,6,97,2,1
1,6,173,2,1
1,6,119,2,1
1,6,138,2,1
1,6,258,2,1
1,6,205,2,1
0,6,0,2,1
1,6,154,2,1
1,7,15,3,1
1,6,167,2,1
1,6,161,2,1
1,6,120,2,1
1,6,5,2,1
0,6,99,2,1
1,6,210,2,1
1,6,18,2,1
1,6,8,2,1
0,6,20,2,1
1,6,265,2,1
0,6,87,2,1
1,6,40,2,1
1,6,10,2,1
0,6,85,2,1
0,6,80,2,1
1,7,77,2,1
1,6,182,2,1
0,6,9,2,1
0,6,121,2,1
1,6,0,2,1
1,6,101,2,1
0,6,105,2,1
1,6,73,2,1
1,6,165,2,1
0,6,12,2,1
1,6,146,2,1
1,6,80,2,1
0,6,247,1,1
1,6,71,2,1
1,7,162,2,1
1,6,245,1,1
0,6,383,1,1
1,6,165,2,1
1,6,223,2,1
1,6,2,2,1
0,6,156,2,1
1,6,71,2,1
0,6,65,2,1
0,6,142,2,1
1,7,214,2,1
1,6,156,2,1
1,6,125,2,1
1,6,156,2,1
1,6,113,2,1
0,6,99,2,1
1,7,0,2,1
1,6,116,2,1
1,6,76,2,1
1,6,67,2,1
1,6,98,2,1
1,6,236,2,1
0,6,244,2,1
1,6,122,2,1
1,6,327,2,1
0,6,137,2,1
1,6,54,2,1
1,6,272,2,1
1,6,34,2,1
0,6,193,1,1
1,7,0,3,1
0,6,225,2,1
0,6,301,1,1
1,6,66,2,1
0,6,1,2,1
1,6,0,2,1
1,6,269,2,1
1,6,25,2,1
0,6,268,2,1
1,6,61,2,1
1,6,199,2,1
1,6,319,2,1
0,6,303,1,1
1,6,215,2,1
1,6,184,2,1
0,6,189,2,1
1,6,144,2,1
1,7,64,2,1
0,6,140,2,1
1,6,26,2,1
1,6,67,2,1
1,6,28,2,1
1,6,0,2,1
1,6,110,2,1
1,6,183,2,1
0,6,130,2,1
1,7,73,2,1
1,6,41,2,1
1,6,3,2,1
1,6,17,2,1
1,6,381,2,1
1,6,399,2,1
0,6,233,2,1
1,6,93,2,1
1,6,36,2,1
1,6,72,2,1
0,6,101,2,1
1,7,49,3,1
0,6,79,2,1
0,6,228,1,1
1,6,0,2,1
1,7,232,2,1
0,6,10,2,1
1,6,0,2,1
1,6,69,2,1
1,6,61,2,1
1,6,62,2,1
1,6,26,2,1
0,6,126,2,1
1,6,167,2,1
1,6,101,2,1
0,6,53,2,1
1,6,44,2,1
1,6,175,2,1
0,6,42,2,1
1,6,133,2,1
1,6,185,2,1
1,6,33,2,1
1,6,251,2,1
1,6,229,2,1
1,6,104,2,1
1,6,80,2,1
1,6,75,2,1
1,6,122,2,1
1,6,74,2,1
1,6,0,2,1
0,6,80,2,1
1,6,23,2,1
0,6,284,1,1
1,6,60,2,1
1,7,315,2,1
0,6,0,1,1
0,6,181,2,1
1,6,24,2,1
1,6,153,2,1
0,5,37,0,1
0,5,113,1,1
1,6,18,2,1
0,6,84,1,1
0,6,0,2,1
1,6,188,2,1
1,6,255,2,1
4,9,260,6,1
0,5,115,0,1
0,5,173,1,1
0,6,55,1,1
1,7,8,3,1
0,6,333,1,1
1,6,34,2,1
1,6,78,2,1
1,6,20,2,1
1,6,100,2,1
0,5,277,1,1
1,7,147,2,1
1,6,173,2,1
1,6,32,2,1
0,6,318,1,1
0,6,462,1,1
0,6,159,2,1
1,6,40,2,1
1,6,42,2,1
1,6,18,2,1
1,6,0,2,1
0,6,29,2,1
0,6,0,2,1
1,6,100,2,1
1,6,18,2,1
1,6,233,2,1
1,6,446,1,1
0,6,49,2,1
1,6,89,2,1
0,6,56,2,1
1,6,34,2,1
1,6,105,2,1
1,6,64,2,1
1,6,36,3,1
0,6,8,2,1
0,5,199,1,1
1,6,111,2,1
1,6,115,2,1
0,6,180,1,1
1,6,6,2,1
0,6,44,2,1
1,6,51,2,1
1,6,27,2,1
1,6,59,2,1
0,6,95,1,1
1,6,68,2,1
1,6,87,2,1
1,6,310,1,1
0,5,477,1,1
1,7,104,3,1
1,6,52,2,1
1,6,35,2,1
0,6,150,2,1
0,6,232,1,1
1,7,5,3,1
1,6,0,2,1
1,6,38,3,1
1,6,19,2,1
1,6,127,2,1
1,6,68,2,1
1,6,90,2,1
1,6,37,2,1
1,7,23,2,1
0,6,159,2,1
1,7,40,3,1
1,7,57,2,1
1,6,5,2,1
0,6,10,2,1
0,6,6,2,1
1,6,16,2,1
0,6,14,2,1
0,6,104,2,1
1,6,16,2,1
1,7,78,3,1
1,6,98,2,1
0,6,121,1,1
1,7,121,3,1
0,6,77,2,1
0,6,116,2,1
1,6,34,2,1
1,6,325,2,1
0,6,128,2,1
1,6,7,2,1
1,6,11,2,1
0,6,7,2,1
1,7,4,3,1
0,6,0,2,1
0,6,33,1,1
0,6,131,2,1
1,6,12,2,1
1,6,27,2,1
0,6,32,2,1
0,6,26,2,1
1,6,57,2,1
1,6,63,2,1
1,6,67,2,1
1,6,42,2,1
1,6,0,2,1
0,6,54,2,1
1,6,0,2,1
0,6,68,2,1
1,6,30,2,1
1,6,112,2,1
0,6,38,2,1
1,6,43,2,1
1,6,98,2,1
1,7,35,3,1
0,6,110,2,1
1,6,0,2,1
1,6,0,2,1
1,6,77,2,1
1,6,105,2,1
1,6,18,2,1
0,6,26,2,1
1,6,33,2,1
1,6,0,3,1
1,6,0,2,1
0,5,309,1,1
1,6,3,2,1
1,6,323,2,1
1,7,129,2,1
0,6,167,2,1
0,6,126,2,1
0,6,21,2,1
1,6,101,2,1
1,6,10,2,1
1,6,71,2,1
0,6,185,2,1
1,6,84,2,1
0,6,85,1,1
1,7,241,2,1
1,6,145,2,1
0,6,123,2,1
0,5,43,1,1
1,7,200,2,1
1,7,21,2,1
0,6,237,1,1
0,6,47,2,1
1,6,57,2,1
1,7,7,2,1
0,6,116,2,1
0,6,89,2,1
1,7,169,2,1
1,6,1,2,1
1,6,158,2,1
0,6,170,2,1
0,6,529,2,1
2,7,94,3,1
1,6,213,2,1
0,6,13,2,1
1,6,40,2,1
1,6,247,2,1
1,6,57,2,1
0,6,13,2,1
1,7,39,3,1
1,6,503,2,1
0,6,95,2,1
0,5,598,1,1
2,7,103,3,1
1,7,130,3,1
0,6,7,2,1
1,7,8,2,1
0,6,45,2,1
1,6,173,2,1
0,6,303,1,1
0,6,15,2,1
0,6,199,2,1
1,6,341,2,1
1,6,129,3,1
0,6,523,1,1
1,7,359,3,1
1,6,487,2,1
0,6,352,1,1
0,5,333,1,1
1,6,468,2,1
2,7,246,3,1
0,5,786,1,1
1,6,317,1,1
0,6,796,1,1
2,7,16,3,1
0,6,630,1,1
1,7,206,2,1
0,6,563,1,1
1,6,71,2,1
0,6,587,1,1
1,6,74,2,1
0,5,393,1,1
0,6,116,2,1
0,6,568,1,1
1,6,220,2,1
0,5,888,1,1
1,6,185,2,1
0,6,1023,1,1
2,7,175,3,1
1,6,1023,1,1
2,8,123,4,1
0,5,1023,1,1
1,6,245,2,1
0,5,514,1,1
1,6,166,3,1
0,6,849,1,1
1,6,521,2,1
0,6,1023,1,1
2,7,541,3,1
1,7,270,2,1
1,6,383,2,1
0,6,0,1,1
0,6,19,2,1
1,7,114,3,1
1,7,13,2,1
1,7,0,3,1
1,7,35,2,1
1,7,307,2,1
0,5,858,1,1
0,6,589,2,1
1,7,524,2,1
2,7,57,4,1
1,7,259,2,1
1,6,0,3,1
1,6,133,2,1
1,6,220,2,1
1,6,237,2,1
1,7,125,2,1
1,6,624,2,1
1,7,65,3,1
0,6,667,1,1
1,7,88,3,1
0,6,638,1,1
1,6,280,2,1
1,6,213,2,1
1,6,214,2,1
1,6,137,2,1
0,6,117,2,1
1,6,4,2,1
0,5,737,1,1
1,7,325,2,1
0,6,555,1,1
1,6,24,2,1
1,6,764,2,1
1,7,421,3,1
0,5,852,1,1
1,7,297,2,1
0,6,225,1,1
0,6,194,2,1
0,6,302,2,1
0,5,677,1,1
1,7,70,2,1
0,6,510,1,1
1,6,350,2,1
1,6,468,2,1
1,6,180,2,1
1,7,394,2,1
1,6,479,2,1
0,5,1010,1,1
1,7,557,3,1
1,7,549,2,1
1,6,2,2,1
0,5,108,2,1
1,7,231,3,1
0,6,496,1,1
0,6,712,1,1
8,14,1023,10,1
0,5,337,1,1
0,5,491,0,1
0,6,540,1,1
1,6,533,2,1
1,7,105,3,1
0,6,547,1,1
1,6,229,2,1
0,6,28,2,1
0,6,234,2,1
0,6,697,1,1
1,6,301,2,1
0,6,300,2,1
0,6,754,1,1
1,7,518,2,1
1,7,489,2,1
0,6,979,1,1
1,7,46,3,1
1,6,334,1,1
0,6,484,1,1
1,6,532,2,1
1,7,108,2,1
0,6,379,2,1
0,6,59,2,1
1,6,69,2,1
1,6,91,2,1
0,6,173,2,1
1,6,351,2,1
0,6,193,2,1
1,6,500,2,1
1,6,576,2,1
1,7,286,2,1
10,15,1023,12,1
0,1,1023,0,1
5,11,1023,5,1
0,5,51,1,1
5,11,1023,7,1
0,5,362,0,1
3,8,982,3,1
0,6,190,2,1
0,4,693,0,1
0,5,571,1,1
0,6,565,1,1
1,7,108,3,1
0,6,924,1,1
2,7,493,3,1
0,5,1023,1,1
1,7,295,3,1
0,2,1023,0,1
0,5,0,0,1
0,5,598,0,1
2,8,443,4,1
0,6,582,2,1
1,6,1023,2,1
0,1,1023,0,1
2,7,1023,4,1
0,5,295,0,1
0,4,1023,0,1
0,5,139,1,1
4,9,841,4,1
0,5,514,0,1
1,6,260,1,1
0,5,843,0,1
1,7,9,2,1
0,6,860,1,1
0,6,563,1,1
3,9,1023,4,1
0,6,1023,1,1
2,7,711,2,1
0,4,920,0,1
1,7,224,2,1
0,5,900,0,1
0,6,1023,2,1
0,5,8,0,1
0,5,416,1,1
0,5,449,1,1
1,6,428,2,1
0,5,853,1,1
1,6,160,2,1
0,6,581,1,1
1,6,600,2,1
1,6,619,2,1
1,7,253,2,1
1,6,795,1,1
2,7,247,3,1
0,6,143,1,1
0,5,653,1,1
1,7,219,3,1
1,6,533,2,1
1,6,141,2,1
1,6,380,2,1
1,6,43,2,1
0,6,437,1,1
2,7,88,3,1
1,6,374,2,1
0,6,203,1,1
0,6,643,1,1
1,7,287,2,1
1,6,245,2,1
1,6,172,2,1
1,6,148,2,1
0,6,741,1,1
1,6,222,2,1
0,6,645,1,1
1,7,41,2,1
0,5,790,1,1
1,6,53,2,1
1,6,310,2,1
1,6,0,2,1
1,6,128,2,1
1,6,465,2,1
0,6,27,2,1
1,6,118,2,1
0,6,631,1,1
1,6,90,2,1
0,6,21,2,1
1,6,257,2,1
1,6,97,2,1
0,6,39,2,1
0,6,400,1,1
1,7,318,2,1
1,7,0,3,1
0,6,312,1,1
1,6,332,2,1
1,6,216,2,1
0,6,289,1,1
0,6,0,2,1
1,6,294,2,1
1,6,235,2,1
0,6,71,2,1
1,6,99,2,1
1,6,0,2,1
0,6,109,2,1
1,6,421,2,1
1,7,51,2,1
0,6,400,1,1
1,7,4,2,1
1,6,27,2,1
1,6,181,2,1
0,6,140,2,1
1,7,19,3,1
0,6,160,2,1
0,6,312,1,1
1,6,49,2,1
0,5,473,1,1
1,6,32,2,1
1,6,51,2,1
1,6,42,2,1
0,6,318,2,1
1,6,0,2,1
1,7,32,3,1
1,6,85,2,1
1,6,0,2,1
0,6,328,2,1
1,6,34,2,1
0,6,427,1,1
1,6,25,2,1
1,6,122,2,1
0,6,104,2,1
0,6,143,2,1
1,7,23,2,1
1,6,124,2,1
0,6,73,2,1
0,6,204,2,1
1,6,200,2,1
0,6,143,2,1
1,6,379,2,1
2,7,0,3,1
0,6,25,2,1
0,6,346,1,1
1,7,191,2,1
1,6,130,2,1
0,6,18,2,1
1,6,101,2,1
1,7,13,2,1
1,6,74,2,1
0,6,128,2,1
1,6,271,2,1
1,6,97,2,1
0,5,702,1,1
1,7,0,3,1
1,7,179,2,1
0,6,257,1,1
1,6,63,2,1
1,6,291,2,1
0,6,236,2,1
1,6,214,2,1
1,7,361,2,1
0,6,297,2,1
1,6,216,1,1
1,6,281,2,1
1,6,419,1,1
1,6,106,2,1
1,7,260,2,1
1,7,83,2,1
1,6,35,2,1
1,6,471,2,1
1,7,133,2,1
1,6,205,2,1
1,6,200,2,1
1,7,11,2,1
1,6,54,2,1
0,6,148,2,1
1,6,0,2,1
1,6,79,2,1
1,6,88,2,1
1,6,287,2,1
1,6,140,2,1
1,6,54,2,1
1,6,64,2,1
1,7,175,2,1
0,6,0,2,1
0,6,82,2,1
0,6,415,1,1
1,6,249,2,1
1,6,178,2,1
1,6,142,2,1
1,6,20,2,1
1,6,292,2,1
0,6,359,1,1
1,6,211,2,1
1,6,15,2,1
0,6,19,2,1
1,7,11,2,1
1,6,0,2,1
0,6,457,1,1
1,7,57,2,1
1,7,160,2,1
0,6,421,1,1
1,6,405,2,1
1,6,199,2,1
0,6,277,2,1
0,6,440,1,1
1,7,41,2,1
1,6,67,2,1
0,6,70,2,1
1,6,0,2,1
1,6,26,2,1
0,6,172,2,1
0,6,214,2,1
0,6,2,1,1
1,7,117,2,1
0,6,34,2,1
1,6,341,2,1
0,6,266,2,1
1,6,270,2,1
1,6,185,2,1
1,6,218,2,1
1,6,381,2,1
1,6,518,1,1
1,6,289,2,1
1,6,149,2,1
0,6,0,2,1
1,6,45,2,1
2,7,79,3,1
1,6,204,2,1
1,6,47,2,1
1,6,442,1,1
1,6,33,2,1
0,6,303,2,1
1,6,288,2,1
0,6,149,2,1
0,6,199,2,1
1,6,84,2,1
1,6,32,2,1
1,6,50,2,1
0,7,168,2,1
1,6,135,2,1
1,7,13,2,1
0,6,6,1,1
1,6,261,2,1
1,7,145,2,1
0,6,106,2,1
0,6,124,2,1
1,6,34,2,1
0,6,220,2,1
1,6,76,2,1
0,6,243,2,1
1,6,243,2,1
1,6,92,3,1
1,6,316,2,1
1,6,113,2,1
0,6,7,2,1
0,5,19,1,1
0,5,54,1,1
2,8,55,4,1
1,6,100,2,1
0,5,16,0,1
1,7,209,3,1
2,8,82,4,1
1,6,145,2,1
1,6,161,2,1
0,6,249,2,1
0,5,217,1,1
0,5,231,1,1
2,7,13,3,1
0,6,38,2,1
3,8,0,4,1
2,7,72,3,1
1,6,0,2,1
0,6,220,1,1
0,5,129,1,1
2,8,212,3,1
1,7,37,2,1
1,6,108,2,1
1,6,15,2,1
0,6,5,2,1
0,6,107,1,1
0,6,1,2,1
0,5,661,0,1
0,6,229,1,1
1,6,541,2,1
3,9,80,5,1
2,7,39,3,1
1,6,134,2,1
0,6,34,2,1
0,5,74,1,1
1,7,0,3,1
2,7,7,3,1
1,7,23,2,1
0,5,24,0,1
1,6,29,2,1
3,8,68,4,1
1,7,157,2,1
1,7,293,2,1
0,5,295,0,1
1,7,0,3,1
0,6,26,2,1
1,6,20,2,1
0,6,0,2,1
1,6,0,2,1
0,6,258,1,1
0,6,182,1,1
1,6,14,2,1
1,6,39,2,1
1,6,0,2,1
1,6,53,2,1
0,6,12,2,1
1,7,95,2,1
1,6,96,2,1
0,6,424,1,1
1,6,110,2,1
0,6,419,1,1
1,7,202,2,1
1,7,115,3,1
1,6,177,2,1
1,6,155,2,1
1,6,31,2,1
1,7,41,3,1
0,6,103,1,1
0,6,87,1,1
1,6,33,2,1
1,6,21,2,1
0,6,142,1,1
0,6,63,1,1
0,6,93,2,1
0,6,0,2,1
1,6,123,2,1
1,6,65,3,1
1,6,24,2,1
0,6,99,2,1
0,6,0,2,1
1,6,8,2,1
0,6,277,2,1
1,6,95,2,1
1,7,381,2,1
1,6,0,2,1
1,6,86,2,1
1,6,2,2,1
0,6,0,2,1
0,6,0,2,1
1,6,69,2,1
1,6,14,2,1
1,6,0,2,1
0,6,40,2,1
1,6,34,2,1
1,6,40,2,1
1,6,6,2,1
1,6,0,2,1
0,6,34,1,1
1,6,9,2,1
1,6,3,2,1
1,6,0,2,1
0,5,19,1,1
1,6,12,2,1
1,7,8,3,1
0,6,104,2,1
1,6,39,2,1
1,6,0,2,1
1,6,121,2,1
1,6,12,2,1
1,7,329,2,1
1,6,66,2,1
1,6,91,2,1
1,6,26,2,1
0,6,0,2,1
0,6,31,2,1
1,6,0,2,1
1,6,13,2,1
1,6,16,2,1
1,6,104,2,1
1,6,84,2,1
1,6,111,2,1
1,6,228,2,1
1,6,168,2,1
0,6,141,2,1
1,7,297,2,1
1,7,161,2,1
0,6,175,2,1
0,6,119,2,1
1,6,65,2,1
1,6,181,2,1
1,6,229,2,1
1,6,1,2,1
0,6,198,2,1
1,6,144,2,1
1,6,184,2,1
1,6,149,2,1
1,6,29,2,1
0,6,255,1,1
0,6,95,2,1
1,7,260,2,1
1,7,0,3,1
0,6,221,2,1
0,6,167,2,1
1,6,323,2,1
1,7,13,3,1
0,6,252,2,1
1,6,154,2,1
1,6,73,2,1
1,6,303,2,1
1,6,47,2,1
1,6,356,1,1
1,6,154,2,1
1,6,154,2,1
0,6,353,2,1
1,7,39,2,1
0,6,445,1,1
1,6,310,2,1
0,6,219,2,1
0,6,288,1,1
1,7,0,3,1
1,6,651,1,1
1,6,91,2,1
0,6,701,1,1
1,7,372,2,1
1,7,302,2,1
0,5,518,1,1
0,6,102,2,1
1,6,431,2,1
1,7,99,3,1
0,5,771,0,1
1,6,26,2,1
0,5,1009,0,1
2,8,187,4,1
0,6,625,1,1
1,6,206,2,1
1,6,354,2,1
1,6,196,2,1
1,6,300,2,1
0,5,1023,1,1
1,7,174,2,1
10,15,1023,11,1
0,5,139,0,1
0,4,1023,0,1
0,6,162,2,1
1,6,550,1,1
2,7,339,3,1
1,6,424,2,1
0,5,392,1,1
0,6,166,1,1
1,7,290,2,1
1,6,388,2,1
0,6,395,1,1
0,6,445,2,1
1,6,854,1,1
1,6,271,2,1
0,5,865,1,1
1,6,208,2,1
1,6,571,1,1
1,7,296,2,1
0,6,750,1,1
1,6,673,1,1
0,6,980,1,1
1,7,595,3,1
0,5,724,1,1
1,6,84,2,1
0,6,419,1,1
1,6,110,2,1
1,6,449,2,1
2,7,98,3,1
2,7,229,3,1
1,6,360,2,1
1,6,3,2,1
2,7,201,3,1
1,6,546,2,1
1,7,279,2,1
1,6,692,1,1
2,8,96,3,1
1,6,666,1,1
1,7,190,2,1
1,6,300,2,1
1,6,167,2,1
1,6,78,2,1
1,6,80,2,1
1,6,18,2,1
1,6,290,1,1
0,6,804,1,1
1,7,153,2,1
0,5,754,1,1
2,7,41,3,1
0,6,445,1,1
1,6,410,2,1
1,6,91,2,1
1,6,472,2,1
0,5,688,1,1
0,6,194,1,1
0,6,461,1,1
1,7,120,2,1
0,6,261,2,1
0,6,238,1,1
1,6,117,2,1
0,6,224,2,1
1,6,46,2,1
0,6,246,1,1
1,6,245,2,1
1,7,597,2,1
1,6,19,2,1
0,5,889,1,1
1,7,246,2,1
0,6,514,1,1
1,6,144,2,1
0,6,771,1,1
0,5,822,1,1
1,6,706,1,1
2,7,675,2,1
0,6,131,2,1
3,8,1023,4,1
0,6,351,2,1
3,9,1023,5,1
1,7,52,3,1
0,5,801,1,1
0,6,840,1,1
0,6,1023,1,1
0,5,600,0,1
1,7,366,2,1
0,5,924,0,1
0,5,341,1,1
1,6,695,2,1
1,6,256,2,1
0,5,848,0,1
0,6,547,1,1
0,5,925,1,1
1,6,832,1,1
0,5,625,1,1
0,4,1003,0,1
1,6,396,2,1
1,7,502,2,1
0,6,863,1,1
1,6,138,1,1
0,6,757,1,1
0,6,221,2,1
0,5,260,1,1
0,6,120,2,1
1,6,45,2,1
0,5,669,1,1
1,6,595,2,1
2,7,228,3,1
0,6,391,1,1
0,5,884,0,1
1,7,448,2,1
0,6,926,1,1
0,6,863,1,1
0,5,698,0,1
0,5,1023,0,1
0,6,129,1,1
0,5,734,0,1
4,9,850,4,1
0,5,1023,1,1
4,9,299,5,1
0,5,946,0,1
1,6,338,2,1
1,6,628,2,1
4,10,362,6,1
1,5,883,1,1
0,5,234,1,1
0,5,889,1,1
4,10,100,5,1
0,5,1023,1,1
1,6,905,1,1
0,5,1023,1,1
1,6,285,2,1
0,5,641,1,1
1,7,588,2,1
0,5,168,0,1
4,9,979,4,1
0,6,183,2,1
1,6,636,2,1
5,10,1023,5,1
0,2,1023,0,1
1,6,561,2,1
0,5,587,0,1
3,8,1023,4,1
0,1,1023,0,1
0,5,600,0,1
0,5,710,0,1
0,5,814,1,1
2,7,224,3,1
0,5,761,1,1
1,6,256,2,1
1,7,379,2,1
0,6,857,1,1
0,5,615,1,1
1,7,258,2,1
1,7,532,2,1
5,12,1023,7,1
4,9,1023,5,1
0,5,197,0,1
0,5,1023,0,1
1,6,200,2,1
0,6,708,1,1
1,7,261,2,1
0,6,273,1,1
1,7,13,3,1
1,6,98,2,1
0,6,393,1,1
1,6,159,2,1
1,7,18,3,1
0,6,0,2,1
1,6,25,2,1
3,8,605,4,1
0,5,1006,0,1
1,7,40,2,1
1,6,349,2,1
1,6,540,2,1
1,6,217,2,1
1,7,164,2,1
1,6,72,2,1
0,6,486,2,1
1,7,230,2,1
0,6,694,1,1
0,6,519,2,1
1,6,374,2,1
1,6,463,2,1
0,7,20,2,1
0,5,874,1,1
1,7,162,3,1
1,7,453,2,1
1,6,117,2,1
1,6,104,2,1
1,7,0,3,1
1,6,139,2,1
0,6,59,2,1
2,7,81,3,1
1,6,240,2,1
0,6,207,2,1
1,6,0,2,1
1,7,104,2,1
0,6,93,2,1
1,6,7,2,1
1,7,115,3,1
0,6,129,2,1
0,6,283,1,1
1,6,146,2,1
1,6,304,2,1
0,6,86,1,1
1,6,203,2,1
1,6,59,2,1
0,6,111,2,1
1,6,6,2,1
1,7,179,2,1
0,6,219,1,1
0,6,78,2,1
1,7,73,2,1
1,6,247,2,1
0,6,82,2,1
0,6,0,2,1
1,6,283,2,1
0,6,283,1,1
1,6,154,2,1
1,7,176,2,1
1,6,152,2,1
1,6,37,2,1
1,6,118,2,1
1,6,56,2,1
0,6,0,2,1
1,6,54,2,1
1,6,6,2,1
0,6,235,2,1
1,6,303,1,1
1,7,49,2,1
1,6,58,2,1
0,6,82,2,1
1,6,133,2,1
1,6,95,2,1
0,6,211,1,1
1,6,0,2,1
1,6,131,2,1
1,6,54,2,1
1,6,176,2,1
1,6,155,2,1
1,6,11,2,1
1,6,36,2,1
1,6,0,2,1
1,6,179,2,1
0,6,220,2,1
1,7,107,2,1
1,6,144,2,1
1,6,95,2,1
1,6,103,2,1
1,7,155,2,1
1,6,226,2,1
1,7,157,2,1
1,6,238,2,1
1,6,84,2,1
0,6,187,1,1
1,6,232,2,1
1,6,56,2,1
0,6,254,1,1
1,7,28,2,1
1,7,157,2,1
1,6,168,2,1
1,6,239,1,1
1,6,107,2,1
1,6,0,2,1
0,6,80,2,1
1,6,174,2,1
1,7,0,2,1
1,6,152,2,1
1,6,6,2,1
1,6,445,1,1
1,6,127,2,1
0,6,438,1,1
1,6,59,3,1
0,6,17,2,1
0,6,56,2,1
0,6,188,2,1
1,6,249,2,1
1,6,104,2,1
1,6,0,2,1
1,6,14,2,1
1,6,0,2,1
0,6,64,2,1
1,6,407,2,1
0,6,527,1,1
1,6,203,2,1
1,7,152,2,1
1,7,136,3,1
1,6,137,2,1
1,6,34,2,1
1,6,53,2,1
0,6,225,1,1
0,6,264,1,1
1,6,170,2,1
0,6,256,2,1
0,6,25,2,1
1,7,140,2,1
1,6,52,2,1
0,6,118,2,1
1,6,8,2,1
2,7,168,3,1
0,6,26,2,1
0,6,88,2,1
1,7,25,2,1
1,6,145,2,1
1,6,2,2,1
1,7,78,2,1
1,6,73,2,1
0,6,113,2,1
0,6,444,1,1
1,7,219,2,1
1,6,268,2,1
0,6,113,2,1
1,7,14,3,1
1,6,18,2,1
0,6,113,2,1
1,6,110,2,1
1,6,32,2,1
0,6,341,1,1
1,6,104,2,1
1,6,136,2,1
1,6,99,2,1
1,6,247,2,1
1,7,279,2,1
1,6,39,2,1
0,5,145,1,1
1,7,14,2,1
1,6,181,2,1
0,6,26,2,1
0,6,0,2,1
0,6,498,2,1
1,6,336,2,1
1,6,270,2,1
0,6,13,2,1
1,6,232,2,1
0,6,11,2,1
0,6,31,2,1
1,6,28,2,1
1,6,86,2,1
1,6,213,2,1
1,6,158,2,1
1,7,145,2,1
0,6,225,1,1
0,6,0,2,1
1,6,51,2,1
0,6,483,1,1
0,6,226,2,1
0,6,262,1,1
0,6,96,1,1
1,6,94,2,1
1,6,118,2,1
1,6,134,2,1
1,6,165,1,1
1,6,30,2,1
1,6,198,2,1
1,6,26,2,1
0,6,244,1,1
1,7,153,2,1
1,6,13,2,1
1,6,19,2,1
0,6,177,1,1
0,6,219,2,1
0,6,0,2,1
1,6,142,2,1
0,6,152,2,1
1,6,151,2,1
1,6,176,3,1
0,7,0,2,1
1,6,121,2,1
1,6,111,2,1
1,6,13,2,1
1,6,94,2,1
0,6,35,2,1
1,6,72,2,1
1,6,27,2,1
1,6,116,2,1
1,6,0,2,1
0,5,516,1,1
1,6,243,2,1
1,6,428,2,1
1,7,20,2,1
0,6,0,2,1
1,6,189,2,1
1,6,74,2,1
1,6,155,3,1
1,6,11,2,1
1,6,30,2,1
1,6,0,2,1
0,6,0,2,1
0,6,126,2,1
0,4,282,0,1
2,8,201,3,1
1,6,191,2,1
0,5,0,1,1
0,6,92,2,1
0,6,96,2,1
0,6,88,1,1
1,6,261,2,1
1,7,25,2,1
0,6,132,2,1
1,6,81,2,1
1,7,5,2,1
1,6,236,2,1
1,7,27,2,1
0,6,189,2,1
0,6,240,1,1
1,7,26,3,1
1,7,23,3,1
1,6,147,2,1
1,6,148,1,1
1,6,53,2,1
1,7,60,2,1
1,6,149,2,1
0,6,85,2,1
1,7,179,2,1
3,9,176,5,1
1,7,81,3,1
1,6,24,2,1
0,5,117,0,1
0,5,27,1,1
1,6,51,2,1
3,9,16,4,1
1,7,0,3,1
0,4,75,0,1
0,6,97,1,1
2,8,32,4,1
1,7,99,2,1
0,5,2,1,1
0,6,55,2,1
0,6,20,2,1
1,6,1,2,1
1,7,31,3,1
2,7,0,3,1
0,5,241,1,1
0,6,52,2,1
3,8,0,5,1
0,5,77,1,1
1,6,58,1,1
1,6,21,2,1
1,7,0,2,1
0,5,20,1,1
0,6,62,2,1
0,5,138,1,1
1,6,14,2,1
1,7,31,2,1
3,9,41,5,1
0,5,90,1,1
0,6,274,1,1
2,7,54,3,1
2,7,45,3,1
0,6,82,2,1
0,5,43,1,1
0,6,135,1,1
1,7,0,2,1
0,6,131,1,1
0,5,61,2,1
0,6,197,1,1
1,7,121,2,1
1,6,0,2,1
0,6,28,2,1
0,6,89,2,1
1,6,7,2,1
1,6,51,2,1
0,6,190,1,1
1,6,0,2,1
1,5,53,2,1
1,6,0,2,1
1,6,315,2,1
1,6,4,2,1
1,6,46,2,1
0,6,50,2,1
1,6,4,2,1
0,6,72,2,1
0,6,0,2,1
1,6,13,2,1
1,7,26,2,1
0,6,134,2,1
1,6,0,2,1
1,6,52,2,1
1,7,120,2,1
1,6,0,2,1
0,6,78,2,1
0,6,60,2,1
1,6,17,2,1
1,6,29,2,1
1,6,7,2,1
1,6,390,1,1
1,6,17,2,1
1,6,454,2,1
5,11,36,7,1
0,5,541,1,1
0,5,70,1,1
0,6,568,1,1
2,7,13,3,1
1,6,226,2,1
0,6,292,2,1
0,6,99,2,1
1,6,247,2,1
1,7,116,3,1
0,6,322,2,1
1,6,82,2,1
1,6,278,2,1
1,7,62,2,1
0,5,331,1,1
0,6,212,2,1
1,7,356,2,1
2,7,105,3,1
0,5,796,0,1
1,6,307,2,1
0,5,682,1,1
2,7,467,3,1
0,5,960,0,1
1,7,169,2,1
0,6,838,1,1
1,7,364,3,1
4,9,181,5,1
0,5,389,1,1
0,5,175,1,1
1,6,238,2,1
1,6,58,2,1
1,6,221,2,1
1,6,140,2,1
1,6,257,2,1
0,6,294,1,1
0,6,282,2,1
0,6,537,1,1
1,6,81,2,1
0,6,407,1,1
1,6,57,2,1
0,6,18,2,1
0,6,615,1,1
1,7,282,2,1
0,5,549,1,1
0,6,608,1,1
0,5,870,1,1
1,6,571,2,1
5,10,27,7,1
0,5,335,1,1
0,6,209,1,1
0,5,0,1,1
1,6,186,2,1
1,6,211,2,1
0,6,308,1,1
0,6,345,2,1
1,6,345,2,1
0,6,100,2,1
1,6,474,2,1
1,6,218,2,1
0,6,572,1,1
0,5,934,1,1
0,6,856,1,1
0,6,788,1,1
1,7,530,2,1
1,6,636,2,1
0,6,459,1,1
1,7,314,2,1
1,7,253,3,1
1,6,516,2,1
2,7,94,3,1
0,6,521,1,1
2,7,116,3,1
7,12,1023,8,1
0,6,820,1,1
1,7,590,2,1
2,7,223,3,1
1,6,444,2,1
2,7,165,3,1
1,6,25,3,1
1,6,239,2,1
1,7,36,2,1
1,7,173,2,1
4,9,281,5,1
0,5,571,0,1
0,5,526,0,1
0,6,558,1,1
1,7,654,2,1
0,6,999,1,1
1,6,653,2,1
0,4,1023,0,1
1,6,220,2,1
0,2,1023,0,1
0,5,130,1,1
5,10,1023,6,1
3,9,382,5,1
0,5,665,0,1
0,6,169,1,1
3,8,334,4,1
2,8,128,4,1
0,6,404,1,1
0,5,551,0,1
0,6,667,1,1
1,6,0,2,1
1,6,251,2,1
0,5,720,1,1
1,7,238,2,1
3,8,915,4,1
0,6,143,1,1
3,7,920,3,1
0,5,945,0,1
1,6,455,2,1
0,6,487,1,1
0,6,511,1,1
1,7,246,2,1
1,7,308,3,1
2,7,538,3,1
9,14,1023,9,1
0,5,1023,0,1
0,6,1023,1,1
2,7,31,3,1
5,10,1023,6,1
0,4,510,0,1
0,5,736,0,1
0,6,136,2,1
0,6,695,1,1
1,6,81,2,1
0,6,673,1,1
2,7,59,3,1
0,5,953,1,1
0,6,501,1,1
1,6,640,2,1
1,7,393,2,1
3,8,785,3,1
0,5,826,0,1
3,9,689,4,1
0,5,1023,0,1
1,7,34,2,1
1,6,537,2,1
2,7,149,3,1
0,6,577,1,1
0,6,785,1,1
2,7,95,3,1
0,6,400,1,1
0,5,311,1,1
1,7,424,2,1
1,6,52,2,1
1,7,325,2,1
1,6,312,2,1
0,5,817,1,1
2,7,188,3,1
5,10,1023,5,1
2,7,335,4,1
0,6,817,1,1
1,7,650,3,1
2,8,230,4,1
0,5,233,1,1
0,5,43,1,1
1,7,107,3,1
0,2,1023,0,1
0,5,338,0,1
4,10,1023,6,1
0,5,98,1,1
0,1,1023,0,1
0,6,83,2,1
0,5,869,1,1
1,6,103,2,1
0,5,1023,1,1
0,5,942,0,1
0,2,1023,0,1
2,7,1012,3,1
0,5,435,0,1
0,5,1023,0,1
1,6,500,2,1
0,5,916,0,1
2,7,169,3,1
1,6,372,2,1
5,11,1023,7,1
0,5,842,0,1
7,13,1023,9,1
0,5,249,0,1
0,5,1023,0,1
3,8,916,3,1
4,10,1023,6,1
0,5,192,0,1
0,5,554,0,1
0,6,513,1,1
0,6,244,1,1
1,7,27,2,1
1,6,197,2,1
0,6,217,2,1
1,6,441,1,1
1,7,451,2,1
1,6,293,2,1
0,5,661,1,1
1,6,772,2,1
1,7,290,3,1
0,6,206,2,1
0,6,165,2,1
1,6,248,2,1
0,6,483,1,1
1,6,795,1,1
0,5,1023,1,1
1,7,476,2,1
0,5,463,1,1
1,6,378,2,1
1,6,148,2,1
0,6,0,1,1
1,6,88,2,1
1,6,223,2,1
1,6,149,2,1
1,6,239,2,1
1,6,266,2,1
0,6,114,2,1
0,6,392,2,1
1,7,107,2,1
0,6,382,1,1
0,6,241,1,1
1,6,4,2,1
1,6,112,2,1
0,6,124,2,1
1,6,203,2,1
1,6,3,3,1
0,6,524,1,1
0,6,228,2,1
1,6,281,2,1
1,6,85,2,1
0,5,125,2,1
1,6,151,2,1
1,7,150,2,1
0,6,127,2,1
1,6,70,2,1
1,6,311,2,1
1,6,395,2,1
1,6,0,2,1
1,7,39,2,1
1,6,7,2,1
0,6,453,1,1
1,7,250,2,1
1,6,167,2,1
0,5,500,1,1
0,6,43,2,1
1,7,84,2,1
1,6,71,2,1
0,6,18,2,1
1,6,151,2,1
0,6,206,2,1
0,6,88,2,1
1,6,155,2,1
1,6,207,2,1
0,6,136,1,1
1,6,80,2,1
1,7,13,2,1
1,6,157,2,1
0,6,67,2,1
1,6,176,2,1
1,6,71,2,1
0,6,117,2,1
1,7,110,2,1
1,6,124,2,1
1,6,209,2,1
0,6,297,2,1
1,7,23,2,1
1,6,302,2,1
1,6,116,1,1
1,7,197,2,1
1,6,53,2,1
1,6,118,2,1
1,6,3,2,1
0,6,196,2,1
1,6,40,2,1
1,6,115,2,1
1,7,11,2,1
1,6,17,2,1
1,6,0,2,1
1,6,48,2,1
1,6,155,1,1
0,6,30,2,1
1,6,46,2,1
0,6,266,2,1
0,6,674,1,1
1,7,51,2,1
1,6,156,2,1
0,6,81,2,1
0,6,0,2,1
1,6,133,2,1
1,6,0,2,1
1,6,29,2,1
1,7,364,2,1
2,7,15,3,1
0,6,349,1,1
1,6,228,2,1
1,7,11,3,1
0,6,237,1,1
1,6,3,2,1
1,6,248,2,1
0,6,223,1,1
0,6,67,2,1
1,6,141,2,1
1,6,150,2,1
0,6,113,1,1
1,6,137,2,1
1,6,0,2,1
1,7,72,2,1
0,6,33,2,1
1,7,11,3,1
1,6,208,2,1
0,6,76,2,1
0,6,185,2,1
1,6,56,2,1
0,6,227,2,1
0,6,220,2,1
1,6,113,2,1
1,6,1,2,1
1,6,115,2,1
1,6,39,2,1
1,6,155,2,1
0,6,49,2,1
1,7,184,2,1
1,6,11,2,1
0,6,75,2,1
1,7,74,2,1
0,6,365,1,1
0,6,178,2,1
1,6,158,2,1
1,6,257,2,1
1,6,76,2,1
0,6,274,1,1
0,6,54,2,1
1,6,164,2,1
0,6,246,2,1
1,6,147,2,1
1,6,212,2,1
0,6,179,2,1
0,6,0,2,1
1,6,399,2,1
1,7,420,2,1
1,6,418,2,1
1,6,319,2,1
1,7,441,2,1
0,6,502,1,1
1,6,14,2,1
0,6,1,2,1
0,6,62,2,1
0,6,143,2,1
1,6,94,2,1
1,6,8,2,1
1,6,47,2,1
1,6,29,2,1
1,6,215,2,1
0,6,28,2,1
0,6,48,2,1
0,6,204,2,1
0,6,97,2,1
1,6,17,2,1
1,6,32,2,1
1,6,127,2,1
0,6,0,1,1
1,6,0,2,1
1,7,145,2,1
1,6,0,2,1
1,6,60,2,1
1,6,1,2,1
1,6,76,2,1
0,6,26,2,1
1,6,59,2,1
1,6,305,2,1
1,6,244,1,1
0,6,211,2,1
1,7,12,2,1
0,6,139,2,1
1,7,117,2,1
1,6,70,2,1
1,7,21,2,1
1,6,117,2,1
1,6,307,2,1
0,6,258,1,1
1,6,35,2,1
1,6,0,2,1
1,7,0,2,1
0,6,85,2,1
1,6,54,2,1
1,6,49,2,1
1,6,0,2,1
1,6,290,2,1
1,6,15,2,1
0,6,421,1,1
1,7,195,2,1
1,6,97,2,1
1,6,149,2,1
0,6,6,2,1
1,6,133,2,1
0,6,238,2,1
1,6,28,2,1
1,6,1,2,1
1,7,100,2,1
1,6,7,2,1
1,6,213,2,1
1,6,10,2,1
1,6,148,2,1
1,6,72,2,1
1,6,19,2,1
1,6,152,2,1
0,6,22,2,1
1,6,48,2,1
1,6,0,2,1
1,6,93,2,1
0,6,56,2,1
1,6,162,1,1
1,6,0,2,1
1,6,25,2,1
0,6,62,2,1
1,7,5,2,1
1,6,115,2,1
1,6,47,2,1
0,6,115,2,1
1,6,92,2,1
0,6,404,1,1
1,6,28,2,1
1,6,13,2,1
1,6,185,2,1
1,6,64,2,1
1,6,217,2,1
1,6,33,2,1
1,6,200,2,1
1,6,83,2,1
1,6,78,2,1
0,6,4,2,1
1,6,14,1,1
1,6,98,2,1
0,6,128,2,1
1,6,50,2,1
1,6,51,2,1
1,6,0,2,1
1,6,0,2,1
0,5,410,0,1
2,7,31,3,1
0,6,386,2,1
1,7,44,2,1
1,6,27,2,1
1,6,171,2,1
0,5,104,0,1
0,5,155,1,1
3,9,88,4,1
1,7,47,3,1
1,6,153,2,1
1,6,96,2,1
1,6,145,2,1
1,7,0,2,1
1,6,59,2,1
1,6,29,2,1
0,6,0,2,1
1,7,7,2,1
1,6,36,2,1
1,6,44,2,1
0,6,36,2,1
0,6,56,2,1
1,7,232,3,1
1,7,0,3,1
1,6,227,2,1
1,6,13,2,1
1,6,181,2,1
1,7,32,2,1
1,6,26,3,1
1,6,0,2,1
0,6,49,2,1
1,6,184,2,1
1,6,14,3,1
1,6,102,2,1
1,6,6,2,1
0,6,14,2,1
1,6,7,2,1
1,6,0,2,1
0,6,74,2,1
0,6,98,2,1
1,6,75,1,1
1,6,101,2,1
1,6,0,2,1
1,6,18,2,1
1,6,29,2,1
1,6,19,2,1
1,7,2,2,1
1,6,41,2,1
1,6,31,2,1
1,6,71,2,1
1,6,10,2,1
0,6,39,2,1
0,6,146,2,1
1,7,5,2,1
1,6,50,2,1
0,6,2,2,1
1,6,8,2,1
1,6,0,2,1
1,6,53,2,1
0,6,108,2,1
0,5,57,1,1
1,7,78,2,1
1,6,113,2,1
1,6,29,2,1
0,6,33,2,1
0,6,0,1,1
0,6,89,2,1
1,7,0,3,1
1,6,12,2,1
1,6,34,2,1
0,6,252,1,1
0,5,0,1,1
1,6,0,2,1
3,8,132,4,1
2,7,258,3,1
1,7,10,3,1
0,6,403,1,1
0,5,125,0,1
0,6,454,1,1
3,9,39,4,1
0,5,484,0,1
0,6,83,1,1
3,9,489,4,1
2,7,23,3,1
0,6,351,1,1
0,4,339,0,1
0,5,170,1,1
1,7,470,3,1
3,8,283,4,1
0,5,799,0,1
0,5,144,1,1
1,6,899,1,1
4,9,21,5,1
0,4,726,0,1
0,5,437,1,1
3,9,716,5,1
3,8,412,4,1
1,7,579,2,1
0,5,537,0,1
0,5,403,0,1
2,7,378,3,1
3,9,25,5,1
1,6,154,2,1
0,5,536,0,1
0,6,92,2,1
2,8,839,3,1
0,5,272,1,1
2,7,567,3,1
0,5,483,0,1
0,5,393,1,1
1,7,529,2,1
4,10,96,6,1
2,7,349,3,1
0,5,378,0,1
0,5,430,1,1
0,6,446,2,1
1,7,739,2,1
0,6,618,1,1
0,5,1023,0,1
1,6,622,2,1
4,9,367,5,1
0,5,881,0,1
0,5,44,1,1
0,6,833,1,1
5,11,323,7,1
0,5,791,0,1
0,5,499,0,1
1,6,497,2,1
6,12,345,8,1
0,5,526,0,1
0,5,360,0,1
0,5,705,1,1
5,11,316,6,1
0,5,660,1,1
0,6,227,1,1
0,6,637,1,1
2,7,0,3,1
0,5,928,1,1
0,5,812,1,1
0,5,1012,0,1
0,5,856,1,1
0,5,1000,0,1
0,5,901,0,1
0,5,898,1,1
1,7,730,3,1
2,7,91,3,1
0,6,550,1,1
1,7,180,3,1
1,6,217,2,1
1,7,81,3,1
0,6,688,1,1
2,7,286,3,1
2,7,908,2,1
2,7,757,3,1
5,10,0,7,1
1,6,916,2,1
0,5,99,1,1
0,6,97,2,1
4,10,45,6,1
2,8,152,4,1
0,5,147,0,1
0,5,538,1,1
1,7,135,2,1
0,6,884,1,1
2,7,408,2,1
0,5,702,1,1
4,10,284,6,1
1,6,594,1,1
0,5,628,1,1
0,5,388,1,1
1,7,88,3,1
2,7,325,3,1
0,5,184,1,1
0,5,4,1,1
0,6,375,1,1
1,6,91,2,1
0,6,606,1,1
1,6,2,2,1
1,6,138,2,1
0,6,527,1,1
1,6,304,1,1
0,5,584,1,1
2,7,99,3,1
1,6,858,1,1
1,6,197,2,1
0,6,671,1,1
1,7,178,3,1
1,6,611,1,1
1,6,264,2,1
1,7,216,2,1
0,5,315,1,1
0,6,263,1,1
1,6,0,2,1
1,6,463,2,1
1,6,464,2,1
1,6,543,1,1
1,6,700,2,1
1,7,513,2,1
1,7,152,3,1
1,6,752,1,1
1,6,51,2,1
0,6,237,1,1
0,3,1023,0,1
1,6,336,1,1
0,5,1023,1,1
1,7,249,2,1
0,6,267,1,1
0,5,1023,0,1
1,6,861,1,1
8,13,1004,8,1
0,6,1023,1,1
0,5,129,0,1
0,4,1023,0,1
2,8,157,4,1
0,5,469,1,1
0,5,1023,0,1
1,7,13,3,1
0,5,1023,2,1
5,10,12,6,1
2,8,1023,3,1
0,5,65,1,1
2,8,952,4,1
2,7,426,3,1
0,1,1023,0,1
0,5,430,0,1
2,8,1023,4,1
0,5,114,1,1
0,4,1023,0,1
0,5,110,1,1
2,8,1023,4,1
0,5,244,1,1
0,3,1023,0,1
0,5,124,0,1
3,8,1023,5,1
0,5,5,1,1
0,5,699,1,1
1,6,680,2,1
1,7,168,2,1
2,7,493,3,1
0,5,872,0,1
2,7,388,3,1
1,6,267,2,1
0,5,837,0,1
1,7,208,3,1
4,9,1023,5,1
0,5,1023,0,1
1,6,501,1,1
1,6,486,2,1
0,5,1023,1,1
2,7,108,3,1
1,7,1023,3,1
0,5,104,1,1
0,5,1023,2,1
0,5,795,1,1
5,10,1023,7,1
0,5,196,1,1
0,5,631,0,1
0,6,784,1,1
1,7,43,3,1
0,5,754,1,1
2,7,158,3,1
0,6,515,1,1
2,7,1023,3,1
0,5,1023,0,1
0,5,445,0,1
0,5,281,0,1
1,6,0,1,1
4,9,1023,4,1
0,5,282,1,1
0,6,18,2,1
0,6,926,1,1
1,6,243,2,1
1,6,618,2,1
1,6,399,2,1
1,7,1023,3,1
1,6,138,2,1
0,6,995,1,1
1,7,445,2,1
0,5,1023,2,1
0,5,189,0,1
0,5,569,1,1
1,6,303,2,1
0,6,165,2,1
0,6,476,1,1
1,7,166,2,1
0,6,514,1,1
0,6,750,1,1
0,6,955,1,1
1,7,339,2,1
0,6,781,1,1
2,7,7,3,1
0,6,273,1,1
1,6,35,2,1
1,6,293,2,1
1,7,68,2,1
0,6,397,1,1
1,6,500,1,1
2,7,138,3,1
1,6,187,2,1
1,6,6,2,1
1,7,66,2,1
0,6,597,2,1
0,6,95,2,1
0,6,545,1,1
1,7,138,2,1
0,6,318,2,1
1,7,32,2,1
1,6,211,2,1
0,6,270,2,1
1,6,1,2,1
1,7,303,2,1
1,6,31,3,1
1,6,36,2,1
1,7,35,2,1
1,7,160,2,1
0,6,212,1,1
1,6,131,2,1
1,6,329,2,1
1,6,88,2,1
1,6,86,2,1
1,6,327,2,1
0,6,242,2,1
0,6,7,2,1
1,6,0,2,1
1,6,238,2,1
0,6,315,1,1
1,6,405,2,1
1,7,95,2,1
1,6,122,2,1
0,6,271,2,1
1,7,123,2,1
1,6,305,1,1
0,6,113,2,1
1,6,58,2,1
1,6,105,2,1
0,6,0,2,1
1,6,110,2,1
1,6,7,2,1
0,6,292,1,1
0,6,231,2,1
1,7,55,3,1
1,6,128,2,1
0,6,0,2,1
1,6,13,2,1
0,6,159,2,1
0,6,127,2,1
1,7,43,2,1
1,7,208,2,1
0,6,77,2,1
1,6,0,2,1
1,6,0,2,1
1,6,24,2,1
0,6,30,2,1
1,6,68,2,1
1,6,79,2,1
0,6,54,2,1
0,6,360,2,1
1,7,327,2,1
0,6,389,1,1
1,6,14,2,1
1,6,211,2,1
1,6,203,2,1
1,6,160,2,1
1,6,177,2,1
1,7,0,2,1
0,6,112,2,1
1,6,21,2,1
1,6,258,2,1
0,6,214,1,1
1,6,140,2,1
1,6,0,2,1
1,6,248,2,1
0,6,75,2,1
0,6,284,2,1
1,6,80,2,1
0,6,243,1,1
1,6,322,2,1
0,6,537,1,1
1,6,310,2,1
1,6,63,3,1
1,7,331,2,1
1,6,207,2,1
1,6,376,1,1
1,6,46,3,1
0,6,361,2,1
0,6,77,2,1
1,7,119,2,1
0,6,26,2,1
1,6,106,2,1
1,6,271,2,1
1,6,56,2,1
1,6,313,2,1
0,6,12,2,1
1,7,217,2,1
1,6,112,2,1
0,6,376,1,1
1,7,59,2,1
1,6,195,2,1
0,6,162,2,1
0,6,216,2,1
1,6,84,2,1
1,6,45,2,1
1,6,6,2,1
1,6,254,2,1
1,6,292,2,1
0,5,484,1,1
1,6,287,2,1
1,7,36,3,1
1,6,215,2,1
1,6,418,2,1
1,6,330,2,1
1,6,238,2,1
1,6,72,2,1
1,6,179,2,1
0,6,309,1,1
1,7,96,2,1
1,7,0,2,1
1,7,189,2,1
1,6,112,2,1
1,6,54,2,1
1,7,23,3,1
1,6,170,2,1
1,6,0,2,1
0,6,23,2,1
0,6,341,1,1
1,6,344,2,1
1,6,367,1,1
1,7,116,2,1
1,6,113,2,1
0,6,401,1,1
1,6,193,2,1
1,6,0,2,1
0,6,159,2,1
1,6,112,2,1
1,7,0,2,1
1,6,139,2,1
1,6,273,2,1
1,6,195,2,1
0,6,236,2,1
1,6,3,3,1
1,6,325,2,1
1,6,204,2,1
0,6,206,2,1
1,6,138,2,1
1,6,36,2,1
0,6,83,2,1
1,6,352,1,1
1,7,112,2,1
1,6,392,1,1
1,6,193,2,1
1,6,232,2,1
0,6,405,1,1
0,6,228,2,1
0,6,320,1,1
0,6,114,2,1
1,6,9,2,1
0,6,153,2,1
1,6,136,2,1
0,6,68,2,1
1,6,27,2,1
1,7,246,2,1
1,6,97,2,1
1,6,160,2,1
1,6,309,2,1
1,6,12,2,1
1,6,72,2,1
0,6,45,2,1
1,6,66,2,1
0,6,66,2,1
1,6,229,2,1
1,7,31,2,1
0,6,247,2,1
0,6,0,2,1
1,6,109,2,1
0,6,64,2,1
1,6,174,2,1
1,6,55,2,1
1,6,30,2,1
1,6,419,2,1
1,6,261,2,1
0,6,326,1,1
1,6,165,2,1
1,6,49,2,1
0,6,27,2,1
1,6,231,2,1
0,6,95,2,1
1,6,241,2,1
1,6,225,2,1
0,6,99,2,1
0,6,292,1,1
1,7,112,2,1
1,6,28,2,1
0,6,25,2,1
1,6,402,2,1
1,6,148,2,1
1,7,10,3,1
1,7,30,2,1
1,6,30,2,1
1,6,189,2,1
1,6,120,2,1
0,6,76,2,1
0,6,103,2,1
0,6,265,1,1
1,6,6,2,1
0,6,368,1,1
1,6,280,2,1
1,6,67,3,1
1,6,224,2,1
1,6,0,2,1
1,6,175,2,1
1,6,162,2,1
1,6,9,2,1
0,6,17,1,1
1,6,51,2,1
1,6,88,3,1
0,6,20,2,1
0,6,270,2,1
1,6,84,2,1
1,6,237,2,1
1,6,145,2,1
1,6,148,2,1
1,6,88,2,1
0,6,77,2,1
1,6,269,2,1
1,6,62,2,1
0,6,62,2,1
1,6,111,2,1
1,6,47,2,1
0,6,363,1,1
1,6,90,2,1
1,6,292,2,1
0,6,7,2,1
0,6,231,2,1
1,6,28,2,1
1,6,149,2,1
1,6,19,2,1
1,6,148,2,1
1,6,134,2,1
0,6,20,2,1
0,6,202,2,1
1,6,322,2,1
1,6,412,2,1
0,6,322,2,1
1,7,82,2,1
1,6,184,1,1
0,6,54,2,1
1,6,0,3,1
1,6,167,2,1
1,6,17,2,1
1,6,0,2,1
1,6,108,2,1
1,6,121,2,1
1,6,3,2,1
1,7,23,2,1
1,6,18,2,1
0,6,61,2,1
1,6,44,2,1
1,7,22,2,1
1,6,139,2,1
1,6,9,2,1
1,6,59,2,1
1,7,11,2,1
1,6,0,2,1
1,6,86,2,1
1,6,0,2,1
1,6,84,2,1
1,6,128,2,1
1,7,37,2,1
1,6,17,2,1
1,6,140,2,1
0,6,0,2,1
1,6,12,2,1
0,6,5,2,1
1,6,0,2,1
1,6,0,2,1
1,7,0,2,1
1,6,11,2,1
1,6,215,2,1
0,6,25,2,1
1,6,266,2,1
1,6,139,2,1
0,6,29,2,1
0,6,58,2,1
1,6,39,2,1
0,6,17,2,1
0,6,0,2,1
1,6,107,2,1
1,6,69,2,1
1,6,245,2,1
1,6,27,2,1
1,6,485,1,1
0,6,334,1,1
0,6,444,1,1
1,7,431,2,1
1,6,93,2,1
1,6,26,2,1
1,6,122,2,1
1,6,57,2,1
0,6,0,2,1
1,6,34,2,1
1,6,59,2,1
0,6,154,2,1
1,6,27,1,1
1,6,205,2,1
0,6,328,2,1
1,7,99,2,1
1,6,362,2,1
1,6,131,2,1
0,6,21,2,1
0,6,65,2,1
1,6,279,2,1
1,6,63,2,1
0,6,299,2,1
1,6,313,1,1
0,6,638,1,1
0,5,345,0,1
2,7,633,3,1
1,7,277,3,1
1,7,218,2,1
0,6,95,2,1
1,6,176,2,1
1,6,202,2,1
0,6,594,1,1
0,5,2,0,1
0,5,593,0,1
3,9,175,4,1
1,6,836,1,1
1,7,220,2,1
0,5,797,1,1
1,7,452,2,1
1,6,588,2,1
0,5,446,0,1
0,5,335,1,1
2,7,380,4,1
2,7,0,3,1
1,6,435,2,1
0,6,522,1,1
1,6,253,2,1
0,6,582,1,1
1,7,208,2,1
0,4,844,0,1
0,5,611,0,1
1,6,645,2,1
4,10,212,5,1
0,6,578,1,1
0,5,35,1,1
0,6,557,1,1
1,6,148,2,1
0,5,855,0,1
0,6,486,1,1
0,5,994,1,1
3,8,461,4,1
1,7,136,2,1
0,5,1023,0,1
0,5,164,0,1
0,5,952,0,1
5,11,474,7,1
2,7,611,3,1
0,5,368,0,1
0,5,247,1,1
5,10,209,6,1
2,7,102,3,1
0,5,315,0,1
0,5,344,0,1
2,7,52,3,1
4,9,525,5,1
0,6,93,1,1
0,5,385,0,1
1,6,162,2,1
1,6,243,1,1
1,6,303,2,1
1,7,200,2,1
0,6,589,1,1
0,6,203,2,1
1,7,100,3,1
1,6,290,2,1
1,7,0,2,1
2,7,10,3,1
1,7,115,3,1
0,6,272,2,1
6,12,131,8,1
1,7,223,2,1
0,5,18,1,1
1,7,22,3,1
7,12,16,8,1
2,7,491,3,1
1,6,395,2,1
0,5,273,0,1
2,7,818,3,1
0,6,636,1,1
3,8,1023,4,1
1,6,756,2,1
1,6,63,2,1
1,6,721,2,1
0,4,90,0,1
0,5,322,1,1
3,8,321,5,1
2,7,108,4,1
0,5,196,0,1
0,5,362,1,1
0,5,658,1,1
0,5,1023,0,1
2,7,518,4,1
1,7,14,3,1
0,5,989,0,1
1,6,412,1,1
0,5,849,1,1
1,7,51,3,1
2,7,296,3,1
0,5,824,0,1
0,5,164,1,1
0,5,1004,0,1
3,8,77,4,1
0,6,871,1,1
1,7,348,2,1
0,6,763,1,1
1,6,703,2,1
1,6,707,1,1
11,16,1023,11,1
0,6,1023,3,1
2,7,85,3,1
0,5,125,1,1
1,6,269,2,1
0,5,1005,0,1
0,6,91,1,1
1,6,852,1,1
2,7,159,3,1
0,5,1023,0,1
1,7,537,2,1
0,6,890,1,1
4,9,0,5,1
1,7,765,2,1
0,5,266,0,1
0,5,392,1,1
1,6,670,1,1
0,6,849,1,1
2,7,645,2,1
0,5,1023,1,1
1,6,23,2,1
0,5,1023,0,1
1,6,672,2,1
1,6,623,2,1
1,7,149,3,1
10,15,1023,12,1
0,5,361,1,1
6,12,1023,8,1
0,5,179,0,1
4,9,1023,5,1
0,5,901,1,1
0,5,1023,1,1
0,6,9,2,1
0,5,808,1,1
2,7,1023,3,1
0,2,1023,0,1
2,7,417,3,1
0,5,355,1,1
4,10,1023,6,1
0,5,786,0,1
5,11,1023,6,1
0,5,145,0,1
3,9,1023,5,1
0,5,1023,1,1
0,5,1023,1,1
0,5,0,0,1
0,5,1023,1,1
0,5,1023,2,1
0,6,1023,2,1
0,5,339,0,1
0,5,690,0,1
0,5,795,1,1
1,6,753,2,1
1,7,127,2,1
0,6,373,1,1
1,6,485,2,1
1,6,121,2,1
0,5,331,1,1
1,6,594,2,1
4,10,1023,5,1
0,3,1023,0,1
0,5,887,0,1
0,1,1023,0,1
0,5,1023,0,1
4,10,1023,6,1
1,6,442,2,1
0,5,1023,0,1
0,5,893,0,1
0,4,1023,0,1
0,5,286,1,1
0,5,361,1,1
3,9,1023,5,1
0,5,447,1,1
10,15,1023,11,1
0,6,158,2,1
10,16,1023,12,1
0,2,1023,0,1
0,5,336,1,1
0,4,702,0,1
0,5,477,1,1
0,5,148,0,1
0,2,1023,0,1
1,6,367,2,1
0,6,569,1,1
0,5,872,1,1
0,5,1023,1,1
0,6,329,1,1
0,5,556,1,1
1,6,484,2,1
1,7,0,3,1
0,5,614,1,1
1,6,14,2,1
0,6,732,1,1
1,7,124,2,1
1,6,40,2,1
1,7,131,2,1
0,6,972,1,1
1,6,121,2,1
1,6,504,1,1
1,7,82,3,1
1,6,50,2,1
1,6,53,2,1
1,7,228,2,1
1,6,65,2,1
0,6,429,1,1
1,6,467,2,1
2,7,179,3,1
0,6,509,1,1
1,6,469,2,1
1,6,24,2,1
0,6,253,2,1
1,6,38,2,1
1,7,0,2,1
1,6,88,2,1
1,6,4,2,1
0,6,534,1,1
1,6,201,2,1
0,6,307,1,1
1,6,172,2,1
1,6,90,2,1
1,6,95,2,1
0,6,183,2,1
1,6,141,2,1
1,6,32,2,1
1,6,0,2,1
1,6,293,2,1
1,6,1,2,1
0,6,119,2,1
1,6,309,2,1
1,6,51,2,1
0,6,261,1,1
1,6,172,2,1
1,7,259,2,1
0,6,0,2,1
0,6,39,2,1
1,7,36,3,1
1,6,84,2,1
0,6,132,2,1
1,6,110,2,1
1,6,48,2,1
0,6,56,2,1
1,6,256,2,1
1,7,368,2,1
0,6,0,2,1
1,6,131,2,1
1,6,402,2,1
1,6,180,2,1
0,6,123,2,1
1,6,230,2,1
1,7,108,2,1
1,6,183,2,1
1,6,148,2,1
1,7,29,2,1
0,6,127,2,1
1,6,179,2,1
1,6,333,2,1
1,6,48,2,1
1,6,100,2,1
1,6,196,1,1
1,7,47,2,1
0,6,68,2,1
1,6,114,2,1
1,7,107,2,1
1,6,226,1,1
0,6,88,2,1
1,7,12,2,1
1,6,19,2,1
0,6,33,2,1
1,6,27,2,1
1,7,27,2,1
0,6,47,2,1
0,6,64,2,1
1,6,254,2,1
1,6,0,2,1
0,5,637,1,1
1,6,180,2,1
1,6,319,2,1
0,5,510,1,1
1,6,139,2,1
1,7,4,2,1
1,6,165,2,1
1,6,295,2,1
1,6,151,2,1
0,6,343,2,1
1,6,247,2,1
1,7,263,2,1
1,6,125,2,1
0,6,405,1,1
1,7,3,3,1
1,6,65,2,1
0,6,265,2,1
0,6,27,2,1
1,6,135,2,1
1,6,305,2,1
1,6,471,1,1
1,7,72,3,1
1,6,113,2,1
0,6,79,1,1
0,6,364,2,1
1,7,30,3,1
0,6,10,2,1
1,6,16,2,1
1,7,66,2,1
1,6,0,2,1
0,6,226,2,1
1,6,191,2,1
1,7,96,2,1
0,6,414,1,1
1,6,123,2,1
1,7,41,2,1
0,6,68,2,1
1,6,0,2,1
1,6,1,2,1
0,6,185,1,1
0,6,132,2,1
1,6,54,2,1
0,6,0,2,1
1,6,173,2,1
0,6,97,2,1
0,6,158,2,1
1,6,192,2,1
1,6,43,2,1
1,6,28,2,1
0,6,53,2,1
0,6,30,2,1
1,6,0,3,1
0,6,10,2,1
1,6,127,2,1
1,7,30,2,1
1,6,37,3,1
1,6,14,2,1
0,5,155,1,1
1,7,71,2,1
1,6,188,2,1
1,6,51,2,1
1,7,0,2,1
1,6,107,2,1
0,6,66,2,1
1,7,44,2,1
1,6,0,2,1
1,6,210,2,1
1,6,38,2,1
1,6,97,2,1
1,6,356,2,1
0,6,82,2,1
1,6,61,2,1
1,6,127,2,1
0,6,213,1,1
1,6,105,2,1
0,6,188,2,1
0,6,49,2,1
1,7,217,2,1
1,6,84,2,1
0,5,185,1,1
1,7,195,3,1
1,6,82,2,1
1,6,127,2,1
1,6,165,2,1
1,6,26,2,1
1,6,87,2,1
0,6,125,1,1
0,6,63,2,1
1,7,7,2,1
1,6,6,2,1
0,6,288,1,1
1,7,204,3,1
1,6,231,2,1
1,6,116,2,1
0,6,298,1,1
1,7,0,3,1
1,6,199,2,1
1,6,36,2,1
1,6,192,2,1
1,6,0,2,1
1,6,0,2,1
1,7,65,2,1
1,6,99,2,1
1,6,0,2,1
1,6,0,2,1
1,7,57,3,1
1,6,0,2,1
1,6,114,2,1
1,6,140,2,1
1,6,270,2,1
1,6,319,2,1
1,7,263,2,1
1,6,27,2,1
0,5,277,1,1
1,6,154,2,1
1,6,83,2,1
1,6,276,1,1
1,6,95,2,1
1,6,66,2,1
1,6,14,2,1
1,6,37,2,1
1,6,160,2,1
1,6,151,2,1
0,6,95,1,1
1,6,41,2,1
1,6,96,2,1
0,6,104,2,1
1,6,269,1,1
1,6,304,2,1
0,6,493,2,1
1,7,7,3,1
1,6,384,2,1
1,7,147,2,1
0,6,63,2,1
1,6,74,2,1
1,6,105,2,1
0,6,120,2,1
1,6,149,1,1
0,6,0,2,1
1,6,25,2,1
1,7,12,2,1
1,6,76,2,1
1,6,166,2,1
0,6,98,1,1
1,7,195,2,1
1,7,55,2,1
0,6,91,2,1
1,6,69,2,1
1,6,452,1,1
1,6,78,2,1
1,6,75,2,1
1,6,166,2,1
1,6,79,2,1
1,7,194,2,1
1,6,31,2,1
1,7,16,2,1
1,6,1,2,1
1,6,116,2,1
1,7,47,2,1
1,6,0,3,1
0,6,0,2,1
1,7,0,3,1
1,6,3,2,1
1,7,0,2,1
1,6,9,2,1
1,6,23,2,1
1,6,89,2,1
1,6,178,2,1
1,6,17,2,1
1,6,0,2,1
1,6,9,2,1
1,7,0,3,1
1,6,38,2,1
1,6,33,2,1
1,6,46,2,1
1,6,28,2,1
0,6,81,2,1
1,6,60,2,1
1,6,159,2,1
1,6,7,2,1
1,6,44,2,1
1,6,36,2,1
0,6,144,2,1
1,6,47,2,1
1,7,0,2,1
1,6,33,2,1
1,6,0,2,1
1,6,107,2,1
1,6,49,2,1
0,6,21,1,1
1,6,171,2,1
1,6,35,2,1
0,6,0,1,1
1,6,0,2,1
1,6,0,2,1
1,6,10,2,1
1,6,47,2,1
1,6,0,2,1
1,6,137,2,1
0,6,0,2,1
0,6,59,2,1
0,6,123,2,1
0,5,97,2,1
0,6,36,2,1
1,7,15,2,1
1,6,58,2,1
0,6,28,2,1
1,6,29,2,1
1,6,93,2,1
1,6,138,2,1
1,6,175,2,1
1,6,153,2,1
0,6,10,2,1
0,6,202,2,1
1,6,227,2,1
1,6,196,2,1
1,7,0,2,1
1,6,78,2,1
1,6,157,2,1
0,6,25,2,1
0,6,121,2,1
1,6,456,2,1
0,6,9,2,1
0,5,685,1,1
1,7,103,3,1
1,6,516,1,1
1,6,19,2,1
0,6,392,2,1
1,7,230,2,1
0,6,610,1,1
1,6,159,2,1
0,6,701,1,1
1,6,602,2,1
2,7,928,3,1
0,5,749,1,1
3,9,1023,4,1
0,6,133,2,1
0,5,1023,1,1
1,6,317,2,1
0,6,680,1,1
1,6,102,2,1
1,6,758,1,1
1,6,334,2,1
0,5,786,1,1
2,7,223,3,1
1,6,360,2,1
0,6,530,1,1
0,5,47,1,1
1,7,255,2,1
1,6,192,2,1
1,6,371,1,1
1,6,50,2,1
0,5,484,1,1
1,7,43,2,1
0,5,802,1,1
0,5,46,1,1
3,8,855,4,1
1,6,613,2,1
1,6,704,2,1
1,6,601,2,1
0,5,303,0,1
0,5,585,0,1
4,10,290,5,1
1,6,384,2,1
1,6,55,2,1
1,6,273,2,1
1,6,2,2,1
0,4,773,0,1
0,5,245,1,1
3,8,671,4,1
3,9,33,5,1
1,6,536,2,1
0,5,447,0,1
0,6,984,1,1
3,8,896,4,1
0,4,1023,0,1
1,7,356,2,1
0,5,406,0,1
6,12,158,8,1
1,7,1023,1,1
0,5,219,0,1
0,5,1023,0,1
7,13,361,9,1
2,7,715,3,1
2,7,316,3,1
0,5,179,1,1
0,6,381,1,1
0,3,1023,0,1
0,5,817,0,1
1,7,1023,3,1
0,5,744,1,1
0,5,850,0,1
3,7,1023,2,1
0,5,494,1,1
0,5,877,0,1
1,7,7,3,1
4,10,1023,5,1
0,5,165,0,1
1,7,1023,2,1
0,5,524,1,1
0,5,963,0,1
1,7,274,2,1
0,6,399,1,1
0,6,213,2,1
0,5,1012,0,1
1,6,776,1,1
0,6,570,1,1
1,6,394,2,1
1,6,646,2,1
1,7,5,2,1
3,9,1023,4,1
0,6,542,1,1
1,6,756,1,1
1,6,539,2,1
1,6,246,2,1
2,7,291,3,1
1,6,582,2,1
3,8,913,3,1
1,7,1023,3,1
0,6,857,1,1
1,7,590,2,1
0,5,975,0,1
0,5,825,0,1
6,11,270,7,1
1,6,1023,1,1
4,9,1023,4,1
1,6,1023,3,1
0,5,1023,1,1
0,4,809,0,1
0,5,678,1,1
0,5,778,1,1
2,7,474,3,1
2,7,725,2,1
4,10,1023,6,1
0,5,742,0,1
4,9,1021,5,1
1,6,186,2,1
4,10,1023,6,1
0,5,1023,1,1
3,8,1023,4,1
0,5,4,1,1
0,5,1023,0,1
0,5,722,0,1
0,3,1023,0,1
2,7,296,3,1
0,1,1023,0,1
0,5,652,0,1
0,2,1023,0,1
0,5,684,1,1
0,5,383,1,1
5,11,1023,7,1
0,1,1023,0,1
3,8,1023,4,1
0,5,135,1,1
0,2,1023,0,1
1,7,164,3,1
0,5,1023,1,1
0,6,261,1,1
0,5,1023,1,1
0,4,247,1,1
6,11,1023,7,1
0,6,532,1,1
0,6,300,1,1
0,5,953,0,1
1,7,67,3,1
3,8,1023,4,1
0,5,296,1,1
0,5,994,0,1
1,6,478,2,1
0,6,669,1,1
1,6,765,2,1
2,7,68,3,1
1,6,326,1,1
0,6,189,2,1
0,6,642,2,1
1,7,240,3,1
1,6,182,2,1
1,6,115,2,1
1,6,298,2,1
0,6,429,2,1
0,6,2,2,1
1,6,226,2,1
1,6,136,2,1
0,6,467,1,1
1,7,476,2,1
1,6,711,1,1
0,6,744,1,1
0,6,961,1,1
2,8,17,4,1
3,9,477,4,1
0,5,693,0,1
1,6,425,2,1
1,7,117,3,1
1,6,136,2,1
0,6,657,2,1
2,7,686,3,1
2,8,1023,5,1
0,5,369,0,1
0,2,1023,0,1
0,5,343,0,1
7,13,1023,9,1
0,5,300,0,1
0,5,615,1,1
0,6,200,1,1
1,7,114,2,1
1,6,205,2,1
0,5,623,1,1
1,7,248,2,1
1,7,155,3,1
1,6,431,1,1
15,20,1023,16,1
7,12,1023,8,1
1,7,634,3,1
0,5,272,0,1
0,6,284,1,1
1,6,304,2,1
0,6,206,1,1
1,6,141,2,1
1,6,540,2,1
1,6,25,2,1
0,6,446,1,1
2,7,72,3,1
1,6,241,2,1
0,6,251,2,1
1,6,267,2,1
0,6,205,2,1
0,6,371,1,1
1,6,566,2,1
1,7,833,2,1
1,7,159,2,1
0,6,739,1,1
2,7,37,3,1
1,6,366,1,1
0,6,166,2,1
1,6,102,2,1
1,6,0,2,1
0,6,74,2,1
1,6,24,2,1
1,7,24,2,1
0,6,0,2,1
0,6,356,1,1
1,7,8,2,1
1,6,82,2,1
0,6,53,2,1
1,6,159,2,1
1,6,113,2,1
0,6,323,1,1
1,6,93,2,1
1,7,94,3,1
1,6,25,2,1
0,5,421,1,1
1,7,214,2,1
0,6,196,2,1
0,6,461,1,1
1,6,54,2,1
1,6,64,2,1
0,6,99,2,1
1,6,304,2,1
1,7,206,2,1
1,6,156,1,1
0,6,26,2,1
1,6,273,2,1
1,7,166,2,1
1,6,63,2,1
1,7,120,2,1
1,6,261,2,1
0,5,120,1,1
1,7,153,2,1
1,7,85,2,1
1,6,47,2,1
1,6,181,2,1
1,7,93,2,1
1,6,10,2,1
0,6,165,2,1
1,7,11,3,1
1,6,13,2,1
0,6,0,2,1
1,6,24,2,1
1,6,60,2,1
1,6,102,2,1
0,6,64,2,1
1,6,262,1,1
1,6,240,2,1
0,6,357,1,1
1,7,342,2,1
1,7,119,2,1
0,6,79,2,1
1,6,190,2,1
1,7,1,2,1
1,6,10,2,1
0,6,367,1,1
1,6,245,2,1
1,6,107,1,1
0,6,217,1,1
1,6,3,2,1
0,6,48,2,1
1,6,0,2,1
1,6,153,2,1
1,6,202,2,1
0,6,232,1,1
0,6,327,2,1
1,7,171,2,1
1,6,150,2,1
1,6,0,2,1
1,6,248,2,1
1,7,0,2,1
0,6,162,2,1
1,6,33,2,1
0,6,590,1,1
0,6,730,1,1
1,7,40,2,1
1,6,7,2,1
1,6,145,2,1
0,6,227,2,1
1,6,133,2,1
0,6,115,2,1
0,6,366,1,1
1,6,220,2,1
1,6,107,2,1
1,6,13,2,1
0,6,45,2,1
1,6,160,2,1
1,6,5,3,1
0,6,141,2,1
1,6,155,2,1
1,6,133,2,1
0,6,35,2,1
1,6,0,2,1
1,7,164,2,1
1,6,6,2,1
1,6,49,2,1
1,6,18,2,1
1,6,17,2,1
0,6,298,2,1
1,6,256,2,1
1,6,154,2,1
1,6,139,2,1
1,6,70,2,1
1,6,32,2,1
0,5,520,1,1
1,7,9,2,1
1,6,333,2,1
1,6,413,1,1
0,6,244,1,1
1,6,231,2,1
1,7,1,2,1
1,6,241,2,1
0,6,222,2,1
1,6,95,2,1
1,6,139,2,1
1,6,238,2,1
1,6,223,1,1
0,6,269,1,1
0,6,419,1,1
1,7,6,3,1
1,6,26,2,1
0,6,94,2,1
1,6,214,2,1
1,7,59,3,1
1,7,181,2,1
1,6,111,2,1
1,6,124,2,1
1,6,20,2,1
0,6,61,1,1
0,6,0,2,1
0,6,15,2,1
0,6,245,2,1
1,6,282,1,1
1,6,408,1,1
1,6,226,2,1
0,6,115,2,1
1,6,178,2,1
1,6,59,2,1
1,6,36,2,1
1,6,183,2,1
1,7,12,2,1
1,6,192,2,1
1,7,110,2,1
1,7,111,2,1
0,6,196,1,1
0,6,199,2,1
1,6,108,2,1
0,6,15,2,1
1,6,200,2,1
1,6,2,2,1
1,6,219,2,1
0,6,210,2,1
1,7,62,2,1
1,7,70,2,1
1,6,148,2,1
1,6,180,2,1
1,6,35,2,1
0,6,162,2,1
0,6,67,2,1
0,6,204,2,1
0,6,169,1,1
0,6,39,2,1
1,6,28,2,1
0,6,148,2,1
0,6,27,2,1
1,6,102,2,1
1,6,202,2,1
1,6,161,2,1
0,6,39,2,1
1,7,9,2,1
1,6,339,1,1
1,6,171,2,1
1,6,40,2,1
1,7,138,2,1
1,6,22,2,1
0,6,70,2,1
1,6,2,2,1
0,6,21,2,1
1,6,148,2,1
1,6,0,2,1
1,7,4,3,1
0,6,72,1,1
1,6,206,2,1
1,6,147,2,1
1,6,0,2,1
0,6,290,1,1
0,6,35,2,1
1,6,208,2,1
0,6,470,1,1
0,6,111,2,1
0,6,490,1,1
1,6,116,2,1
1,6,519,2,1
1,7,133,3,1
0,6,238,2,1
1,6,105,2,1
1,6,68,2,1
1,6,0,2,1
1,6,33,2,1
0,6,154,2,1
1,7,0,2,1
0,6,23,2,1
0,6,244,2,1
0,6,149,2,1
1,6,258,2,1
1,6,291,1,1
1,6,237,2,1
0,6,270,1,1
1,6,2,2,1
1,6,136,2,1
1,6,45,2,1
1,6,0,2,1
1,6,41,2,1
1,6,137,2,1
1,6,0,2,1
0,6,155,2,1
1,7,2,2,1
1,6,59,2,1
0,6,93,1,1
1,7,26,2,1
1,6,284,2,1
1,6,22,2,1
0,6,186,2,1
1,6,80,2,1
1,6,94,2,1
1,7,22,2,1
1,6,25,2,1
1,6,114,2,1
0,6,179,2,1
1,7,217,2,1
1,7,118,2,1
1,6,13,2,1
1,6,93,2,1
1,6,66,2,1
1,7,25,3,1
1,6,0,2,1
1,6,41,2,1
1,6,0,2,1
1,7,0,3,1
1,6,121,2,1
1,6,18,2,1
1,6,204,2,1
1,7,107,3,1
4,9,174,5,1
0,5,94,1,1
0,5,0,1,1
1,6,345,2,1
1,6,31,2,1
0,5,401,1,1
1,7,18,3,1
1,6,42,2,1
1,6,16,2,1
0,6,51,2,1
0,6,83,2,1
0,6,41,2,1
1,6,35,2,1
1,6,101,2,1
0,6,408,1,1
0,6,180,2,1
1,6,249,2,1
1,7,156,2,1
1,6,51,2,1
0,6,514,1,1
0,6,498,1,1
0,6,394,1,1
1,6,455,2,1
1,7,258,3,1
0,6,299,1,1
0,6,157,1,1
1,6,285,2,1
1,6,38,2,1
0,6,56,2,1
1,7,244,2,1
1,7,112,2,1
0,6,28,2,1
1,6,0,2,1
1,6,69,2,1
1,6,177,1,1
1,6,140,2,1
0,6,133,2,1
1,6,243,2,1
1,6,293,2,1
1,7,94,2,1
0,6,584,1,1
0,6,306,2,1
0,6,685,1,1
1,7,179,3,1
1,6,346,2,1
1,6,87,2,1
0,6,45,1,1
1,6,121,2,1
1,6,64,2,1
1,6,541,1,1
1,6,8,2,1
0,5,803,0,1
1,7,120,3,1
1,6,133,2,1
0,5,806,1,1
1,7,136,2,1
0,5,589,1,1
0,6,665,1,1
1,6,608,2,1
5,10,1011,5,1
0,5,704,1,1
0,5,1023,1,1
2,7,123,3,1
1,6,340,2,1
1,6,443,2,1
1,6,261,2,1
0,6,234,2,1
0,6,302,1,1
0,6,478,1,1
1,6,439,2,1
0,6,517,1,1
0,6,540,1,1
1,6,624,2,1
1,6,174,3,1
0,6,682,1,1
1,6,153,2,1
1,6,420,2,1
0,6,577,2,1
0,6,44,2,1
1,6,27,2,1
1,7,102,2,1
0,6,268,1,1
0,6,680,1,1
1,6,587,2,1
0,6,778,1,1
0,6,738,2,1
2,7,126,3,1
0,6,981,1,1
1,6,454,2,1
1,6,426,2,1
2,7,104,3,1
1,6,698,2,1
1,7,529,2,1
0,6,789,1,1
1,7,346,3,1
1,7,780,2,1
1,7,668,2,1
0,6,809,1,1
1,7,533,2,1
1,7,588,2,1
1,6,505,2,1
0,6,483,2,1
1,7,15,3,1
1,7,282,3,1
1,6,302,2,1
1,6,7,2,1
1,6,65,2,1
0,6,386,1,1
1,6,331,2,1
1,7,10,2,1
0,6,116,2,1
1,6,32,2,1
1,6,235,1,1
0,5,549,1,1
1,6,148,3,1
0,6,630,1,1
1,6,387,2,1
0,6,608,1,1
1,6,411,2,1
0,6,422,2,1
0,6,817,1,1
2,7,727,3,1
1,6,466,2,1
0,6,1023,1,1
1,7,413,2,1
0,4,1023,0,1
0,6,616,1,1
0,5,351,1,1
0,5,1023,1,1
1,6,161,2,1
1,6,886,1,1
1,7,157,2,1
0,6,770,1,1
1,6,608,2,1
0,6,247,1,1
5,10,1023,6,1
0,5,13,0,1
0,5,644,1,1
1,6,13,2,1
1,6,82,2,1
0,6,210,1,1
0,6,373,2,1
1,6,30,2,1
0,6,571,1,1
1,6,15,2,1
0,6,438,1,1
1,6,408,2,1
1,6,256,2,1
1,6,408,2,1
0,5,787,1,1
0,6,801,1,1
0,6,1023,1,1
0,6,324,1,1
0,5,673,1,1
1,6,272,2,1
1,7,247,2,1
1,6,779,2,1
2,7,3,3,1
0,5,799,0,1
3,9,73,5,1
0,6,1023,1,1
0,6,158,1,1
1,6,1023,1,1
2,8,209,4,1
0,5,1023,0,1
0,5,129,1,1
3,8,1023,4,1
0,5,288,0,1
0,5,833,0,1
0,6,770,1,1
1,6,628,2,1
0,5,727,0,1
2,8,80,4,1
0,5,1023,0,1
3,7,1023,2,1
2,8,1023,4,1
0,5,739,1,1
0,6,70,1,1
0,5,1023,0,1
0,5,838,0,1
0,2,1023,0,1
1,7,284,2,1
0,5,538,0,1
7,12,1023,7,1
0,2,1023,0,1
1,6,1023,2,1
0,5,70,0,1
1,7,1023,2,1
3,8,1023,3,1
0,6,1023,1,1
0,5,139,1,1
0,5,106,1,1
0,5,929,0,1
1,7,548,2,1
0,4,1023,0,1
1,7,0,2,1
0,4,1023,0,1
3,8,991,3,1
0,4,1023,0,1
0,5,309,1,1
1,7,1023,3,1
0,5,869,0,1
2,8,1023,3,1
0,5,247,1,1
0,5,950,0,1
1,6,213,2,1
1,6,271,2,1
1,6,176,2,1
0,5,929,0,1
2,7,202,3,1
1,6,688,1,1
0,6,785,1,1
1,7,264,2,1
7,13,1023,9,1
0,5,511,0,1
0,6,39,1,1
1,6,365,2,1
1,6,406,2,1
1,6,58,2,1
1,6,252,2,1
2,7,131,3,1
1,6,60,2,1
0,5,593,1,1
1,7,167,2,1
1,6,7,2,1
0,5,601,1,1
1,6,219,2,1
0,6,238,2,1
1,6,289,1,1
1,6,364,2,1
1,7,28,3,1
1,6,15,2,1
1,6,58,2,1
1,7,401,2,1
1,6,406,2,1
0,6,469,1,1
1,7,343,2,1
1,7,218,3,1
0,6,297,1,1
0,5,773,1,1
1,7,296,3,1
0,6,123,2,1
0,6,269,2,1
0,6,579,2,1
1,6,42,2,1
1,6,7,2,1
1,7,50,2,1
1,6,222,2,1
0,6,605,1,1
2,7,13,3,1
1,7,444,2,1
1,6,259,2,1
0,6,354,1,1
1,7,346,2,1
1,7,87,2,1
1,6,122,2,1
1,7,335,2,1
1,7,153,2,1
0,6,19,2,1
1,6,339,2,1
1,7,10,3,1
0,6,439,1,1
1,6,278,2,1
1,7,259,2,1
0,6,402,2,1
1,6,45,2,1
1,7,130,2,1
1,7,33,2,1
0,6,49,1,1
1,6,357,2,1
1,7,44,3,1
0,6,419,1,1
1,7,0,2,1
1,7,355,2,1
1,6,21,2,1
1,6,130,2,1
1,6,412,2,1
0,6,466,1,1
1,6,133,2,1
1,6,398,2,1
1,6,126,3,1
0,5,548,1,1
1,7,2,2,1
1,7,216,3,1
0,7,78,2,1
0,6,15,2,1
1,6,118,2,1
1,6,0,2,1
0,6,56,2,1
1,6,171,2,1
1,6,16,2,1
0,5,324,1,1
1,6,0,3,1
1,6,465,2,1
1,7,67,2,1
1,6,233,1,1
1,6,88,2,1
0,6,323,1,1
0,6,48,2,1
1,6,122,2,1
1,7,116,2,1
0,6,5,2,1
1,7,0,2,1
1,7,50,3,1
1,6,127,2,1
0,6,92,1,1
1,7,82,2,1
1,6,214,2,1
0,6,201,2,1
1,6,133,2,1
1,6,51,2,1
1,6,104,2,1
1,6,122,2,1
1,7,98,2,1
0,6,236,1,1
1,6,137,2,1
1,6,304,2,1
0,6,203,2,1
0,6,2,2,1
0,6,451,1,1
1,7,38,2,1
0,6,63,2,1
0,6,21,2,1
1,6,159,2,1
0,6,62,2,1
1,6,89,2,1
1,6,0,3,1
1,6,14,2,1
0,6,36,2,1
1,6,243,2,1
1,7,24,2,1
0,6,166,2,1
1,6,298,1,1
1,6,46,2,1
0,6,207,2,1
1,6,128,2,1
1,6,204,2,1
0,6,204,2,1
0,6,4,2,1
1,6,222,2,1
1,6,57,2,1
1,6,69,2,1
1,6,43,2,1
1,6,53,2,1
1,6,17,2,1
0,6,0,2,1
1,7,141,2,1
1,6,96,2,1
0,6,245,2,1
1,6,328,2,1
1,6,185,2,1
0,6,244,2,1
1,6,178,2,1
1,6,447,2,1
0,5,523,1,1
1,6,79,2,1
1,7,104,3,1
0,6,0,2,1
0,6,69,2,1
1,6,5,2,1
1,6,162,2,1
0,6,68,2,1
0,6,74,2,1
1,7,109,2,1
0,6,345,1,1
0,6,196,2,1
1,6,288,1,1
1,6,28,2,1
0,5,331,1,1
1,6,30,2,1
1,7,43,2,1
0,6,0,2,1
0,6,141,2,1
1,6,343,2,1
1,6,101,2,1
0,6,173,2,1
1,6,224,2,1
1,6,54,2,1
0,6,1,1,1
0,6,227,1,1
1,6,99,2,1
1,6,325,2,1
1,7,355,2,1
1,6,162,2,1
1,6,153,2,1
1,6,315,2,1
1,6,6,3,1
1,6,64,2,1
1,6,21,2,1
0,6,126,2,1
1,7,32,2,1
1,6,364,1,1
1,6,0,2,1
0,6,207,2,1
1,6,276,2,1
1,6,79,2,1
1,6,488,2,1
1,6,311,2,1
1,6,342,2,1
1,7,64,2,1
0,6,13,2,1
1,6,110,2,1
0,6,0,2,1
0,6,0,2,1
1,6,34,2,2
0,6,299,1,2
0,6,151,2,2
1,6,0,2,2
0,6,120,1,2
0,6,617,1,2
1,6,249,2,2
0,5,630,1,2
1,7,242,2,2
1,7,70,2,2
1,6,137,2,2
0,6,118,2,2
1,6,93,2,2
1,6,351,2,2
1,6,95,2,2
0,6,247,2,2
0,6,308,1,2
1,6,121,2,2
1,6,106,2,2
1,6,210,2,2
1,6,171,2,2
0,6,156,2,2
0,6,204,2,2
0,6,56,2,2
1,6,140,2,2
1,6,430,2,2
0,6,388,2,2
1,6,310,2,2
1,7,35,2,2
1,6,341,2,2
0,6,14,2,2
1,6,22,2,2
0,6,310,2,2
0,6,195,2,2
0,6,194,2,2
1,6,5,2,2
1,6,78,2,2
1,6,17,2,2
1,6,43,2,2
1,6,31,2,2
1,7,19,2,2
1,6,19,2,2
1,7,21,3,2
1,6,133,2,2
1,6,0,2,2
0,6,94,2,2
0,6,78,2,2
0,6,37,2,2
0,6,0,2,2
1,7,103,2,2
1,6,39,2,2
1,6,214,2,2
1,6,265,2,2
1,6,27,2,2
1,6,0,2,2
1,6,16,2,2
0,6,0,2,2
1,6,6,2,2
1,6,0,2,2
1,6,1,2,2
0,6,0,2,2
1,6,38,1,2
1,6,17,2,2
1,6,21,2,2
1,6,0,2,2
1,6,170,2,2
1,6,119,2,2
1,7,103,2,2
1,6,50,2,2
1,6,44,2,2
1,6,48,2,2
1,6,28,2,2
1,6,159,2,2
0,6,4,2,2
1,6,71,2,2
1,7,3,2,2
0,6,31,2,2
1,6,22,2,2
1,7,90,3,2
1,6,96,2,2
1,6,0,2,2
1,6,44,2,2
1,6,0,2,2
1,6,65,2,2
0,6,59,2,2
1,6,0,2,2
1,6,79,2,2
1,6,8,2,2
1,6,157,2,2
1,6,142,2,2
0,6,8,2,2
1,6,28,2,2
1,6,88,2,2
1,6,28,2,2
0,6,38,1,2
1,6,193,2,2
1,6,183,2,2
0,6,281,1,2
1,6,140,2,2
1,6,231,2,2
1,6,5,2,2
1,6,169,2,2
1,6,119,2,2
0,6,67,2,2
1,6,69,2,2
1,6,137,2,2
0,6,179,2,2
0,6,72,2,2
1,7,111,2,2
1,7,133,2,2
1,6,208,1,2
1,6,49,2,2
0,6,0,2,2
1,6,0,2,2
0,6,110,2,2
1,6,52,2,2
0,6,113,2,2
0,6,135,2,2
1,6,38,2,2
1,6,296,2,2
1,6,43,2,2
0,6,228,1,2
1,7,15,2,2
1,6,36,2,2
1,6,95,2,2
1,6,43,2,2
0,6,108,2,2
0,6,159,2,2
0,6,470,1,2
0,6,665,2,2
0,6,560,1,2
0,6,697,2,2
1,7,315,2,2
1,6,382,2,2
0,6,204,1,2
0,6,217,2,2
1,6,4,2,2
1,6,147,2,2
0,6,427,2,2
1,6,527,2,2
1,6,463,2,2
1,7,56,2,2
0,6,479,1,2
1,6,586,2,2
1,6,245,2,2
0,5,753,1,2
1,7,23,3,2
1,6,470,1,2
0,6,797,1,2
1,7,105,2,2
1,7,1023,4,2
0,5,210,1,2
12,17,1023,13,2
0,5,81,0,2
4,9,1023,5,2
0,5,66,0,2
0,5,747,0,2
1,6,68,2,2
0,6,166,2,2
0,6,131,2,2
0,6,695,1,2
1,6,100,2,2
0,5,748,1,2
1,7,378,2,2
0,6,440,2,2
0,6,775,1,2
1,6,523,2,2
1,6,657,1,2
1,7,319,3,2
0,6,1023,1,2
2,7,153,3,2
0,5,785,1,2
1,7,414,2,2
1,6,791,1,2
1,7,625,2,2
0,6,749,1,2
2,7,324,3,2
0,6,841,1,2
2,7,155,3,2
0,6,613,1,2
1,7,101,3,2
0,6,888,1,2
2,7,319,3,2
1,6,674,1,2
1,7,113,3,2
0,6,949,1,2
1,7,552,3,2
0,6,782,1,2
0,6,856,1,2
2,7,227,3,2
1,6,706,1,2
1,6,83,2,2
1,6,75,3,2
1,7,219,2,2
0,6,695,1,2
1,7,34,2,2
0,5,1023,0,2
2,7,19,3,2
0,5,1023,0,2
0,6,535,1,2
0,5,819,1,2
0,6,534,2,2
1,7,354,2,2
0,6,788,1,2
1,6,32,2,2
0,5,656,1,2
1,6,282,2,2
6,11,1023,7,2
0,5,1022,0,2
0,5,1019,0,2
1,7,15,2,2
4,10,1023,6,2
0,5,254,1,2
5,10,1023,5,2
0,5,242,0,2
0,1,1023,0,2
1,7,1023,2,2
0,5,1023,1,2
0,5,911,0,2
0,5,183,0,2
7,12,1023,8,2
0,4,421,0,2
0,5,1023,0,2
0,5,192,0,2
0,5,270,1,2
4,10,1023,6,2
0,4,209,0,2
2,8,1023,3,2
0,5,10,1,2
0,6,1023,2,2
0,5,377,0,2
7,12,1023,8,2
0,5,131,1,2
4,9,1023,5,2
0,5,221,0,2
2,7,1023,3,2
0,5,524,1,2
0,5,554,0,2
0,5,615,1,2
1,7,32,2,2
1,6,19,2,2
1,6,181,2,2
1,7,131,2,2
1,6,124,2,2
0,6,125,2,2
1,7,78,3,2
0,6,460,2,2
0,6,319,1,2
1,6,150,2,2
1,6,351,2,2
0,5,832,1,2
1,7,453,3,2
2,8,74,3,2
1,6,223,2,2
1,7,24,2,2
0,6,546,2,2
1,7,19,3,2
1,6,258,2,2
0,6,637,1,2
1,6,841,2,2
1,6,776,1,2
6,11,1023,6,2
0,6,153,1,2
0,6,550,1,2
1,6,170,2,2
0,6,266,2,2
1,6,219,2,2
0,6,4,2,2
0,6,449,2,2
1,6,346,2,2
1,6,221,2,2
1,6,334,1,2
1,6,203,2,2
0,5,787,1,2
2,7,242,2,2
9,14,1023,10,2
0,1,1023,0,2
0,5,19,1,2
0,5,58,1,2
0,6,419,1,2
0,5,741,1,2
1,7,88,3,2
0,5,1023,1,2
2,7,127,3,2
1,6,455,1,2
1,6,727,2,2
2,7,29,3,2
0,6,591,1,2
1,6,341,2,2
11,17,1023,13,2
0,5,452,0,2
10,16,1023,12,2
0,5,92,1,2
5,11,1023,7,2
0,4,36,1,2
0,5,427,0,2
1,6,67,1,2
0,6,483,1,2
0,6,899,1,2
1,7,487,2,2
0,5,937,1,2
1,7,670,2,2
1,7,693,2,2
0,6,962,1,2
1,6,461,2,2
0,5,1023,1,2
0,5,501,1,2
0,5,634,1,2
1,7,110,2,2
4,9,979,4,2
0,5,968,0,2
3,7,602,3,2
7,12,1023,8,2
1,6,180,2,2
0,5,400,0,2
0,6,471,1,2
0,6,279,2,2
0,6,163,2,2
1,6,46,2,2
1,6,637,2,2
0,6,379,1,2
0,6,404,1,2
1,7,449,2,2
0,6,554,1,2
1,6,271,1,2
1,7,294,2,2
0,6,567,1,2
0,6,70,2,2
1,6,487,1,2
1,7,472,3,2
1,6,423,2,2
0,6,457,1,2
1,7,171,3,2
0,6,772,1,2
1,6,3,2,2
0,5,966,1,2
2,7,137,3,2
0,6,459,1,2
1,7,0,2,2
1,6,590,1,2
0,5,890,1,2
1,7,91,3,2
0,4,1023,0,2
0,5,287,1,2
0,5,606,0,2
1,6,413,2,2
1,6,58,2,2
0,6,377,1,2
1,6,348,2,2
1,6,336,2,2
1,6,212,2,2
1,6,220,2,2
1,7,237,2,2
1,6,31,2,2
0,6,0,2,2
1,7,0,2,2
1,6,0,2,2
0,6,548,1,2
1,6,244,2,2
1,6,266,2,2
1,6,200,2,2
1,6,54,2,2
1,7,118,2,2
0,6,398,2,2
0,6,69,2,2
1,6,67,2,2
1,7,96,2,2
0,6,16,2,2
1,6,219,2,2
1,6,159,2,2
1,6,58,2,2
0,6,245,2,2
1,6,191,2,2
1,6,9,2,2
1,6,43,2,2
1,6,49,2,2
1,6,0,2,2
1,6,0,2,2
1,6,88,2,2
1,7,409,2,2
1,6,34,2,2
0,6,337,2,2
1,6,102,3,2
1,6,0,2,2
0,6,78,2,2
1,6,0,2,2
1,7,99,2,2
1,6,18,2,2
1,6,39,2,2
1,7,34,2,2
0,6,0,2,2
1,6,160,2,2
1,6,100,2,2
1,6,37,2,2
0,6,97,1,2
1,6,278,2,2
1,6,2,2,2
0,6,139,2,2
1,6,175,2,2
1,6,254,2,2
1,6,54,2,2
1,6,187,2,2
1,6,38,3,2
0,6,134,2,2
1,6,20,2,2
1,6,338,2,2
1,6,335,2,2
0,5,626,1,2
1,7,225,2,2
1,7,128,3,2
0,6,80,2,2
1,6,344,1,2
1,6,426,2,2
1,6,114,2,2
1,6,107,2,2
1,6,213,2,2
1,6,293,2,2
1,6,82,2,2
0,6,227,2,2
1,6,143,3,2
0,6,26,2,2
1,6,93,2,2
1,7,61,2,2
1,6,88,2,2
0,6,122,2,2
1,6,3,2,2
1,6,123,2,2
0,6,99,2,2
1,6,135,2,2
1,6,129,2,2
0,6,200,1,2
1,6,100,2,2
0,6,15,2,2
1,6,62,2,2
0,6,191,1,2
1,6,15,2,2
1,6,130,2,2
0,6,134,2,2
0,6,205,2,2
1,6,80,2,2
1,6,68,2,2
1,6,248,1,2
1,7,52,2,2
0,6,313,2,2
1,6,237,2,2
1,7,19,2,2
1,6,165,2,2
1,6,0,2,2
1,6,75,2,2
1,6,65,2,2
0,6,2,2,2
0,7,24,2,2
1,6,186,2,2
1,6,152,2,2
1,7,100,2,2
1,6,113,2,2
1,6,99,2,2
0,6,145,2,2
1,6,60,2,2
1,7,1,2,2
0,6,150,2,2
1,6,4,2,2
1,6,32,2,2
1,7,23,2,2
1,7,34,2,2
1,6,22,2,2
0,6,248,1,2
0,5,22,1,2
1,6,126,2,2
1,6,2,2,2
0,6,142,1,2
1,6,240,1,2
0,6,106,2,2
0,6,323,2,2
0,6,323,1,2
1,7,48,3,2
1,6,302,2,2
1,6,58,2,2
1,6,119,2,2
1,6,155,2,2
1,6,0,2,2
1,6,295,2,2
1,7,1,2,2
0,6,411,1,2
1,6,244,2,2
1,7,79,2,2
1,7,240,2,2
0,6,155,2,2
1,6,0,2,2
0,6,54,2,2
1,6,336,2,2
1,7,352,2,2
0,6,375,2,2
1,6,215,2,2
0,6,154,2,2
0,6,218,2,2
1,6,77,2,2
0,6,31,2,2
1,6,56,2,2
1,6,25,2,2
1,6,174,2,2
1,6,169,2,2
0,6,27,2,2
1,6,87,2,2
0,6,73,2,2
1,7,346,2,2
1,6,169,2,2
1,7,175,2,2
1,6,82,2,2
1,7,49,2,2
1,7,96,2,2
1,6,98,2,2
1,6,49,2,2
0,6,165,2,2
0,7,30,2,2
1,6,63,2,2
1,6,203,2,2
1,6,180,2,2
1,6,117,2,2
1,6,180,1,2
0,6,460,1,2
1,6,140,1,2
1,6,188,2,2
1,6,136,2,2
0,6,33,2,2
1,6,155,2,2
1,6,157,2,2
1,7,84,2,2
1,7,9,2,2
1,7,14,2,2
0,6,36,2,2
0,6,0,2,2
1,7,75,2,2
0,6,136,2,2
0,6,0,2,2
1,6,1,2,2
0,6,179,2,2
0,6,144,2,2
1,6,24,2,2
1,6,133,2,2
0,6,86,2,2
0,6,187,2,2
1,7,104,3,2
0,6,25,2,2
0,6,0,2,2
1,7,111,2,2
1,6,0,2,2
0,6,143,2,2
1,7,19,2,2
1,6,97,2,2
1,6,81,2,2
1,7,18,2,2
1,6,120,2,2
1,6,0,2,2
1,6,169,1,2
1,7,38,2,2
1,6,31,2,2
0,6,165,2,2
1,6,0,2,2
1,6,8,2,2
1,6,23,2,2
1,6,38,2,2
1,6,53,2,2
1,6,30,2,2
1,7,42,2,2
1,6,131,2,2
1,7,0,2,2
1,6,245,2,2
1,7,19,2,2
1,6,66,2,2
0,6,0,2,2
1,7,0,2,2
1,7,19,2,2
1,6,19,2,2
0,6,49,2,2
1,6,84,2,2
1,7,0,3,2
1,7,53,2,2
1,7,0,2,2
3,8,129,4,2
0,5,68,1,2
1,6,161,2,2
1,6,71,2,2
0,6,6,2,2
0,6,43,2,2
0,6,124,2,2
1,6,0,2,2
0,6,221,2,2
1,6,6,2,2
1,7,271,2,2
0,6,62,2,2
0,6,173,2,2
1,6,110,2,2
2,7,0,3,2
0,6,109,2,2
0,6,198,2,2
1,6,47,2,2
0,6,178,2,2
1,6,0,2,2
1,6,271,2,2
1,6,123,2,2
0,6,91,2,2
1,6,274,2,2
0,6,289,2,2
0,6,249,1,2
1,6,74,2,2
0,6,171,1,2
1,6,60,2,2
1,7,88,2,2
1,6,107,2,2
0,6,31,2,2
0,6,67,2,2
0,6,88,2,2
0,6,127,2,2
1,6,37,2,2
0,6,145,2,2
1,6,162,2,2
0,6,173,2,2
1,6,127,2,2
0,6,274,1,2
0,6,194,2,2
1,6,267,2,2
0,6,100,2,2
1,7,179,2,2
1,6,311,2,2
1,6,213,2,2
0,6,241,2,2
1,6,293,2,2
1,6,469,2,2
1,6,464,2,2
0,6,392,1,2
1,6,552,1,2
1,7,334,2,2
0,6,438,1,2
1,6,180,1,2
0,6,449,1,2
1,7,2,2,2
0,5,799,1,2
1,7,97,3,2
0,6,683,1,2
1,7,157,2,2
1,6,178,2,2
0,6,92,2,2
0,6,504,1,2
0,6,663,1,2
1,7,126,3,2
0,6,496,1,2
1,6,41,2,2
1,6,151,2,2
1,6,409,1,2
1,6,241,2,2
0,6,354,1,2
1,6,408,2,2
1,6,331,2,2
0,6,330,1,2
1,7,110,2,2
1,6,40,2,2
0,6,84,2,2
0,5,970,1,2
1,7,261,2,2
0,5,831,1,2
1,7,194,3,2
1,6,769,1,2
1,6,332,2,2
0,5,656,1,2
1,7,247,3,2
1,6,463,2,2
1,6,348,2,2
1,6,297,2,2
1,6,352,2,2
1,6,244,2,2
0,5,1023,0,2
2,7,244,3,2
0,6,903,1,2
2,7,202,3,2
1,7,1023,3,2
0,6,186,1,2
0,6,1023,2,2
1,7,119,2,2
0,6,703,1,2
1,7,360,2,2
1,7,248,2,2
1,6,287,2,2
1,6,123,2,2
1,6,157,2,2
0,5,1023,1,2
2,7,132,3,2
7,13,1023,9,2
0,5,277,0,2
0,5,289,1,2
0,5,789,1,2
1,6,312,2,2
0,6,570,1,2
1,7,159,2,2
13,18,1023,14,2
0,4,499,0,2
8,13,1023,9,2
0,6,312,2,2
0,5,793,0,2
0,5,989,0,2
0,6,751,1,2
0,6,840,1,2
1,6,574,2,2
9,13,1023,8,2
0,5,944,0,2
0,6,325,1,2
1,6,135,2,2
0,6,245,2,2
1,6,88,2,2
1,6,427,1,2
0,6,403,2,2
1,6,183,2,2
0,6,833,1,2
1,6,482,2,2
1,7,171,2,2
1,6,1023,2,2
2,7,167,3,2
0,5,938,0,2
2,8,1,4,2
0,6,1023,2,2
0,5,234,1,2
0,5,710,0,2
2,7,256,3,2
0,6,931,1,2
1,6,397,1,2
0,5,791,1,2
1,7,226,2,2
0,6,217,1,2
1,6,474,2,2
1,6,549,2,2
1,6,127,2,2
1,6,67,2,2
1,6,152,2,2
0,5,602,1,2
1,6,298,2,2
1,6,92,2,2
0,6,303,1,2
0,6,45,2,2
1,6,82,2,2
0,6,465,1,2
1,6,104,2,2
1,6,223,2,2
1,6,133,2,2
1,6,500,2,2
1,7,229,2,2
1,6,874,2,2
0,5,1023,1,2
0,5,777,1,2
0,5,1023,0,2
1,6,179,2,2
3,9,940,4,2
0,5,325,1,2
1,7,299,2,2
1,6,264,2,2
0,6,349,2,2
1,7,14,3,2
1,6,102,2,2
0,6,237,1,2
0,5,1023,1,2
0,5,832,0,2
1,7,879,2,2
0,5,623,1,2
1,7,323,2,2
0,6,745,1,2
1,6,0,2,2
0,6,455,1,2
1,6,4,2,2
0,6,143,1,2
1,6,146,2,2
1,6,462,2,2
0,5,1023,0,2
1,7,473,2,2
2,8,1023,5,2
0,4,253,0,2
0,5,976,0,2
6,12,1023,7,2
0,1,1023,0,2
0,5,670,0,2
0,5,632,0,2
0,6,125,2,2
1,6,758,1,2
0,4,751,1,2
1,6,539,2,2
0,6,750,1,2
1,6,269,2,2
1,7,129,3,2
3,8,1023,4,2
0,6,535,1,2
6,11,807,7,2
0,4,1023,1,2
0,1,1023,0,2
0,5,716,0,2
0,5,925,1,2
8,13,1023,8,2
0,4,594,0,2
0,6,68,2,2
1,6,62,2,2
0,6,452,1,2
2,7,85,3,2
0,5,610,0,2
0,5,692,1,2
1,6,424,2,2
1,7,673,2,2
1,7,0,2,2
0,6,35,2,2
1,6,162,3,2
1,7,70,2,2
0,6,61,2,2
1,6,467,1,2
2,7,171,3,2
0,5,702,1,2
1,7,544,2,2
1,6,591,2,2
0,6,645,1,2
1,6,284,2,2
0,6,809,1,2
1,6,208,3,2
0,6,169,2,2
0,6,647,1,2
1,6,106,2,2
1,6,260,2,2
1,6,393,2,2
1,6,516,2,2
1,6,64,2,2
0,5,571,1,2
1,7,123,3,2
1,6,343,2,2
1,6,308,2,2
1,6,358,2,2
1,6,544,2,2
0,6,53,2,2
1,6,428,1,2
1,7,80,3,2
0,6,178,2,2
0,6,586,1,2
2,7,167,3,2
1,6,483,2,2
1,6,154,2,2
1,6,185,2,2
1,6,510,1,2
1,6,107,2,2
1,6,524,2,2
2,7,105,3,2
1,6,178,1,2
0,6,70,2,2
1,7,420,2,2
1,6,544,2,2
0,5,1023,0,2
2,7,0,4,2
1,7,255,2,2
0,6,121,2,2
1,6,266,2,2
1,7,29,2,2
1,6,0,2,2
0,6,140,2,2
1,6,268,2,2
0,6,266,2,2
0,6,16,1,2
1,6,44,2,2
1,7,13,2,2
0,6,530,1,2
0,6,409,1,2
1,7,141,3,2
0,6,67,2,2
1,6,119,1,2
1,6,268,2,2
1,6,320,2,2
1,6,269,2,2
1,7,135,2,2
1,7,41,2,2
0,6,179,2,2
1,6,157,2,2
1,7,168,2,2
1,6,21,2,2
0,6,98,2,2
1,6,63,2,2
1,6,193,2,2
0,5,537,1,2
1,6,89,2,2
1,6,275,2,2
0,6,83,2,2
1,7,109,2,2
1,7,131,3,2
0,6,44,2,2
1,6,28,2,2
1,7,148,2,2
0,6,91,2,2
0,6,40,2,2
1,6,39,2,2
1,6,153,2,2
0,6,170,2,2
0,6,132,2,2
1,7,13,2,2
0,6,164,2,2
0,6,316,1,2
1,6,89,2,2
1,6,83,2,2
0,6,64,2,2
0,6,188,2,2
1,6,18,2,2
0,6,131,2,2
0,6,257,2,2
1,6,97,2,2
0,6,57,2,2
1,6,5,2,2
0,6,11,2,2
1,6,76,2,2
1,6,17,2,2
1,6,407,2,2
1,7,93,2,2
0,6,339,1,2
1,6,163,2,2
1,7,114,2,2
0,6,433,1,2
1,6,81,2,2
1,6,292,2,2
0,6,244,2,2
1,6,17,2,2
1,6,180,2,2
1,7,189,2,2
0,6,179,1,2
1,6,167,2,2
1,7,153,2,2
1,6,0,2,2
0,6,19,2,2
1,6,70,2,2
1,6,129,2,2
0,6,159,2,2
1,6,230,2,2
1,6,34,2,2
1,6,171,2,2
1,6,167,2,2
1,6,134,2,2
0,6,189,1,2
1,6,0,2,2
1,6,321,2,2
1,6,16,2,2
0,6,55,2,2
1,6,226,2,2
1,6,113,2,2
0,5,289,1,2
1,6,22,2,2
1,6,59,2,2
1,6,123,2,2
0,5,333,1,2
1,7,1,3,2
1,6,88,2,2
0,6,128,2,2
1,6,48,2,2
1,6,79,2,2
0,6,222,1,2
1,6,183,2,2
1,6,4,2,2
0,6,263,1,2
1,6,0,2,2
1,6,61,2,2
1,6,167,2,2
1,6,45,2,2
1,6,81,2,2
1,6,33,2,2
1,6,11,2,2
1,6,50,2,2
1,7,149,2,2
1,6,199,2,2
0,5,715,1,2
1,7,127,3,2
0,6,58,1,2
0,6,79,1,2
1,6,20,2,2
1,6,197,2,2
0,6,22,2,2
1,6,2,2,2
1,6,7,2,2
1,7,251,2,2
1,7,116,2,2
1,6,118,2,2
1,6,5,2,2
0,6,225,2,2
1,6,258,2,2
1,6,453,2,2
1,6,282,1,2
1,6,220,2,2
1,6,123,2,2
0,6,178,2,2
0,6,305,2,2
1,6,34,2,2
0,6,284,2,2
0,6,271,2,2
1,7,52,2,2
1,6,297,2,2
1,6,174,2,2
1,6,59,2,2
1,6,102,2,2
0,6,346,2,2
1,6,120,2,2
1,7,133,3,2
1,7,3,3,2
1,6,200,2,2
1,6,310,1,2
0,6,252,2,2
1,6,122,2,2
1,6,116,2,2
1,7,46,2,2
1,6,250,2,2
0,6,24,2,2
1,6,48,2,2
1,6,16,2,2
0,6,13,2,2
1,6,393,2,2
1,6,154,2,2
0,6,451,1,2
1,6,50,2,2
1,6,255,2,2
1,6,179,2,2
0,5,467,1,2
1,7,99,2,2
1,7,0,3,2
1,6,112,2,2
1,6,163,2,2
0,6,92,2,2
1,6,0,2,2
1,6,95,2,2
1,6,192,2,2
1,6,43,2,2
1,7,40,2,2
1,7,49,2,2
1,6,8,2,2
0,6,0,2,2
0,6,0,2,2
1,6,39,2,2
1,6,33,2,2
1,6,5,2,2
0,6,223,2,2
1,6,6,2,2
0,6,37,1,2
1,6,0,2,2
1,7,80,2,2
1,6,7,2,2
1,6,34,2,2
1,7,0,2,2
1,6,23,2,2
1,7,87,2,2
1,6,307,2,2
0,6,231,1,2
1,7,173,2,2
1,6,113,2,2
1,6,0,2,2
0,6,132,2,2
1,6,108,2,2
1,7,4,2,2
0,6,136,2,2
1,6,71,2,2
1,6,139,2,2
1,7,91,2,2
1,6,256,2,2
1,7,102,3,2
1,6,21,2,2
0,6,68,1,2
1,7,20,3,2
1,6,2,2,2
1,6,72,2,2
0,6,157,2,2
1,7,21,3,2
1,6,15,2,2
1,6,68,2,2
1,7,0,2,2
3,8,23,4,2
0,5,0,1,2
0,6,75,2,2
0,6,9,2,2
0,6,134,1,2
1,6,0,2,2
1,6,142,2,2
0,6,127,1,2
0,6,63,2,2
1,7,36,3,2
0,6,0,2,2
0,6,3,1,2
1,6,50,2,2
1,6,80,2,2
0,6,152,2,2
1,6,0,2,2
1,6,98,2,2
0,5,52,2,2
0,6,40,2,2
1,6,0,2,2
1,6,52,2,2
1,6,64,2,2
0,6,107,2,2
1,6,134,2,2
0,6,213,2,2
1,6,39,2,2
1,6,268,2,2
0,6,198,1,2
0,5,163,1,2
1,7,185,2,2
1,6,164,2,2
0,6,169,2,2
1,6,33,2,2
1,6,42,2,2
1,6,15,2,2
1,6,64,2,2
1,6,42,2,2
0,6,0,2,2
1,6,64,2,2
1,6,212,2,2
0,6,82,2,2
0,6,385,1,2
1,7,81,3,2
1,6,167,2,2
0,6,37,2,2
1,6,94,2,2
1,6,384,2,2
1,6,655,1,2
1,7,0,3,2
0,5,1023,0,2
1,7,444,2,2
1,6,492,1,2
1,6,342,1,2
1,6,239,2,2
1,6,314,2,2
1,6,364,2,2
1,6,265,2,2
0,6,401,1,2
1,6,134,2,2
1,7,167,2,2
1,6,601,2,2
1,6,78,3,2
0,5,793,1,2
1,7,4,3,2
1,6,564,2,2
1,6,101,2,2
0,6,591,1,2
1,6,328,2,2
0,6,262,2,2
0,6,618,1,2
1,6,7,2,2
0,6,358,2,2
0,6,475,1,2
1,7,553,2,2
0,5,890,1,2
1,6,489,2,2
0,6,966,1,2
2,7,11,3,2
0,6,642,1,2
1,7,199,2,2
0,6,524,1,2
0,6,378,2,2
0,6,506,1,2
1,6,98,3,2
0,6,232,2,2
0,6,137,1,2
0,5,993,1,2
1,7,132,3,2
0,5,947,1,2
2,7,155,3,2
1,6,1023,1,2
2,7,310,3,2
0,5,828,1,2
2,7,96,3,2
1,7,287,2,2
1,7,362,2,2
1,7,71,2,2
1,6,229,2,2
1,7,16,3,2
1,6,206,2,2
1,7,100,3,2
1,7,357,2,2
1,6,632,2,2
1,7,11,2,2
1,6,242,2,2
1,7,123,3,2
1,7,40,2,2
1,6,203,2,2
0,6,876,1,2
1,7,715,2,2
1,6,672,1,2
0,6,872,1,2
1,7,633,2,2
14,19,1023,15,2
0,1,1023,0,2
0,5,995,1,2
0,5,68,1,2
0,5,878,1,2
1,6,126,3,2
0,5,808,1,2
1,7,68,2,2
0,6,711,1,2
1,6,337,2,2
0,6,307,2,2
1,6,33,2,2
0,5,1023,0,2
0,6,62,1,2
10,15,1023,11,2
0,6,95,1,2
10,15,1023,11,2
0,1,1023,0,2
0,3,1023,0,2
0,5,129,0,2
13,18,1023,14,2
1,6,266,2,2
4,9,1023,5,2
0,6,10,2,2
0,4,588,0,2
11,17,1023,13,2
1,7,899,2,2
8,13,1023,10,2
0,5,94,0,2
4,10,1023,7,2
0,4,229,0,2
0,5,492,0,2
1,6,38,2,2
0,6,485,1,2
1,7,259,2,2
1,6,913,2,2
0,6,14,2,2
1,6,459,1,2
0,6,300,1,2
1,6,29,2,2
0,6,628,1,2
1,6,170,2,2
0,5,557,1,2
1,6,421,1,2
0,5,717,1,2
1,6,197,2,2
1,7,324,2,2
1,6,300,2,2
1,7,357,2,2
1,7,598,2,2
1,7,573,2,2
0,5,813,1,2
1,7,453,3,2
0,6,1023,1,2
1,6,985,1,2
0,3,1023,0,2
3,8,1023,3,2
0,4,1023,0,2
0,6,879,1,2
0,5,927,0,2
0,5,62,1,2
0,5,183,1,2
0,6,0,2,2
1,6,309,2,2
0,6,1023,1,2
0,6,222,2,2
1,6,661,2,2
4,10,1023,6,2
0,4,572,0,2
7,12,1023,8,2
0,5,1023,1,2
0,6,797,2,2
4,10,1023,6,2
0,5,476,0,2
0,5,626,0,2
1,6,193,2,2
11,17,1023,14,2
0,5,358,0,2
0,4,1023,0,2
0,6,461,1,2
0,5,916,1,2
1,6,406,2,2
1,6,423,2,2
1,7,131,2,2
7,12,898,7,2
3,8,784,3,2
0,5,488,1,2
2,7,39,3,2
0,5,595,1,2
1,6,401,1,2
1,6,247,2,2
0,5,786,1,2
1,7,98,3,2
1,7,380,3,2
0,6,533,1,2
1,6,7,2,2
1,6,573,2,2
1,6,851,1,2
1,6,541,2,2
2,7,157,3,2
13,19,1023,14,2
0,5,848,0,2
3,9,788,4,2
6,11,1023,7,2
0,5,299,0,2
0,5,1023,0,2
11,16,1023,12,2
0,5,701,0,2
0,5,720,0,2
0,5,1023,1,2
6,11,1023,8,2
0,6,569,2,2
6,12,1023,7,2
0,5,16,1,2
0,4,936,0,2
1,6,508,2,2
0,6,880,1,2
1,7,28,3,2
0,5,927,1,2
1,7,631,2,2
2,7,1023,4,2
0,6,311,1,2
0,6,580,1,2
1,7,577,2,2
0,6,460,2,2
0,6,1023,1,2
0,6,949,1,2
0,6,889,1,2
1,6,76,2,2
1,6,396,2,2
1,6,391,2,2
1,6,13,2,2
0,6,451,1,2
1,7,85,3,2
1,6,0,2,2
0,6,209,2,2
1,7,7,2,2
0,6,0,2,2
0,6,342,1,2
1,7,168,2,2
1,6,34,2,2
0,6,305,1,2
1,6,126,2,2
1,7,158,3,2
0,6,19,2,2
1,6,170,2,2
1,7,102,3,2
1,6,82,2,2
1,6,39,2,2
1,7,143,2,2
1,7,47,2,2
0,6,115,2,2
1,6,38,2,2
1,7,195,2,2
0,6,197,1,2
0,6,366,1,2
1,7,228,2,2
1,6,169,2,2
0,6,309,2,2
1,7,322,2,2
1,7,104,2,2
0,6,53,1,2
1,6,2,2,2
1,7,96,2,2
1,6,86,2,2
1,6,58,2,2
1,7,15,3,2
0,6,66,2,2
0,6,126,2,2
1,7,90,2,2
0,6,333,1,2
0,6,19,2,2
1,6,19,2,2
1,7,145,2,2
0,6,288,1,2
1,6,46,2,2
1,6,113,2,2
0,6,300,2,2
1,6,8,2,2
1,6,181,2,2
1,6,1,2,2
0,6,31,2,2
1,6,272,2,2
1,7,83,2,2
0,5,436,1,2
1,6,52,2,2
1,7,230,2,2
1,6,7,2,2
0,6,89,2,2
1,6,69,2,2
1,6,268,2,2
0,6,34,1,2
1,6,150,2,2
1,7,0,2,2
0,6,230,1,2
1,6,22,2,2
1,7,196,2,2
1,6,0,2,2
0,6,35,2,2
1,7,162,2,2
1,7,158,2,2
0,6,324,1,2
0,6,193,2,2
1,7,0,2,2
1,6,155,1,2
0,6,86,2,2
1,7,5,3,2
1,6,156,2,2
0,6,37,2,2
1,6,316,2,2
1,6,87,2,2
0,6,212,1,2
1,6,70,2,2
1,6,137,2,2
1,6,79,2,2
1,6,44,2,2
1,6,186,2,2
1,6,34,2,2
1,6,50,2,2
1,6,272,2,2
1,6,68,2,2
1,6,120,2,2
1,6,203,2,2
1,7,0,2,2
0,6,166,1,2
1,6,0,2,2
1,6,385,2,2
1,7,87,2,2
1,6,236,2,2
1,6,4,2,2
1,6,154,2,2
0,6,121,1,2
1,6,333,1,2
1,6,318,2,2
1,6,3,2,2
0,6,607,1,2
0,6,487,2,2
1,6,0,2,2
0,6,241,1,2
1,6,45,2,2
1,6,67,2,2
0,6,211,1,2
1,6,59,2,2
1,6,220,2,2
1,6,223,2,2
1,6,76,2,2
1,6,233,2,2
1,6,204,2,2
1,6,224,1,2
1,7,183,2,2
1,6,292,2,2
1,6,347,2,2
1,7,139,2,2
1,7,0,2,2
0,6,62,2,2
1,6,19,2,2
1,6,44,2,2
0,6,39,2,2
1,6,177,2,2
0,6,241,1,2
1,6,183,2,2
1,6,297,2,2
1,6,264,2,2
1,6,219,2,2
0,6,313,1,2
0,6,328,1,2
1,6,163,2,2
1,6,256,2,2
0,6,318,2,2
1,6,332,1,2
1,6,124,2,2
1,6,51,2,2
1,7,45,2,2
1,6,190,2,2
1,6,114,2,2
1,6,50,2,2
1,6,305,2,2
1,6,216,2,2
0,6,75,2,2
0,6,295,2,2
1,7,0,3,2
1,6,37,2,2
1,7,0,2,2
1,7,224,2,2
1,6,0,2,2
1,6,91,2,2
1,6,272,2,2
1,6,238,3,2
0,5,251,1,2
1,6,180,2,2
1,6,140,2,2
0,6,139,2,2
1,6,83,2,2
1,7,17,3,2
1,6,104,2,2
1,6,3,2,2
1,6,117,2,2
0,6,139,2,2
1,6,63,2,2
1,6,76,2,2
1,6,0,2,2
0,6,207,2,2
1,6,135,2,2
0,6,229,2,2
1,6,376,1,2
1,6,69,2,2
1,7,65,2,2
1,6,101,2,2
0,6,3,2,2
0,6,52,2,2
0,6,310,1,2
1,6,53,2,2
0,5,322,1,2
0,6,419,1,2
1,6,79,2,2
1,6,281,2,2
1,6,78,2,2
1,6,96,2,2
1,6,159,2,2
1,6,72,2,2
1,6,113,2,2
0,6,8,2,2
1,6,71,2,2
1,6,89,2,2
1,6,96,2,2
0,6,31,2,2
1,6,57,2,2
1,6,40,2,2
1,6,3,2,2
1,6,15,2,2
0,6,42,2,2
1,6,7,2,2
1,6,36,2,2
1,6,27,3,2
0,6,26,2,2
1,6,0,2,2
1,6,10,2,2
1,6,23,2,2
0,6,7,2,2
1,6,23,2,2
1,6,88,2,2
1,6,24,2,2
1,6,201,2,2
1,6,63,2,2
0,6,63,2,2
1,6,28,2,2
1,6,76,2,2
0,6,0,2,2
1,6,3,2,2
1,6,0,2,2
1,7,0,2,2
0,6,0,2,2
1,6,0,2,2
1,6,12,2,2
1,6,52,2,2
1,6,55,2,2
1,6,126,2,2
1,6,126,2,2
1,7,29,3,2
1,7,9,3,2
1,6,30,2,2
1,6,174,1,2
1,6,15,2,2
1,7,0,2,2
1,7,32,2,2
1,6,8,2,2
0,6,70,2,2
0,5,118,1,2
0,6,29,2,2
1,6,8,3,2
1,7,25,2,2
1,6,4,2,2
0,6,34,2,2
1,6,24,2,2
0,6,66,1,2
0,6,60,2,2
1,7,16,2,2
1,7,24,3,2
1,7,95,2,2
1,7,75,3,2
3,8,113,4,2
0,5,18,1,2
2,8,203,4,2
1,7,0,3,2
1,6,54,2,2
1,6,170,2,2
0,5,164,1,2
0,5,159,0,2
0,6,104,1,2
1,6,0,2,2
0,6,101,2,2
0,6,61,1,2
1,6,28,2,2
1,7,76,2,2
1,6,2,2,2
0,6,196,2,2
1,6,165,2,2
0,6,78,2,2
0,6,154,2,2
1,6,50,2,2
1,6,155,2,2
0,5,418,1,2
1,6,108,2,2
1,6,380,2,2
1,6,0,2,2
0,5,540,1,2
2,7,93,3,2
1,6,181,2,2
0,6,229,2,2
1,6,89,2,2
1,6,3,2,2
0,6,24,2,2
1,6,332,2,2
1,7,5,3,2
0,6,292,2,2
1,6,15,2,2
1,6,18,2,2
0,6,0,2,2
0,6,381,2,2
1,6,42,2,2
0,5,357,1,2
0,6,235,2,2
0,6,256,2,2
1,7,56,2,2
0,6,36,2,2
1,6,32,2,2
1,6,424,1,2
1,7,1,2,2
0,5,636,1,2
2,7,370,3,2
1,6,304,2,2
0,6,0,2,2
1,6,93,2,2
0,6,225,2,2
0,6,499,1,2
1,7,300,2,2
0,6,742,1,2
0,6,707,1,2
1,7,193,2,2
0,6,458,2,2
1,7,6,3,2
0,6,280,1,2
1,6,229,2,2
0,6,479,1,2
0,6,135,2,2
0,6,625,1,2
1,7,42,3,2
0,6,627,1,2
1,7,205,2,2
0,6,320,1,2
0,6,432,1,2
1,6,109,2,2
0,6,771,1,2
1,6,315,2,2
0,5,961,1,2
1,7,352,2,2
1,7,443,2,2
1,7,71,2,2
0,6,385,2,2
1,7,35,2,2
1,6,301,2,2
0,6,248,2,2
1,7,177,3,2
1,7,130,2,2
0,6,450,1,2
1,7,147,3,2
1,6,233,2,2
0,6,606,2,2
1,6,729,2,2
0,3,1023,0,2
0,5,355,0,2
0,5,707,0,2
1,7,397,2,2
1,6,531,1,2
1,6,852,1,2
1,7,448,2,2
1,6,578,1,2
1,6,397,2,2
1,6,458,2,2
1,6,716,1,2
1,6,293,2,2
1,6,430,2,2
1,6,644,2,2
1,7,11,3,2
0,6,679,1,2
1,7,77,3,2
0,6,626,1,2
1,7,291,2,2
0,5,613,1,2
1,7,139,2,2
1,6,660,2,2
1,7,303,2,2
0,5,671,1,2
1,6,209,2,2
0,6,481,1,2
1,6,365,1,2
0,6,579,1,2
1,6,669,2,2
0,5,839,1,2
0,5,1023,0,2
0,6,658,2,2
1,7,157,2,2
0,6,992,1,2
2,7,424,3,2
0,5,661,1,2
1,7,153,2,2
0,6,853,1,2
1,6,748,2,2
1,6,647,2,2
1,7,181,2,2
14,20,1023,16,2
0,5,871,1,2
0,5,913,0,2
1,7,110,2,2
0,5,1023,1,2
2,7,242,3,2
0,3,1023,0,2
0,4,52,1,2
0,5,662,0,2
0,5,530,1,2
0,6,811,1,2
0,5,565,1,2
0,5,1023,1,2
9,14,1023,9,2
0,1,1023,0,2
0,5,847,1,2
0,5,510,0,2
0,5,812,0,2
1,7,58,2,2
7,13,1023,9,2
0,5,559,1,2
3,7,839,3,2
0,4,410,0,2
0,5,159,2,2
0,5,472,1,2
1,7,210,2,2
0,6,267,1,2
1,6,231,2,2
1,6,129,3,2
1,7,201,2,2
1,7,0,2,2
1,6,249,2,2
1,7,247,2,2
1,6,787,1,2
1,6,18,2,2
0,6,560,1,2
1,6,786,1,2
9,14,1023,9,2
4,10,1023,6,2
0,5,758,0,2
0,4,1023,0,2
0,5,922,0,2
0,5,1023,1,2
3,8,791,3,2
0,5,601,0,2
8,13,1023,9,2
0,5,872,0,2
0,5,898,0,2
1,6,51,2,2
10,16,1023,13,2
0,5,300,1,2
7,12,1023,8,2
1,7,208,3,2
0,5,967,0,2
0,5,1023,0,2
0,3,1023,0,2
1,6,409,2,2
11,17,1023,12,2
0,1,1023,0,2
1,7,1023,2,2
0,4,1023,0,2
0,5,417,0,2
4,10,1023,6,2
0,5,219,0,2
0,5,691,1,2
1,6,394,2,2
1,6,716,2,2
1,6,156,2,2
0,6,224,1,2
1,6,742,1,2
5,9,868,4,2
0,3,1023,0,2
0,4,388,0,2
0,6,101,2,2
0,5,266,1,2
0,6,323,2,2
0,6,816,1,2
1,6,331,2,2
0,5,813,0,2
2,7,89,3,2
0,4,1023,0,2
0,5,10,0,2
0,4,840,0,2
1,6,386,2,2
0,6,282,2,2
11,17,1023,13,2
0,4,618,0,2
11,16,1023,12,2
0,5,31,1,2
0,5,735,0,2
13,18,1023,14,2
0,3,1023,0,2
1,6,1014,1,2
0,5,525,0,2
11,17,1023,13,2
0,1,1023,0,2
0,5,839,1,2
0,4,347,0,2
0,5,350,1,2
0,6,796,1,2
0,6,430,2,2
0,6,164,2,2
0,2,1023,0,2
0,5,718,0,2
6,11,1023,7,2
0,5,304,0,2
0,5,878,1,2
0,5,1023,1,2
0,5,1023,1,2
0,6,497,1,2
1,6,352,2,2
1,6,132,2,2
0,6,632,1,2
1,6,668,1,2
1,6,15,2,2
1,6,115,2,2
1,7,115,3,2
1,6,211,2,2
0,6,253,1,2
1,7,40,2,2
0,6,97,2,2
0,6,268,1,2
1,7,140,2,2
1,6,141,2,2
1,6,96,2,2
1,6,43,2,2
1,6,466,2,2
0,6,314,2,2
0,6,355,1,2
2,7,119,3,2
1,6,310,2,2
1,6,29,2,2
1,6,282,2,2
1,7,178,2,2
0,6,16,2,2
1,6,167,2,2
1,7,18,2,2
0,6,0,2,2
1,6,1,2,2
1,6,233,2,2
0,6,153,2,2
0,6,296,1,2
1,6,84,2,2
1,7,105,2,2
0,5,47,2,2
1,6,21,2,2
1,7,6,3,2
1,6,0,1,2
1,6,13,2,2
1,7,63,3,2
0,6,177,2,2
0,6,131,2,2
1,6,99,2,2
1,6,176,2,2
0,6,0,2,2
1,6,76,2,2
1,7,0,2,2
0,6,0,2,2
0,6,111,2,2
1,7,139,3,2
0,6,106,2,2
0,6,18,2,2
1,6,0,2,2
1,6,247,2,2
0,6,120,2,2
1,6,17,2,2
1,7,0,2,2
0,6,31,2,2
1,6,66,2,2
1,7,215,2,2
1,6,90,2,2
0,6,151,2,2
1,6,25,2,2
0,6,440,1,2
1,6,20,2,2
1,6,186,2,2
1,6,55,2,2
0,5,414,1,2
1,7,90,2,2
1,7,57,2,2
1,6,72,2,2
0,6,50,2,2
1,6,2,2,2
1,6,2,2,2
0,6,5,2,2
1,6,26,2,2
1,6,466,2,2
1,6,58,2,2
0,6,401,2,2
1,7,0,3,2
1,6,319,2,2
1,7,185,2,2
0,6,0,2,2
1,6,459,2,2
0,6,151,2,2
1,6,0,2,2
1,6,368,2,2
0,6,482,1,2
1,6,43,2,2
1,6,0,2,2
1,6,148,2,2
0,6,56,1,2
1,6,46,2,2
1,6,98,2,2
0,6,13,2,2
0,6,521,2,2
1,6,239,2,2
0,6,417,1,2
0,6,561,1,2
1,7,49,3,2
0,6,586,1,2
0,6,320,1,2
1,6,193,2,2
1,6,0,2,2
0,6,7,2,2
1,7,2,2,2
1,6,367,2,2
0,6,257,2,2
1,6,74,2,2
1,6,155,2,2
0,6,72,2,2
0,6,176,2,2
0,6,35,2,2
1,6,45,2,2
1,6,219,2,2
1,6,188,2,2
1,7,0,2,2
1,6,237,2,2
1,6,66,2,2
1,6,36,2,2
1,6,135,2,2
1,6,0,2,2
1,6,61,2,2
1,6,126,2,2
1,6,36,2,2
0,6,389,1,2
1,6,229,2,2
1,6,244,2,2
1,6,230,1,2
1,7,80,2,2
1,7,152,2,2
0,5,102,1,2
0,6,171,2,2
1,6,263,2,2
0,6,19,2,2
0,6,282,1,2
1,6,79,2,2
1,6,82,2,2
0,6,9,2,2
1,6,260,2,2
0,6,177,2,2
1,6,5,2,2
1,6,187,2,2
1,7,235,2,2
1,6,86,2,2
1,6,174,2,2
1,6,487,2,2
1,6,240,2,2
0,6,128,2,2
1,6,115,2,2
1,6,317,2,2
1,6,227,2,2
0,6,1,2,2
0,6,110,2,2
0,6,39,2,2
1,6,245,2,2
1,6,4,2,2
1,6,19,2,2
1,6,74,2,2
1,6,285,2,2
1,6,4,3,2
1,6,431,1,2
1,6,181,2,2
1,6,24,2,2
0,6,179,2,2
0,5,308,1,2
1,6,209,2,2
1,6,307,2,2
1,6,29,2,2
1,6,304,2,2
0,6,243,2,2
1,6,250,2,2
1,6,264,2,2
1,6,0,2,2
0,6,170,1,2
1,7,117,2,2
0,6,368,1,2
0,6,194,2,2
1,6,18,2,2
1,6,230,2,2
0,6,185,1,2
0,6,33,2,2
0,6,104,2,2
1,6,350,2,2
1,6,155,2,2
0,6,401,2,2
1,6,318,2,2
1,7,1,2,2
1,6,60,2,2
1,6,118,2,2
1,6,99,2,2
1,6,4,2,2
1,6,72,2,2
1,6,25,2,2
0,6,35,2,2
0,6,0,2,2
1,7,16,3,2
0,6,6,2,2
1,6,30,2,2
1,6,108,2,2
1,6,0,2,2
0,5,111,2,2
1,6,0,2,2
0,6,191,2,2
0,6,105,2,2
1,6,47,2,2
1,6,22,2,2
1,6,230,2,2
0,6,104,2,2
1,6,150,2,2
1,6,75,2,2
1,6,173,2,2
1,6,12,2,2
1,6,105,2,2
0,6,15,2,2
1,6,140,2,2
1,6,0,2,2
1,6,2,2,2
1,6,0,2,2
1,6,12,2,2
1,6,0,2,2
0,6,0,2,2
0,6,78,2,2
1,7,43,2,2
1,6,45,2,2
1,6,0,2,2
1,6,87,2,2
1,6,60,2,2
1,6,0,2,2
1,6,41,2,2
1,6,26,2,2
0,6,142,2,2
1,6,36,3,2
1,7,15,2,2
0,6,125,2,2
1,6,107,2,2
1,7,72,2,2
1,6,183,2,2
1,7,0,2,2
1,6,8,2,2
0,6,6,2,2
0,6,35,2,2
1,6,9,2,2
1,7,0,2,2
1,6,5,2,2
1,6,71,2,2
1,6,51,2,2
0,6,100,1,2
0,5,49,1,2
0,6,71,1,2
1,6,255,1,2
0,6,351,2,2
1,6,257,2,2
1,7,73,2,2
1,6,6,2,2
1,6,32,2,2
1,7,178,2,2
1,7,26,2,2
0,6,103,1,2
1,7,0,3,2
1,6,43,2,2
0,6,77,2,2
1,6,549,1,2
1,6,0,3,2
0,5,610,1,2
1,7,128,3,2
1,6,434,1,2
0,6,277,2,2
1,6,35,2,2
1,6,240,2,2
0,6,251,2,2
1,6,274,2,2
0,6,410,2,2
0,6,8,2,2
0,6,478,1,2
2,7,55,3,2
0,6,771,1,2
1,7,262,2,2
0,6,626,1,2
2,7,56,3,2
0,6,506,1,2
0,6,632,1,2
1,7,282,2,2
0,5,990,0,2
1,7,131,3,2
0,6,469,2,2
1,6,446,2,2
1,6,103,2,2
0,5,307,1,2
1,6,89,2,2
0,6,492,1,2
0,6,96,2,2
0,5,600,1,2
1,6,32,3,2
0,6,594,1,2
1,6,135,2,2
0,6,533,1,2
1,6,165,3,2
0,6,468,1,2
1,7,0,2,2
0,5,645,1,2
1,6,395,2,2
1,7,568,2,2
1,6,415,2,2
0,6,818,1,2
1,7,33,3,2
1,6,253,2,2
1,6,330,2,2
0,6,636,1,2
2,7,56,3,2
0,5,731,1,2
1,6,117,2,2
0,6,678,1,2
1,7,171,3,2
0,6,716,1,2
1,6,228,2,2
1,6,387,2,2
1,6,609,1,2
1,6,197,2,2
1,6,268,2,2
1,6,138,2,2
1,7,249,2,2
1,6,634,2,2
1,6,712,1,2
0,5,976,1,2
2,7,289,3,2
0,6,1023,1,2
1,7,219,2,2
1,6,704,1,2
2,7,532,3,2
1,6,901,2,2
1,6,664,2,2
1,6,944,2,2
1,7,305,2,2
0,6,649,1,2
1,7,345,2,2
0,6,551,2,2
1,6,242,2,2
1,6,19,2,2
0,6,418,2,2
1,6,73,2,2
0,6,702,1,2
2,7,172,3,2
6,11,1023,6,2
1,6,275,2,2
0,6,766,1,2
1,7,440,2,2
0,5,661,1,2
1,6,199,2,2
0,6,617,1,2
0,6,836,1,2
0,5,771,1,2
0,4,915,0,2
0,5,440,1,2
1,6,362,2,2
0,6,490,1,2
0,6,319,1,2
0,6,185,2,2
0,6,780,1,2
1,7,35,3,2
1,6,353,2,2
0,6,383,2,2
1,7,143,3,2
0,6,881,1,2
1,6,490,2,2
1,6,511,2,2
1,7,130,3,2
1,6,627,2,2
2,7,126,2,2
1,6,404,2,2
1,6,442,2,2
1,6,76,2,2
1,6,313,2,2
0,6,542,1,2
9,15,1023,11,2
0,4,515,0,2
0,5,1023,0,2
1,6,744,1,2
9,14,1023,9,2
3,9,1023,5,2
0,6,666,1,2
0,5,301,0,2
0,5,936,0,2
1,7,114,2,2
0,5,638,1,2
1,7,123,2,2
10,16,1023,11,2
0,5,171,1,2
0,5,636,0,2
1,7,13,3,2
1,6,470,2,2
1,7,69,2,2
1,7,0,3,2
1,6,83,2,2
0,6,883,1,2
1,6,762,2,2
0,5,1023,1,2
2,7,233,3,2
0,6,1023,1,2
2,7,119,2,2
0,5,1023,0,2
1,6,501,2,2
1,6,894,1,2
12,17,1023,13,2
0,6,374,1,2
5,11,1023,6,2
0,1,1023,0,2
0,5,448,1,2
7,13,1023,9,2
0,5,19,1,2
5,11,1023,7,2
0,5,985,0,2
3,8,1023,5,2
0,6,736,1,2
0,5,1023,1,2
2,7,903,2,2
0,1,1023,0,2
0,5,288,0,2
0,5,391,1,2
14,19,1023,15,2
0,5,688,1,2
4,9,1023,5,2
2,8,22,4,2
5,10,1023,7,2
0,6,820,1,2
0,5,1023,0,2
1,6,600,1,2
0,5,686,0,2
3,9,1023,5,2
0,5,123,0,2
6,11,1023,8,2
0,6,406,2,2
10,15,1023,11,2
3,8,1023,5,2
2,8,639,4,2
0,5,750,0,2
0,5,931,1,2
1,7,244,2,2
1,6,437,2,2
1,6,596,2,2
0,6,322,2,2
0,6,140,2,2
0,6,536,1,2
1,6,621,2,2
11,17,1023,12,2
4,10,1023,6,2
0,5,782,1,2
0,1,1023,0,2
0,5,765,0,2
0,5,1023,0,2
0,4,346,0,2
0,6,1023,2,2
0,5,201,0,2
6,11,1023,7,2
0,5,77,1,2
0,5,599,0,2
15,20,1023,16,2
0,1,1023,0,2
0,5,781,0,2
0,5,358,0,2
0,5,784,0,2
1,6,572,1,2
0,5,1023,1,2
2,7,0,3,2
0,6,432,1,2
1,6,545,2,2
1,7,14,3,2
0,5,978,1,2
1,7,316,2,2
16,22,1023,18,2
0,5,1023,0,2
3,7,931,2,2
0,5,340,0,2
0,5,276,1,2
0,5,540,1,2
0,6,212,2,2
1,6,252,2,2
0,6,508,1,2
0,6,628,1,2
2,7,39,3,2
1,6,229,2,2
0,6,449,1,2
2,7,205,3,2
1,6,390,1,2
0,6,365,1,2
1,7,9,2,2
1,7,56,3,2
0,6,458,1,2
1,7,146,2,2
1,7,365,2,2
1,6,34,2,2
0,6,522,1,2
1,7,110,3,2
1,6,384,2,2
1,6,202,2,2
1,6,232,2,2
1,6,180,2,2
0,6,51,2,2
0,6,273,2,2
1,6,717,1,2
1,6,554,1,2
0,6,519,1,2
1,7,146,3,2
1,6,144,2,2
0,6,18,1,2
1,6,179,2,2
1,6,204,2,2
0,6,370,1,2
1,6,249,2,2
1,7,336,2,2
1,6,299,2,2
1,6,135,2,2
1,6,150,2,2
1,6,69,2,2
0,6,187,1,2
1,7,142,2,2
1,6,151,2,2
0,6,615,1,2
1,7,154,2,2
1,6,583,2,2
1,6,5,2,2
0,6,87,2,2
1,6,314,2,2
1,6,65,2,2
0,6,129,2,2
1,6,213,2,2
1,7,37,3,2
0,6,229,2,2
0,6,0,2,2
1,6,10,2,2
1,6,46,2,2
0,5,778,1,2
1,6,643,1,2
1,6,703,1,2
1,6,40,2,2
1,6,148,2,2
1,7,223,3,2
0,6,98,2,2
0,6,222,2,2
1,7,15,2,2
1,6,3,2,2
0,6,107,1,2
1,7,211,2,2
1,6,35,2,2
0,6,144,2,2
1,6,371,2,2
1,6,670,1,2
0,5,797,1,2
1,7,166,2,2
1,7,286,2,2
1,6,125,2,2
1,6,132,2,2
1,6,119,2,2
1,6,116,2,2
0,6,181,1,2
1,6,30,2,2
1,6,67,2,2
0,6,37,1,2
0,6,256,2,2
1,6,32,3,2
1,6,141,2,2
0,6,133,2,2
1,7,230,2,2
0,6,345,2,2
1,6,69,2,2
0,6,355,1,2
1,7,200,2,2
1,6,190,2,2
0,6,199,2,2
1,7,31,3,2
0,6,73,2,2
0,6,302,1,2
1,6,97,2,2
0,6,29,2,2
0,6,302,1,2
1,7,93,2,2
1,6,242,2,2
0,6,253,2,2
0,6,3,2,2
0,6,466,1,2
0,6,318,2,2
0,6,56,2,2
0,6,528,1,2
1,7,29,2,2
0,6,170,1,2
1,6,169,2,2
1,6,6,2,2
1,6,91,2,2
1,6,62,1,2
1,7,8,2,2
0,6,81,2,2
1,6,49,2,2
1,6,37,2,2
1,6,320,2,2
0,5,575,1,2
1,6,76,2,2
1,6,72,2,2
0,6,178,2,2
0,6,25,2,2
1,6,81,2,2
0,6,117,2,2
0,6,78,2,2
1,6,28,2,2
1,6,75,2,2
1,6,21,2,2
0,6,523,1,2
1,7,180,2,2
1,6,289,2,2
1,6,232,2,2
1,7,75,3,2
1,6,63,2,2
1,6,66,2,2
1,7,5,2,2
1,6,74,3,2
0,6,34,2,2
1,6,156,2,2
1,7,75,2,2
1,6,170,2,2
0,6,306,2,2
1,6,138,2,2
1,6,138,2,2
0,6,2,2,2
1,7,45,2,2
0,6,53,2,2
1,6,150,1,2
1,6,6,2,2
1,6,196,2,2
1,6,0,2,2
1,6,11,2,2
1,7,26,3,2
0,6,156,1,2
0,6,60,1,2
1,6,248,2,2
0,6,93,2,2
0,6,479,1,2
1,6,91,2,2
1,6,129,2,2
0,6,30,2,2
0,6,143,2,2
1,6,210,2,2
0,6,304,2,2
1,6,99,2,2
1,6,165,2,2
1,6,239,2,2
0,6,337,1,2
1,7,199,2,2
1,6,29,2,2
0,6,28,2,2
1,6,1,2,2
1,6,52,2,2
1,6,90,2,2
1,6,112,2,2
0,6,147,2,2
1,6,87,2,2
0,6,205,2,2
1,6,167,2,2
1,6,142,2,2
1,6,149,2,2
1,6,10,2,2
1,6,112,2,2
0,6,201,2,2
1,6,80,2,2
1,7,202,3,2
1,7,0,2,2
1,6,159,2,2
0,6,52,2,2
0,6,19,1,2
1,7,0,3,2
0,6,156,2,2
1,6,17,2,2
1,6,65,2,2
1,7,68,2,2
1,6,458,2,2
0,6,145,2,2
0,6,312,1,2
1,6,69,2,2
1,6,68,2,2
0,6,0,2,2
1,6,133,2,2
1,7,100,2,2
1,6,0,2,2
1,6,52,2,2
0,6,1,2,2
0,6,161,1,2
0,6,114,2,2
0,6,154,2,2
1,6,141,2,2
1,6,44,2,2
1,6,125,2,2
1,6,117,2,2
1,6,0,2,2
1,6,162,2,2
0,6,290,2,2
1,6,241,2,2
1,6,298,1,2
1,6,245,2,2
1,6,35,2,2
0,6,51,2,2
1,6,31,2,2
1,6,71,2,2
1,6,0,2,2
0,6,75,2,2
0,6,28,2,2
1,6,20,2,2
1,6,20,2,2
1,6,9,2,2
1,6,20,2,2
1,6,40,2,2
1,6,9,2,2
1,6,48,2,2
1,6,97,2,2
0,6,20,2,2
1,7,19,2,2
1,7,13,2,2
0,6,164,2,2
1,6,46,2,2
1,6,110,2,2
1,6,16,2,2
1,6,59,2,2
1,6,51,2,2
1,6,0,2,2
1,6,180,2,2
1,7,12,2,2
1,6,10,2,2
0,6,77,2,2
1,7,11,3,2
1,7,105,3,2
1,6,18,2,2
0,6,36,2,2
1,7,15,3,2
0,6,4,2,2
1,6,4,2,2
1,7,24,2,2
1,6,58,2,2
0,5,138,1,2
0,6,78,1,2
1,7,75,2,2
1,6,78,2,2
1,6,0,2,2
1,7,0,2,2
1,6,53,2,2
1,6,244,2,2
1,6,140,2,2
0,6,273,2,2
0,6,229,1,2
1,7,138,2,2
1,6,191,2,2
1,6,96,2,2
1,6,134,2,2
1,7,156,3,2
0,6,359,2,2
1,6,213,2,2
1,6,240,2,2
1,6,0,2,2
1,6,14,2,2
1,7,0,2,2
0,6,113,2,2
0,7,3,2,2
1,6,20,2,2
1,6,62,2,2
1,6,215,2,2
1,6,87,2,2
1,6,256,2,2
1,6,110,2,2
0,6,146,2,2
0,6,79,2,2
0,6,229,2,2
0,6,0,2,2
0,6,93,2,2
0,6,44,2,2
0,6,3,2,2
0,6,17,1,2
1,6,166,2,2
1,6,0,2,2
0,6,47,2,2
0,6,342,2,2
1,6,307,2,2
0,6,365,2,2
1,6,307,2,2
1,6,283,2,2
0,6,376,1,2
1,6,234,2,2
1,7,273,2,2
1,6,247,2,2
0,6,308,2,2
1,6,255,2,2
1,6,529,1,2
0,6,74,2,2
0,6,869,1,2
2,7,279,2,2
0,5,1023,0,2
1,7,105,3,2
1,6,658,2,2
2,7,167,3,2
0,5,688,1,2
1,6,152,2,2
0,6,852,1,2
1,6,463,2,2
1,6,415,2,2
1,6,383,2,2
1,7,62,2,2
0,6,444,1,2
1,6,650,2,2
1,6,281,2,2
0,6,640,1,2
2,7,126,3,2
0,5,723,1,2
1,6,241,2,2
1,7,421,2,2
1,7,262,2,2
1,6,419,2,2
1,6,311,2,2
0,5,938,1,2
2,7,9,3,2
12,18,1023,14,2
0,5,59,0,2
0,4,1023,0,2
2,7,280,3,2
0,5,1023,1,2
1,7,275,3,2
0,5,822,1,2
2,7,316,2,2
1,6,503,2,2
1,6,616,1,2
1,6,107,2,2
0,6,373,2,2
1,6,564,2,2
1,6,87,2,2
1,6,17,2,2
1,6,282,2,2
1,6,157,2,2
1,6,705,1,2
1,7,417,3,2
0,5,1023,0,2
0,5,877,0,2
0,5,973,1,2
1,7,828,2,2
0,5,867,1,2
4,9,793,5,2
0,5,977,0,2
1,6,423,2,2
0,5,657,1,2
1,6,688,2,2
1,6,431,2,2
0,6,540,2,2
1,6,128,2,2
1,6,148,2,2
1,6,328,2,2
1,6,167,2,2
11,17,1023,13,2
0,5,172,0,2
0,5,1023,1,2
2,7,240,3,2
0,5,1023,1,2
2,7,268,3,2
1,6,863,2,2
1,7,332,2,2
10,16,1023,12,2
0,5,59,1,2
0,5,783,0,2
0,6,547,1,2
1,6,428,2,2
1,7,223,2,2
1,7,383,2,2
1,6,182,2,2
0,6,528,1,2
1,6,167,2,2
1,6,113,2,2
0,6,430,1,2
1,7,193,2,2
1,7,123,2,2
0,6,588,1,2
1,7,234,2,2
1,6,376,1,2
1,6,373,1,2
7,12,1023,7,2
0,1,1023,0,2
0,5,751,0,2
7,12,1023,9,2
0,4,403,0,2
0,4,1023,0,2
1,6,96,2,2
1,6,808,1,2
1,6,689,1,2
0,2,1023,0,2
0,5,860,0,2
0,4,1023,0,2
9,14,1023,9,2
0,1,1023,0,2
0,5,745,0,2
0,5,209,0,2
12,17,1023,13,2
0,6,377,2,2
5,11,1023,7,2
0,5,511,1,2
0,3,1023,0,2
4,9,1023,5,2
0,6,1023,2,2
2,7,1023,1,2
0,6,1023,1,2
7,13,1023,9,2
0,1,1023,0,2
1,6,1023,2,2
0,6,35,1,2
9,15,1023,11,2
0,5,126,1,2
6,12,1023,7,2
2,7,207,3,2
10,16,1023,12,2
0,6,15,2,2
7,12,1023,8,2
2,7,48,3,2
9,15,1023,11,2
1,6,815,2,2
1,6,1023,2,2
0,5,359,1,2
8,12,872,8,2
0,5,494,0,2
0,5,439,1,2
0,5,1023,1,2
1,6,1023,1,2
0,5,573,0,2
7,12,1023,8,2
0,5,103,1,2
11,17,1023,13,2
0,6,210,2,2
9,14,1023,10,2
1,7,315,3,2
0,4,820,0,2
10,15,1023,11,2
0,3,1023,0,2
0,5,496,0,2
0,4,25,0,2
11,17,1023,13,2
0,6,83,2,2
8,13,1023,9,2
0,6,391,1,2
4,9,846,4,2
0,4,95,0,2
8,13,1023,8,2
0,5,47,1,2
0,5,817,1,2
13,17,1023,14,2
0,5,545,0,2
0,5,726,0,2
1,6,27,2,2
0,6,1023,3,2
0,5,527,0,2
0,5,61,0,2
0,5,693,1,2
1,6,20,2,2
0,5,959,0,2
9,13,690,8,2
0,5,594,0,2
0,5,494,1,2
1,7,60,2,2
0,6,971,1,2
1,6,721,2,2
1,6,813,1,2
2,7,85,3,2
1,6,36,2,2
1,7,223,2,2
1,6,475,2,2
0,6,15,2,2
0,6,601,1,2
1,7,397,2,2
1,6,243,2,2
1,6,32,2,2
0,6,587,1,2
2,7,107,3,2
0,6,10,2,2
0,5,882,1,2
2,7,389,3,2
1,6,655,2,2
0,5,701,1,2
1,7,1,2,2
1,6,106,2,2
0,6,202,2,2
1,6,378,1,2
1,6,212,2,2
0,6,441,1,2
1,6,247,1,2
1,7,134,2,2
0,6,415,1,2
0,5,554,1,2
1,7,196,2,2
1,6,409,2,2
0,6,171,2,2
1,7,265,2,2
1,7,148,3,2
1,6,102,2,2
0,5,753,1,2
1,7,0,3,2
1,6,116,2,2
0,6,137,1,2
1,6,228,2,2
1,6,75,2,2
0,6,0,2,2
1,6,288,2,2
1,7,0,3,2
0,6,39,2,2
0,6,142,2,2
1,6,273,2,2
0,6,263,2,2
0,6,267,1,2
1,6,38,2,2
1,7,32,2,2
0,6,78,2,2
1,7,126,2,2
1,7,11,3,2
0,6,97,2,2
0,6,0,2,2
1,7,221,2,2
1,6,299,2,2
0,6,572,1,2
1,6,573,2,2
1,6,574,1,2
1,6,210,2,2
1,6,255,2,2
1,7,309,2,2
0,6,80,2,2
1,6,52,2,2
1,6,256,2,2
1,6,5,2,2
1,6,128,1,2
1,6,29,2,2
1,6,45,2,2
0,6,123,2,2
1,6,114,2,2
1,6,461,2,2
1,6,771,1,2
1,6,356,2,2
1,7,115,3,2
1,7,242,2,2
1,6,0,1,2
1,6,105,2,2
1,6,3,2,2
0,6,3,2,2
0,6,14,2,2
1,6,343,2,2
1,6,38,2,2
1,6,104,2,2
1,6,349,2,2
1,7,211,2,2
0,6,83,2,2
1,6,160,2,2
1,6,247,2,2
0,6,28,2,2
0,5,281,2,2
1,7,55,2,2
1,6,38,2,2
0,6,333,1,2
1,6,155,2,2
0,6,303,1,2
1,6,54,2,2
0,6,328,2,2
1,6,17,2,2
0,5,535,1,2
1,7,150,3,2
1,7,103,2,2
0,6,181,2,2
0,6,15,1,2
1,6,167,2,2
0,6,323,2,2
1,6,9,2,2
1,6,65,2,2
1,6,0,2,2
0,6,91,2,2
1,7,1,3,2
1,6,55,2,2
0,5,553,1,2
1,6,58,2,2
1,6,313,2,2
1,6,316,2,2
0,6,63,2,2
1,6,172,2,2
1,7,285,2,2
0,6,29,1,2
0,5,180,1,2
1,7,5,2,2
0,6,87,2,2
0,6,376,1,2
2,7,0,3,2
0,6,483,1,2
0,6,376,1,2
1,6,703,2,2
2,7,24,3,2
0,6,500,1,2
1,6,300,2,2
1,7,35,3,2
1,6,408,1,2
1,6,155,2,2
1,6,108,2,2
0,6,151,2,2
1,6,232,2,2
1,6,108,2,2
1,7,108,2,2
1,6,8,2,2
1,6,77,2,2
1,7,113,2,2
0,6,439,2,2
0,6,284,2,2
1,7,195,2,2
0,6,448,1,2
1,7,33,3,2
1,7,84,2,2
1,6,29,2,2
0,6,1,2,2
1,6,0,2,2
1,7,44,2,2
1,6,15,2,2
1,6,140,2,2
1,6,65,2,2
1,7,18,2,2
0,6,137,2,2
1,6,394,2,2
1,6,139,2,2
0,6,335,1,2
1,6,268,1,2
1,6,347,2,2
0,6,289,2,2
0,6,203,2,2
1,7,69,2,2
1,7,0,3,2
0,6,68,2,2
0,6,383,1,2
0,6,297,2,2
0,6,501,1,2
1,7,135,2,2
1,7,96,2,2
1,6,259,2,2
0,6,169,2,2
1,6,71,2,2
1,6,126,2,2
1,6,105,1,2
1,6,2,2,2
0,6,182,2,2
0,6,11,2,2
1,6,1,2,2
0,6,415,1,2
0,6,0,2,2
0,6,134,2,2
1,6,310,2,2
1,6,3,2,2
1,6,0,2,2
1,6,148,2,2
1,6,318,2,2
0,6,135,2,2
1,6,65,2,2
1,6,119,2,2
0,6,0,2,2
1,6,1,2,2
0,6,101,2,2
1,6,160,2,2
1,6,83,2,2
1,6,51,2,2
0,6,439,1,2
1,6,68,2,2
0,6,57,2,2
0,6,4,2,2
0,6,54,2,2
1,6,69,2,2
1,6,43,2,2
0,6,62,2,2
1,6,0,2,2
1,6,451,1,2
1,6,166,2,2
0,6,447,1,2
1,7,190,2,2
1,7,88,2,2
0,6,0,2,2
1,6,0,2,2
1,6,155,2,2
0,6,37,2,2
0,6,42,2,2
0,6,360,2,2
1,6,254,2,2
1,6,275,2,2
1,6,145,2,2
0,7,4,2,2
1,6,19,2,2
1,6,75,2,2
1,7,46,2,2
1,6,34,2,2
1,6,96,2,2
1,6,1,2,2
0,6,0,2,2
1,6,40,2,2
1,6,0,2,2
1,7,0,2,2
0,6,329,1,2
0,6,196,2,2
1,6,3,2,2
0,6,366,1,2
1,6,122,2,2
1,6,148,2,2
1,6,125,2,2
0,6,136,2,2
1,6,40,2,2
1,6,64,2,2
0,6,0,2,2
1,6,0,2,2
1,6,85,2,2
1,6,73,2,2
0,6,116,2,2
1,6,72,2,2
1,6,46,2,2
0,6,214,1,2
1,6,25,2,2
1,6,0,2,2
1,6,253,2,2
1,6,59,2,2
1,6,0,2,2
1,6,198,2,2
1,6,91,2,2
1,6,0,2,2
1,7,9,2,2
1,6,37,2,2
1,6,83,2,2
1,7,80,3,2
1,7,37,2,2
0,6,15,2,2
1,6,57,3,2
1,7,116,3,2
1,6,73,2,2
1,7,90,2,2
1,7,115,2,2
1,6,52,2,2
1,7,17,3,2
1,7,0,3,2
1,6,5,2,2
0,6,0,2,2
0,6,59,1,2
0,6,20,2,2
1,6,220,2,2
1,7,42,2,2
1,6,9,2,2
1,6,72,2,2
1,6,0,2,2
1,6,48,2,2
1,6,66,2,2
0,6,0,2,2
1,7,3,2,2
0,6,5,2,2
0,6,82,2,2
1,6,147,2,2
1,6,4,2,2
1,6,92,2,2
0,6,0,2,2
1,7,23,3,2
0,6,8,2,2
0,6,33,2,2
1,7,20,3,2
1,6,11,2,2
1,6,73,2,2
0,6,12,2,2
1,6,91,2,2
0,6,22,2,2
1,6,0,2,2
0,6,34,2,2
1,6,0,2,2
0,6,31,2,2
1,6,53,2,2
1,6,31,2,2
1,6,159,2,2
0,6,63,2,2
0,6,59,1,2
1,6,69,2,2
1,6,3,2,2
1,6,17,2,2
1,6,173,2,2
1,6,11,2,2
0,6,404,1,2
0,6,194,2,2
0,6,458,1,2
1,6,463,2,2
1,6,248,2,2
0,6,596,1,2
1,7,33,2,2
1,6,346,1,2
1,6,242,2,2
1,6,77,2,2
0,6,70,2,2
1,6,556,1,2
1,6,418,2,2
0,6,673,1,2
1,6,523,2,2
2,7,10,3,2
0,5,902,1,2
1,6,671,2,2
0,5,1023,0,2
0,4,795,0,2
0,5,94,1,2
0,5,284,1,2
0,6,180,1,2
1,6,106,2,2
1,6,74,2,2
0,6,52,2,2
0,6,6,2,2
0,6,589,2,2
1,6,92,2,2
0,5,787,0,2
1,7,272,2,2
0,6,776,1,2
1,6,758,2,2
0,5,882,0,2
0,5,1023,1,2
2,7,44,3,2
1,6,691,2,2
1,6,228,2,2
1,6,168,2,2
1,6,89,2,2
1,6,301,2,2
1,6,305,1,2
1,6,90,2,2
0,6,525,1,2
1,6,0,2,2
1,6,68,2,2
1,6,144,2,2
1,6,516,2,2
1,7,17,2,2
1,6,367,2,2
1,6,168,2,2
0,6,892,1,2
2,7,238,3,2
1,6,618,1,2
2,7,2,3,2
1,6,479,2,2
0,5,712,1,2
1,7,209,2,2
1,6,364,2,2
1,7,247,2,2
1,7,325,2,2
1,7,30,2,2
1,6,470,2,2
1,7,1023,2,2
1,7,86,2,2
1,7,175,2,2
1,7,206,2,2
0,6,626,1,2
1,6,532,2,2
1,7,408,2,2
1,6,757,1,2
1,7,176,3,2
0,6,659,1,2
0,5,860,1,2
2,7,486,3,2
0,4,1023,0,2
0,6,332,1,2
1,6,101,2,2
0,6,168,2,2
0,6,154,1,2
1,6,369,2,2
1,6,196,2,2
0,6,629,1,2
1,7,176,2,2
1,7,130,2,2
1,6,251,2,2
1,7,153,2,2
1,6,0,1,2
0,5,888,1,2
1,7,363,2,2
0,6,1023,1,2
2,7,127,3,3
1,6,1023,2,3
2,7,22,4,3
14,20,1023,16,3
0,5,849,0,3
0,5,776,0,3
0,6,69,1,3
2,8,1023,4,3
0,4,71,0,3
2,7,1019,3,3
0,5,1023,0,3
0,5,13,1,3
0,5,778,0,3
1,7,71,3,3
0,5,1023,1,3
0,5,372,0,3
0,5,776,0,3
1,7,216,2,3
10,15,1023,11,3
0,5,253,0,3
8,14,1023,10,3
0,5,404,1,3
11,16,1023,13,3
0,5,670,1,3
8,13,1023,9,3
0,5,362,1,3
0,5,381,0,3
0,6,87,2,3
0,5,242,1,3
0,6,254,1,3
0,5,1004,0,3
0,6,736,1,3
2,7,3,3,3
9,15,1023,12,3
0,5,459,1,3
0,4,1023,0,3
0,5,598,0,3
7,13,1023,9,3
1,7,462,2,3
0,5,1023,2,3
4,9,1023,5,3
3,9,1023,5,3
0,6,505,2,3
0,5,807,0,3
12,17,1023,13,3
0,6,907,2,3
5,10,1023,6,3
2,7,596,3,3
10,15,1023,12,3
2,7,945,3,3
2,7,1023,3,3
1,6,214,2,3
10,16,1023,12,3
0,6,326,1,3
3,9,1023,6,3
0,5,125,1,3
0,5,640,0,3
7,12,1023,8,3
0,5,460,1,3
9,15,1023,11,3
0,4,383,0,3
0,5,20,1,3
1,6,111,2,3
1,6,190,2,3
0,5,613,1,3
2,6,240,3,3
1,7,426,3,3
0,5,900,1,3
1,7,640,2,3
0,4,1023,0,3
0,5,1023,0,3
3,8,1023,4,3
0,4,744,0,3
8,14,1023,9,3
1,7,1023,2,3
0,4,150,1,3
0,5,312,0,3
15,20,1023,16,3
1,6,786,2,3
0,2,1023,0,3
0,5,493,0,3
13,18,1023,14,3
0,2,1023,0,3
1,6,440,2,3
0,5,207,0,3
0,5,573,0,3
11,16,1023,13,3
0,5,440,1,3
1,6,848,1,3
0,5,248,0,3
0,5,1023,0,3
10,15,1023,9,3
0,2,1023,0,3
0,5,742,0,3
0,5,299,0,3
4,9,1023,5,3
0,5,430,0,3
0,5,927,0,3
1,6,496,2,3
0,5,968,1,3
1,6,404,2,3
1,6,357,1,3
1,7,105,2,3
1,6,229,2,3
0,6,214,2,3
1,7,53,3,3
1,7,165,2,3
0,6,104,1,3
1,6,96,2,3
1,6,302,2,3
0,5,539,1,3
0,6,22,2,3
1,7,70,3,3
1,6,92,2,3
0,6,28,1,3
1,6,43,3,3
8,14,1023,11,3
0,5,667,0,3
0,5,405,1,3
1,7,101,2,3
1,6,250,2,3
0,6,352,1,3
1,6,354,2,3
1,7,131,3,3
0,6,475,1,3
1,6,412,2,3
2,7,103,3,3
1,6,306,2,3
1,6,188,2,3
1,7,296,2,3
1,6,55,3,3
1,6,410,1,3
1,7,81,2,3
0,6,76,2,3
0,6,163,1,3
1,6,253,2,3
1,6,214,2,3
1,6,177,2,3
0,6,288,2,3
1,6,658,2,3
1,6,504,1,3
1,6,279,2,3
1,6,274,2,3
0,6,473,2,3
0,6,417,1,3
0,6,404,2,3
1,7,66,3,3
1,6,107,2,3
1,7,101,2,3
1,6,416,2,3
1,6,21,2,3
1,6,245,2,3
1,7,125,2,3
1,6,111,2,3
0,6,65,2,3
1,6,29,2,3
0,6,0,2,3
0,6,32,2,3
0,6,65,2,3
1,6,289,2,3
1,6,36,2,3
0,6,133,2,3
1,6,271,2,3
1,6,387,2,3
0,6,370,1,3
1,6,333,2,3
1,6,618,1,3
1,6,57,2,3
0,6,350,2,3
1,7,34,3,3
1,6,116,2,3
0,6,7,2,3
1,6,127,3,3
1,6,89,2,3
0,6,74,1,3
1,6,167,2,3
1,7,106,2,3
1,6,0,2,3
1,6,12,2,3
1,7,304,2,3
1,6,5,2,3
1,6,69,2,3
1,6,0,2,3
1,6,12,2,3
0,6,24,2,3
1,6,176,2,3
1,7,0,2,3
0,6,103,1,3
1,6,33,2,3
1,6,191,2,3
1,6,17,2,3
0,6,5,2,3
1,7,0,3,3
1,6,39,2,3
0,6,139,2,3
1,6,248,2,3
1,6,170,2,3
0,6,0,2,3
1,6,272,1,3
1,7,109,2,3
1,6,92,2,3
0,6,167,1,3
1,6,54,2,3
1,6,131,2,3
1,6,223,1,3
1,6,391,2,3
1,6,373,2,3
1,6,139,2,3
0,6,472,2,3
1,7,225,2,3
1,6,3,2,3
0,6,133,2,3
1,6,88,2,3
1,6,125,2,3
1,6,98,2,3
1,6,0,2,3
1,6,35,2,3
1,6,202,2,3
0,6,28,2,3
1,6,319,2,3
0,6,422,1,3
1,7,0,2,3
1,6,262,2,3
1,6,43,2,3
0,6,96,2,3
1,6,67,2,3
1,6,271,1,3
1,6,68,2,3
1,6,237,2,3
1,6,39,3,3
1,6,0,2,3
1,6,103,2,3
1,6,0,2,3
1,6,70,2,3
1,6,24,2,3
1,7,101,2,3
0,6,479,1,3
1,6,242,2,3
1,6,318,2,3
1,6,164,2,3
1,6,0,2,3
1,6,123,2,3
1,7,190,2,3
1,6,195,2,3
0,6,26,2,3
1,6,353,2,3
1,6,50,2,3
0,6,0,2,3
1,6,0,2,3
1,6,146,2,3
1,6,70,2,3
0,6,65,2,3
1,6,388,2,3
1,7,345,2,3
1,6,165,2,3
1,7,377,2,3
1,7,238,2,3
1,6,100,2,3
1,6,263,2,3
1,6,45,2,3
0,6,185,2,3
1,6,60,2,3
1,6,147,2,3
1,6,163,2,3
1,6,115,2,3
1,6,100,1,3
1,7,327,2,3
1,6,187,2,3
1,6,249,2,3
1,6,191,2,3
0,6,206,2,3
0,5,422,1,3
1,6,102,2,3
1,6,219,2,3
1,6,170,2,3
1,6,86,2,3
1,6,75,2,3
1,6,154,2,3
1,6,325,2,3
1,6,256,2,3
1,6,155,2,3
1,6,272,2,3
1,6,11,2,3
1,6,40,2,3
1,7,67,2,3
1,6,79,2,3
1,6,0,3,3
0,6,52,2,3
1,6,6,2,3
1,6,28,2,3
1,6,0,2,3
0,6,30,2,3
1,6,180,2,3
1,6,101,2,3
0,6,221,1,3
1,6,103,2,3
1,6,82,2,3
0,6,28,2,3
1,6,127,3,3
1,7,280,2,3
0,6,146,2,3
0,6,158,1,3
1,6,211,2,3
1,6,49,2,3
1,6,0,2,3
1,6,85,2,3
1,6,5,2,3
1,6,78,2,3
1,6,4,2,3
0,6,112,2,3
0,6,191,2,3
1,6,12,2,3
1,6,29,2,3
0,6,200,2,3
0,6,66,1,3
1,7,131,2,3
0,6,188,2,3
1,6,0,2,3
0,6,215,2,3
0,6,46,2,3
1,6,290,1,3
1,6,63,2,3
1,6,150,2,3
1,7,59,2,3
1,7,145,2,3
1,6,114,2,3
1,6,69,2,3
1,6,110,2,3
1,6,103,2,3
1,6,81,2,3
0,6,4,2,3
0,6,13,2,3
1,7,142,2,3
1,6,22,2,3
0,6,108,1,3
1,6,14,2,3
0,6,0,2,3
1,6,102,1,3
1,6,70,2,3
1,6,156,2,3
0,6,321,2,3
1,6,58,2,3
1,6,130,2,3
1,6,75,2,3
0,6,12,2,3
1,6,30,2,3
1,7,26,2,3
1,6,0,2,3
1,6,1,2,3
1,6,18,3,3
1,6,23,2,3
1,6,19,1,3
1,6,14,2,3
1,6,51,2,3
0,6,76,2,3
1,6,88,2,3
1,6,0,2,3
0,6,54,2,3
1,6,0,2,3
1,6,144,2,3
0,6,93,2,3
0,6,85,2,3
1,6,153,2,3
1,6,66,2,3
0,5,184,2,3
1,6,111,2,3
1,7,7,3,3
0,6,0,2,3
1,6,14,2,3
1,6,6,2,3
1,6,0,2,3
1,6,45,2,3
1,6,150,2,3
1,6,267,2,3
1,6,55,2,3
1,6,45,2,3
1,6,4,2,3
0,6,0,2,3
1,6,0,2,3
1,6,50,2,3
1,6,5,2,3
0,6,0,2,3
0,7,93,2,3
1,6,36,2,3
0,6,0,2,3
1,6,39,2,3
1,6,144,2,3
1,6,109,2,3
0,6,97,2,3
1,6,287,2,3
1,6,18,2,3
0,6,21,2,3
1,6,113,2,3
0,6,89,2,3
1,6,57,2,3
1,6,179,2,3
1,6,17,2,3
1,7,39,2,3
1,6,42,2,3
1,6,0,2,3
1,6,10,2,3
1,6,76,2,3
0,6,491,1,3
0,6,87,2,3
0,5,445,1,3
1,7,261,3,3
1,6,212,2,3
0,6,66,1,3
1,6,23,2,3
1,7,77,3,3
0,6,148,1,3
0,6,121,2,3
1,6,0,2,3
1,6,15,2,3
0,6,29,2,3
1,6,181,2,3
1,7,136,2,3
0,6,218,1,3
1,6,5,2,3
1,7,35,2,3
0,5,176,1,3
0,6,27,2,3
0,6,114,2,3
0,6,143,2,3
1,6,20,2,3
0,6,37,2,3
0,6,433,2,3
1,6,187,2,3
0,6,433,1,3
1,6,299,2,3
0,6,383,2,3
1,6,153,2,3
1,6,76,2,3
0,6,238,1,3
0,6,424,1,3
1,7,3,3,3
1,6,199,2,3
0,6,375,2,3
0,6,203,1,3
0,6,269,2,3
0,6,203,2,3
1,7,0,3,3
1,6,494,2,3
0,6,360,2,3
0,5,766,1,3
0,6,808,1,3
1,7,261,3,3
0,6,679,2,3
1,7,161,2,3
0,5,696,1,3
1,6,184,2,3
1,7,128,2,3
1,6,79,2,3
1,6,244,2,3
1,6,417,2,3
0,6,428,1,3
0,5,812,1,3
1,6,110,2,3
1,6,511,2,3
1,6,285,2,3
1,6,37,2,3
0,6,345,2,3
1,6,390,2,3
0,6,143,2,3
0,6,193,2,3
1,6,206,2,3
1,7,1,2,3
1,6,0,2,3
1,6,118,2,3
1,7,155,2,3
0,6,308,1,3
1,6,69,2,3
0,6,347,1,3
0,4,1023,0,3
0,5,434,0,3
4,10,1023,7,3
0,5,908,0,3
0,5,314,0,3
0,5,830,0,3
1,6,79,2,3
0,6,708,1,3
2,7,91,2,3
1,6,875,1,3
1,6,635,2,3
1,6,338,2,3
1,6,597,1,3
1,6,696,2,3
0,6,951,1,3
0,5,886,1,3
8,12,1023,7,3
0,4,714,0,3
0,5,832,1,3
1,6,532,2,3
1,6,331,2,3
0,6,396,1,3
2,7,34,3,3
1,6,698,2,3
0,6,170,2,3
1,6,0,2,3
1,6,110,3,3
0,5,725,1,3
1,6,548,2,3
12,17,1023,13,3
0,5,734,0,3
8,13,1023,9,3
0,5,384,1,3
0,5,631,0,3
0,6,487,1,3
1,6,195,2,3
1,6,785,1,3
1,6,333,2,3
11,16,1023,11,3
5,11,1023,8,3
0,5,45,1,3
8,13,1023,9,3
0,5,26,1,3
0,4,1023,0,3
1,6,199,2,3
0,5,816,1,3
0,6,890,1,3
1,7,359,2,3
0,4,1023,0,3
0,5,145,1,3
0,6,747,1,3
1,6,155,2,3
0,6,265,1,3
0,6,629,1,3
1,7,557,2,3
2,7,188,3,3
1,7,137,3,3
0,6,143,2,3
0,6,377,1,3
1,6,107,2,3
1,6,424,2,3
0,5,1023,1,3
1,6,748,2,3
9,14,1023,9,3
0,5,426,0,3
0,5,1023,0,3
2,7,739,2,3
10,16,1023,12,3
0,5,123,1,3
0,5,1022,0,3
0,6,496,1,3
0,5,395,1,3
1,7,49,2,3
1,6,9,2,3
0,5,1023,1,3
1,7,525,2,3
11,16,1023,12,3
0,5,162,0,3
0,5,734,0,3
1,7,313,2,3
0,6,466,1,3
0,6,509,2,3
2,7,300,3,3
2,7,64,3,3
0,5,446,1,3
1,7,15,2,3
1,7,531,2,3
1,6,253,2,3
9,14,1023,11,3
0,4,1023,0,3
1,6,755,1,3
4,9,1023,4,3
0,4,983,0,3
9,14,1023,10,3
0,3,1023,0,3
0,5,1023,0,3
0,6,701,1,3
9,14,1023,9,3
0,4,548,0,3
0,5,525,1,3
0,6,162,1,3
8,14,1023,10,3
0,5,365,0,3
9,15,1023,11,3
0,5,138,1,3
10,15,1023,11,3
1,6,536,2,3
4,10,1023,5,3
0,5,232,1,3
9,14,1023,11,3
1,7,785,2,3
0,4,864,0,3
0,6,165,1,3
0,5,1023,0,3
0,5,343,1,3
0,5,657,0,3
7,11,1023,6,3
0,5,453,0,3
12,17,1023,13,3
0,6,553,2,3
0,5,695,0,3
0,5,6,0,3
0,5,800,0,3
1,6,89,2,3
1,6,16,2,3
1,7,207,2,3
1,7,136,3,3
0,5,886,1,3
1,6,269,2,3
1,6,354,2,3
1,7,0,2,3
1,6,371,2,3
1,6,694,2,3
1,6,682,2,3
9,13,1023,8,3
0,4,1017,0,3
2,7,524,2,3
2,7,1023,3,3
0,5,5,1,3
0,3,1023,0,3
0,4,1023,0,3
0,5,1023,1,3
0,5,578,0,3
0,5,866,0,3
1,6,490,2,3
0,6,498,1,3
1,6,434,2,3
11,17,1023,13,3
0,5,561,0,3
1,6,51,2,3
0,6,725,1,3
1,6,67,2,3
0,6,690,1,3
1,7,24,3,3
0,6,505,2,3
1,7,377,2,3
1,6,700,2,3
1,7,99,2,3
1,6,848,2,3
0,5,876,1,3
0,6,685,1,3
0,5,754,1,3
1,7,186,3,3
0,6,850,1,3
1,6,648,1,3
1,7,452,2,3
1,6,627,1,3
0,5,626,0,3
0,6,935,1,3
2,9,1023,5,3
0,5,8,0,3
0,5,375,1,3
0,5,1023,1,3
1,7,533,2,3
0,5,840,1,3
1,6,707,1,3
1,7,351,2,3
0,6,561,1,3
1,6,259,2,3
1,7,264,3,3
1,6,129,2,3
0,5,595,1,3
1,6,651,2,3
0,5,584,1,3
1,6,132,2,3
1,6,575,2,3
1,7,171,3,3
0,6,137,1,3
1,6,198,2,3
1,7,82,3,3
0,6,14,2,3
0,6,9,2,3
1,6,611,1,3
1,7,100,2,3
0,5,438,1,3
1,6,367,2,3
1,6,281,2,3
0,6,105,2,3
1,6,56,2,3
1,6,45,2,3
1,6,386,1,3
1,6,4,2,3
1,7,139,2,3
1,6,249,2,3
1,6,70,2,3
1,6,108,2,3
1,6,49,3,3
1,6,107,1,3
0,6,407,1,3
1,6,271,2,3
1,6,238,2,3
1,6,0,2,3
1,6,147,2,3
1,6,1,2,3
0,6,359,1,3
1,6,49,2,3
1,6,127,2,3
0,6,100,2,3
0,6,452,1,3
1,7,0,2,3
1,6,161,2,3
0,6,240,1,3
1,7,0,3,3
0,6,364,2,3
1,6,38,2,3
1,6,223,1,3
1,7,30,2,3
0,6,342,1,3
1,6,133,2,3
1,7,238,2,3
1,6,115,2,3
1,6,12,2,3
1,6,114,2,3
1,6,324,2,3
1,6,1,2,3
1,6,77,2,3
1,6,33,2,3
1,6,407,2,3
1,6,115,2,3
1,6,383,2,3
1,6,327,2,3
1,6,203,2,3
1,6,181,2,3
1,6,55,2,3
0,6,0,2,3
1,6,59,2,3
1,6,79,2,3
0,6,468,1,3
1,6,230,2,3
1,7,11,3,3
0,6,394,1,3
1,6,309,2,3
1,7,276,2,3
1,6,91,2,3
1,6,112,2,3
1,6,167,2,3
1,6,216,2,3
1,6,10,2,3
0,6,180,2,3
1,6,196,2,3
0,6,205,2,3
0,6,210,2,3
0,6,569,1,3
1,6,58,2,3
1,6,62,2,3
1,6,22,2,3
1,6,458,1,3
1,6,121,2,3
0,6,471,1,3
1,7,139,2,3
1,6,120,2,3
0,6,221,2,3
1,6,61,2,3
1,6,264,2,3
0,6,107,2,3
1,6,335,2,3
1,6,253,2,3
0,6,462,1,3
1,6,286,2,3
1,7,117,2,3
1,6,41,2,3
0,6,0,2,3
1,6,33,2,3
1,6,129,2,3
0,6,3,2,3
1,7,80,2,3
1,6,354,2,3
0,6,338,2,3
1,6,126,2,3
1,7,128,2,3
1,6,0,2,3
0,6,31,2,3
1,6,246,2,3
1,7,99,2,3
0,6,122,1,3
1,7,22,2,3
0,6,376,2,3
1,6,379,2,3
1,6,76,2,3
1,6,0,2,3
1,6,90,2,3
1,6,299,2,3
1,6,168,2,3
1,7,0,3,3
1,6,140,2,3
1,6,28,2,3
1,6,0,2,3
1,6,200,2,3
0,6,493,1,3
1,7,0,3,3
1,6,203,2,3
0,5,141,1,3
0,6,163,1,3
0,6,192,1,3
1,6,276,2,3
1,7,73,3,3
1,6,114,2,3
1,6,148,2,3
0,6,107,2,3
1,6,263,2,3
1,6,248,2,3
0,6,369,1,3
1,6,95,2,3
1,7,101,2,3
0,6,116,2,3
1,7,286,2,3
0,6,390,1,3
1,6,201,2,3
0,6,200,2,3
1,6,273,2,3
0,6,359,1,3
0,5,405,1,3
1,7,259,2,3
1,7,10,3,3
1,6,5,2,3
1,6,360,1,3
1,6,21,2,3
0,6,222,2,3
1,6,47,2,3
1,7,1023,1,3
0,5,1023,0,3
0,5,334,1,3
0,6,117,1,3
0,6,13,1,3
1,6,0,2,3
1,6,60,2,3
1,6,114,2,3
1,7,0,2,3
1,6,42,2,3
1,6,328,2,3
1,6,98,2,3
1,6,470,2,3
1,6,103,2,3
0,6,337,2,3
1,6,6,2,3
1,6,191,2,3
1,6,59,2,3
1,6,14,2,3
0,6,0,2,3
0,6,212,1,3
0,6,39,2,3
1,6,19,2,3
1,7,87,2,3
1,6,0,2,3
1,6,28,2,3
0,6,110,2,3
1,7,32,2,3
0,6,181,2,3
0,6,145,1,3
1,6,40,2,3
0,6,86,2,3
0,6,28,1,3
1,6,46,2,3
1,6,128,2,3
0,6,207,1,3
1,6,25,2,3
1,6,15,2,3
1,6,43,2,3
1,6,94,2,3
1,6,10,2,3
1,6,0,2,3
1,6,3,2,3
1,6,15,2,3
1,6,20,2,3
0,6,0,1,3
1,6,5,2,3
1,6,0,2,3
0,6,36,2,3
0,6,54,2,3
1,6,22,2,3
1,6,213,2,3
1,6,46,2,3
1,6,35,2,3
1,6,5,2,3
0,6,29,2,3
1,6,0,2,3
1,6,14,2,3
1,6,59,2,3
1,6,50,2,3
1,6,43,2,3
1,6,37,2,3
1,6,45,2,3
1,6,174,2,3
1,6,53,2,3
1,6,32,2,3
1,7,17,3,3
1,7,9,3,3
1,7,34,3,3
0,5,0,1,3
0,6,26,1,3
1,6,0,2,3
1,7,55,2,3
1,6,54,2,3
1,6,31,2,3
1,6,68,2,3
1,6,0,2,3
1,7,0,3,3
1,6,67,2,3
0,6,55,2,3
1,6,10,2,3
1,6,6,2,3
0,6,0,2,3
1,6,24,2,3
1,6,45,2,3
0,6,17,2,3
1,6,51,2,3
1,6,5,2,3
0,5,24,2,3
1,6,262,2,3
1,6,10,2,3
1,6,103,2,3
0,6,222,1,3
1,7,95,3,3
1,6,287,2,3
0,6,91,2,3
0,5,231,1,3
1,6,170,2,3
1,6,196,2,3
1,6,226,2,3
1,6,26,2,3
0,6,0,2,3
0,6,263,2,3
1,7,23,3,3
1,6,206,2,3
0,6,329,1,3
1,6,8,2,3
1,7,16,2,3
1,6,199,2,3
0,6,282,2,3
0,6,150,2,3
1,6,293,2,3
1,6,110,2,3
1,6,125,2,3
1,7,83,3,3
1,6,10,2,3
1,6,23,2,3
1,6,116,2,3
1,6,17,2,3
1,6,76,2,3
1,6,86,2,3
1,6,94,2,3
0,6,78,2,3
0,6,597,1,3
1,6,237,1,3
0,5,763,0,3
2,7,281,3,3
1,7,237,2,3
0,5,560,1,3
1,6,19,2,3
1,6,744,1,3
1,6,237,2,3
0,6,352,2,3
1,6,432,2,3
1,7,52,3,3
0,5,1023,0,3
1,7,480,2,3
1,7,304,2,3
1,6,206,2,3
1,6,188,2,3
1,6,0,2,3
1,6,235,2,3
0,5,1023,1,3
1,7,319,2,3
8,14,1023,10,3
0,5,824,0,3
0,4,558,0,3
0,6,496,1,3
1,6,254,2,3
1,6,402,1,3
0,5,725,1,3
0,6,835,1,3
1,6,319,2,3
0,4,1023,0,3
0,4,888,0,3
0,5,1023,0,3
5,10,1023,6,3
0,5,487,0,3
0,5,783,0,3
1,6,24,2,3
0,5,769,1,3
1,7,21,2,3
0,5,1023,0,3
2,7,472,3,3
1,6,525,2,3
0,6,1023,1,3
2,7,133,3,3
0,6,812,1,3
1,7,78,2,3
1,6,794,2,3
1,7,223,2,3
0,6,151,1,3
0,6,430,1,3
1,7,250,2,3
1,7,14,3,3
0,6,395,1,3
1,6,14,2,3
0,6,395,2,3
0,6,359,1,3
0,5,525,1,3
0,6,927,1,3
1,6,1023,1,3
0,5,715,0,3
0,5,863,0,3
2,7,978,2,3
0,2,1023,0,3
0,5,216,0,3
5,10,1023,7,3
0,5,61,1,3
0,4,1023,0,3
0,6,489,1,3
0,5,934,1,3
1,7,388,2,3
0,6,560,1,3
1,7,26,2,3
0,6,243,1,3
1,6,96,2,3
0,5,919,1,3
0,4,1023,0,3
0,5,41,1,3
0,5,1023,0,3
2,7,490,3,3
13,19,1023,15,3
0,6,608,1,3
6,12,1023,8,3
0,5,427,0,3
10,15,1023,11,3
0,3,1023,0,3
0,5,854,0,3
0,5,823,1,3
0,6,134,1,3
1,7,250,2,3
0,6,337,1,3
1,6,234,2,3
0,6,196,1,3
0,5,641,0,3
2,7,187,3,3
8,14,1023,11,3
0,5,708,0,3
0,5,220,0,3
0,5,395,0,3
6,11,972,6,3
0,5,560,0,3
2,7,528,2,3
0,4,1023,0,3
0,5,58,1,3
0,6,273,1,3
1,6,30,2,3
0,5,611,1,3
12,17,1023,14,3
0,5,35,0,3
0,5,698,0,3
1,6,5,2,3
0,5,573,1,3
0,5,1023,1,3
2,7,261,3,3
0,4,1023,1,3
0,5,614,1,3
0,5,1023,1,3
2,7,310,3,3
5,11,1023,7,3
0,5,535,0,3
0,5,381,1,3
13,18,1023,14,3
0,5,9,1,3
0,5,650,0,3
1,6,0,2,3
0,6,707,1,3
0,5,1023,1,3
14,20,1023,16,3
0,5,306,0,3
6,12,1023,8,3
0,5,212,1,3
10,15,1023,11,3
1,6,527,2,3
5,11,1023,7,3
0,5,570,0,3
11,17,1023,13,3
0,1,1023,0,3
2,7,1023,3,3
1,7,1015,2,3
0,5,574,0,3
0,5,3,1,3
0,5,744,0,3
0,6,22,2,3
9,15,1023,12,3
0,5,159,0,3
6,12,1023,7,3
0,6,126,2,3
9,15,1023,11,3
0,5,580,0,3
0,5,947,0,3
0,6,853,1,3
2,7,32,2,3
0,5,1023,0,3
0,5,63,1,3
16,21,1023,17,3
1,6,488,2,3
0,5,853,0,3
0,5,743,1,3
2,7,191,3,3
0,3,1023,0,3
0,5,401,0,3
0,5,634,0,3
1,6,41,2,3
15,20,1023,16,3
1,6,1023,1,3
5,10,1023,6,3
3,8,1023,4,3
4,9,1023,5,3
1,6,794,2,3
1,6,987,1,3
4,9,1023,6,3
0,5,53,1,3
5,10,1023,6,3
0,6,502,2,3
7,13,1023,10,3
0,5,51,1,3
4,10,1023,6,3
1,6,87,2,3
0,1,1023,0,3
0,5,104,1,3
0,4,875,0,3
1,7,189,3,3
0,6,483,1,3
1,6,137,2,3
1,7,349,2,3
1,6,177,2,3
0,6,631,1,3
3,8,1023,3,3
1,7,14,2,3
0,6,371,1,3
1,6,327,2,3
2,7,217,3,3
1,6,470,2,3
1,6,554,1,3
0,5,159,1,3
0,6,507,1,3
0,6,223,2,3
1,6,206,2,3
1,7,215,2,3
1,6,184,2,3
0,6,491,1,3
1,7,188,3,3
0,5,803,1,3
1,6,570,1,3
1,6,376,2,3
0,6,724,2,3
0,6,337,1,3
0,6,761,1,3
1,6,699,2,3
1,6,16,2,3
1,6,182,2,3
1,6,682,2,3
0,6,480,1,3
0,5,770,1,3
1,7,19,3,3
1,6,292,2,3
0,6,98,2,3
1,6,150,2,3
1,7,308,2,3
1,6,108,2,3
0,6,99,2,3
1,6,124,2,3
1,6,329,2,3
1,6,144,2,3
0,6,495,1,3
1,6,4,2,3
0,5,119,2,3
1,6,96,2,3
1,6,281,2,3
0,6,372,2,3
0,6,408,1,3
1,7,162,3,3
1,6,265,2,3
0,6,77,2,3
1,6,0,2,3
1,6,100,2,3
0,6,50,2,3
1,6,153,2,3
1,6,128,2,3
0,6,5,2,3
0,6,101,2,3
1,7,9,2,3
0,6,98,2,3
0,6,297,1,3
0,5,781,1,3
1,7,316,2,3
0,6,503,1,3
1,6,48,3,3
1,7,156,3,3
1,6,118,1,3
1,6,28,2,3
1,7,67,2,3
1,6,125,2,3
0,6,51,1,3
0,6,256,2,3
1,6,11,2,3
0,6,247,1,3
1,6,123,2,3
1,7,22,2,3
1,6,153,2,3
1,6,301,2,3
1,7,26,2,3
0,6,373,1,3
1,6,0,2,3
1,6,368,2,3
0,6,313,1,3
0,6,344,2,3
1,6,33,2,3
1,6,361,2,3
1,6,105,2,3
1,6,0,2,3
1,6,193,2,3
0,6,59,1,3
1,7,150,2,3
1,7,16,3,3
1,6,80,2,3
0,6,80,1,3
1,6,547,1,3
1,7,28,3,3
0,6,498,1,3
1,6,11,2,3
1,6,326,2,3
1,6,104,2,3
0,6,15,2,3
1,7,0,2,3
1,6,68,2,3
1,6,93,2,3
0,6,276,1,3
1,7,0,2,3
1,6,1,2,3
1,6,0,2,3
1,6,9,2,3
1,6,16,2,3
0,6,1,2,3
1,6,210,2,3
1,6,29,2,3
0,6,316,1,3
1,6,427,2,3
1,7,88,3,3
0,5,773,1,3
0,6,282,2,3
1,6,172,2,3
1,6,153,2,3
1,6,8,2,3
1,6,4,2,3
1,6,1,2,3
1,6,13,2,3
1,6,21,2,3
1,6,72,2,3
0,6,30,2,3
1,6,0,2,3
1,6,171,2,3
0,6,609,1,3
0,5,901,1,3
2,7,14,3,3
1,7,79,2,3
1,6,0,2,3
1,6,149,2,3
1,6,78,2,3
1,6,110,2,3
1,6,192,2,3
1,7,33,2,3
1,6,5,2,3
0,6,28,2,3
0,6,0,2,3
1,7,0,2,3
0,6,47,2,3
1,6,163,2,3
1,6,58,2,3
0,6,281,1,3
1,7,270,2,3
1,7,210,2,3
1,6,16,2,3
1,6,9,2,3
0,6,247,2,3
0,6,648,1,3
2,7,8,4,3
0,5,838,0,3
1,7,19,3,3
0,6,80,2,3
1,6,7,2,3
1,6,60,2,3
1,6,75,2,3
0,6,4,2,3
1,6,78,2,3
1,6,69,2,3
0,6,193,1,3
0,6,292,1,3
1,6,9,2,3
1,6,50,2,3
1,6,381,2,3
1,7,21,2,3
1,6,92,2,3
0,6,326,1,3
1,7,133,3,3
1,7,291,2,3
0,6,336,1,3
1,7,379,2,3
2,7,59,3,3
1,6,19,2,3
0,6,282,1,3
1,6,52,2,3
1,6,117,2,3
1,7,58,3,3
1,7,20,2,3
0,6,71,1,3
0,6,24,2,3
0,6,49,1,3
0,6,150,2,3
1,6,282,1,3
1,6,32,2,3
0,5,554,1,3
1,7,102,3,3
1,6,58,2,3
1,6,75,2,3
0,6,298,1,3
1,6,35,2,3
1,6,166,2,3
1,6,117,2,3
0,6,444,1,3
1,6,95,2,3
1,7,240,2,3
0,6,579,1,3
1,6,63,2,3
1,6,148,2,3
1,6,76,2,3
0,6,18,2,3
1,6,93,2,3
1,6,50,2,3
0,6,118,2,3
1,6,148,1,3
2,7,13,3,3
1,6,0,2,3
0,6,77,2,3
0,6,100,2,3
1,6,135,2,3
2,7,92,3,3
1,6,232,2,3
1,6,271,2,3
0,6,370,1,3
1,6,164,2,3
0,6,503,1,3
1,6,227,2,3
1,6,0,2,3
1,6,88,2,3
0,6,70,2,3
1,6,35,2,3
0,6,112,2,3
1,6,75,2,3
1,6,63,2,3
0,6,27,2,3
1,7,3,3,3
1,6,119,2,3
0,6,7,2,3
1,7,0,3,3
0,6,33,2,3
0,6,2,2,3
1,6,42,2,3
1,7,55,2,3
0,6,13,2,3
0,6,8,2,3
1,6,1,2,3
0,6,24,2,3
0,6,54,2,3
0,6,0,2,3
1,6,9,2,3
0,6,0,2,3
1,6,22,2,3
1,6,28,2,3
1,6,33,2,3
1,6,56,2,3
1,6,17,3,3
1,6,42,2,3
1,6,0,2,3
1,7,1,2,3
1,6,35,2,3
1,6,48,2,3
1,6,0,2,3
1,6,50,3,3
0,6,47,2,3
0,6,103,2,3
1,7,64,2,3
1,6,12,2,3
0,6,132,2,3
1,7,11,2,3
1,6,83,2,3
0,6,0,1,3
1,6,20,2,3
1,6,44,2,3
0,6,44,1,3
1,6,0,2,3
1,6,52,2,3
1,7,0,3,3
0,6,40,2,3
1,7,0,2,3
1,6,28,2,3
1,6,60,2,3
1,6,0,2,3
1,6,15,2,3
1,6,4,2,3
1,6,6,2,3
1,6,17,2,3
1,6,83,2,3
0,6,3,2,3
1,6,12,2,3
1,6,0,2,3
1,6,67,2,3
0,6,157,2,3
1,6,66,2,3
0,6,239,1,3
0,6,0,2,3
1,6,206,2,3
0,6,2,2,3
0,6,104,2,3
1,6,13,2,3
1,6,21,2,3
0,6,5,1,3
1,6,0,2,3
1,6,207,1,3
0,6,191,2,3
0,6,105,2,3
1,6,81,2,3
1,6,220,2,3
1,6,13,2,3
0,6,305,1,3
0,6,452,2,3
0,6,116,2,3
1,6,90,2,3
1,6,124,2,3
1,6,38,2,3
0,6,109,2,3
1,6,161,2,3
1,6,282,2,3
0,6,30,2,3
0,6,32,2,3
1,6,42,2,3
1,6,97,2,3
0,6,112,1,3
0,6,644,1,3
0,6,664,1,3
1,6,469,1,3
0,5,933,1,3
1,7,316,2,3
1,6,517,1,3
1,6,528,2,3
1,6,148,2,3
0,6,486,1,3
1,6,352,2,3
1,6,638,2,3
1,6,2,3,3
0,6,514,1,3
1,6,255,2,3
0,5,648,1,3
0,6,492,2,3
1,6,490,1,3
0,6,472,2,3
1,6,436,2,3
1,7,0,3,3
0,6,163,2,3
0,6,190,2,3
1,6,273,1,3
1,6,102,2,3
0,6,275,2,3
0,6,309,1,3
0,6,517,1,3
1,6,433,1,3
0,5,748,1,3
0,6,782,1,3
0,6,703,1,3
1,7,375,2,3
0,6,1023,2,3
0,5,137,1,3
13,18,1023,14,3
1,6,155,2,3
0,5,674,0,3
1,6,188,2,3
0,6,32,1,3
0,6,698,1,3
1,6,404,2,3
0,6,775,1,3
0,5,793,1,3
2,7,81,3,3
15,20,1023,16,3
0,5,134,1,3
2,7,1023,4,3
0,5,397,0,3
0,5,664,0,3
0,5,599,1,3
1,6,122,2,3
1,7,92,2,3
0,6,654,1,3
1,6,641,1,3
7,13,1023,9,3
0,5,488,1,3
0,5,889,0,3
1,6,379,2,3
0,5,725,1,3
1,7,46,3,3
0,6,667,1,3
1,7,14,3,3
0,6,121,2,3
1,6,218,2,3
1,6,36,2,3
0,6,626,1,3
1,6,121,2,3
0,5,891,1,3
1,6,369,2,3
0,4,1023,0,3
0,6,685,1,3
0,5,1023,1,3
0,5,715,0,3
0,4,662,0,3
0,5,937,0,3
1,6,282,2,3
1,6,177,2,3
0,6,496,1,3
0,5,891,1,3
2,7,254,3,3
0,5,1023,0,3
1,7,169,3,3
14,19,1023,15,3
0,1,1023,0,3
2,8,1023,3,3
0,6,229,2,3
7,13,1023,8,3
0,5,209,0,3
0,5,783,0,3
1,6,608,2,3
13,18,1023,14,3
0,5,281,1,3
10,15,1023,11,3
0,6,17,2,3
8,13,1023,9,3
2,7,1023,2,3
0,5,988,0,3
0,5,580,0,3
0,6,248,1,3
1,6,394,1,3
1,6,39,2,3
0,5,494,1,3
0,6,112,1,3
0,6,391,1,3
0,6,307,1,3
0,5,857,1,3
0,5,500,0,3
0,5,519,1,3
1,6,484,2,3
12,17,1023,13,3
0,5,216,0,3
0,5,763,0,3
0,6,593,1,3
0,6,462,2,3
0,6,364,1,3
0,6,1023,1,3
2,7,190,3,3
7,13,1023,9,3
0,5,118,1,3
8,13,1023,9,3
0,6,474,1,3
8,13,1023,10,3
0,5,167,1,3
0,4,1023,0,3
0,5,289,0,3
0,5,867,0,3
0,5,230,0,3
0,5,1023,0,3
1,6,721,1,3
0,3,1023,0,3
0,5,463,0,3
14,19,1023,15,3
1,7,693,2,3
7,12,1023,8,3
3,9,921,4,3
7,12,1023,8,3
2,7,1023,3,3
0,5,164,0,3
0,5,131,0,3
1,6,112,2,3
1,6,63,2,3
0,5,758,1,3
0,6,459,1,3
0,5,1023,1,3
0,4,1023,0,3
5,10,1023,6,3
0,6,387,1,3
14,20,1023,15,3
2,8,565,4,3
9,14,1023,10,3
2,7,447,4,3
8,13,1023,9,3
1,7,211,3,3
3,9,1023,5,3
1,6,658,1,3
0,5,704,0,3
0,6,587,1,3
0,6,629,1,3
0,5,723,1,3
16,21,1023,17,3
1,6,1023,2,3
2,7,487,3,3
0,5,555,0,3
10,15,1023,10,3
0,6,1023,1,3
5,10,1007,5,3
0,5,287,0,3
7,13,1023,9,3
0,5,122,0,3
0,5,459,0,3
0,5,951,0,3
0,6,365,1,3
14,20,1023,15,3
1,7,1018,3,3
4,9,1023,5,3
1,7,1023,2,3
0,5,68,0,3
0,5,1023,0,3
7,13,1023,9,3
3,8,1023,4,3
0,2,1023,0,3
0,5,920,0,3
0,6,1023,2,3
0,5,116,1,3
0,1,1023,0,3
0,5,15,0,3
0,6,29,1,3
0,4,1023,0,3
0,5,459,0,3
0,3,1023,0,3
1,7,278,3,3
0,6,544,1,3
1,7,1023,4,3
0,5,168,0,3
8,14,1023,10,3
0,5,112,1,3
5,11,1023,7,3
0,5,1023,2,3
0,5,33,1,3
0,4,897,0,3
1,6,437,1,3
0,6,0,2,3
0,6,455,1,3
2,7,274,3,3
0,6,449,1,3
1,6,197,2,3
1,7,170,2,3
1,6,71,2,3
0,6,388,1,3
1,6,19,3,3
1,6,47,2,3
0,6,133,1,3
0,6,379,1,3
1,6,400,2,3
1,6,285,2,3
0,6,433,1,3
1,6,480,2,3
1,6,42,2,3
0,6,387,1,3
1,6,139,2,3
2,7,0,3,3
1,6,67,2,3
1,6,224,2,3
1,6,502,2,3
1,6,213,2,3
0,5,493,1,3
1,7,151,3,3
1,7,154,2,3
0,6,0,2,3
1,6,205,2,3
0,6,497,1,3
0,6,208,2,3
0,6,456,2,3
1,7,132,2,3
1,6,95,2,3
0,6,122,2,3
1,6,209,2,3
1,6,160,2,3
0,6,26,1,3
1,6,20,2,3
1,6,48,2,3
0,6,48,2,3
0,6,281,1,3
1,7,106,2,3
1,6,56,2,3
0,6,61,2,3
0,6,388,2,3
0,6,329,2,3
0,5,295,1,3
1,7,39,2,3
1,6,117,2,3
1,6,128,2,3
0,6,179,2,3
1,6,92,2,3
1,6,42,2,3
0,6,11,2,3
1,6,175,2,3
0,6,0,2,3
0,6,32,1,3
1,6,43,2,3
1,7,175,2,3
0,6,35,2,3
0,6,384,1,3
1,7,278,2,3
1,6,431,1,3
0,6,132,2,3
1,7,55,3,3
1,6,269,1,3
0,6,162,1,3
1,6,462,2,3
1,7,83,2,3
1,6,52,2,3
1,6,408,2,3
1,7,137,2,3
1,6,30,2,3
0,6,8,2,3
1,6,88,2,3
1,6,95,2,3
0,6,47,2,3
1,6,438,2,3
1,6,16,3,3
1,6,64,2,3
1,6,177,2,3
1,7,11,2,3
0,6,268,2,3
0,6,320,1,3
1,7,65,2,3
1,6,46,2,3
0,6,45,2,3
1,6,41,2,3
1,6,0,2,3
0,6,43,2,3
0,6,178,2,3
1,6,227,2,3
0,6,187,2,3
0,6,260,1,3
1,6,38,2,3
1,6,14,2,3
1,6,169,2,3
1,6,50,2,3
1,6,241,2,3
0,6,0,2,3
1,6,98,2,3
1,7,23,2,3
0,6,137,1,3
0,5,560,1,3
1,7,33,3,3
1,6,198,2,3
0,6,353,1,3
1,6,86,2,3
1,6,82,2,3
1,6,0,2,3
0,6,256,2,3
1,6,159,2,3
1,6,33,2,3
1,6,0,2,3
1,6,293,2,3
1,6,421,2,3
1,6,13,2,3
0,6,518,1,3
1,7,284,2,3
1,6,50,2,3
1,6,81,2,3
1,6,36,2,3
1,6,0,1,3
0,6,57,2,3
0,6,474,2,3
0,6,336,1,3
0,6,9,2,3
1,6,16,2,3
1,6,55,2,3
0,6,432,1,3
1,6,206,2,3
1,6,252,2,3
0,6,230,2,3
1,6,225,2,3
1,7,420,2,3
1,7,1,2,3
0,6,397,1,3
1,6,31,2,3
1,7,80,2,3
1,6,249,2,3
1,6,59,2,3
1,7,0,3,3
1,6,34,2,3
1,6,205,2,3
5,10,18,6,3
0,5,211,0,3
0,5,37,1,3
0,6,19,1,3
0,6,61,1,3
0,5,240,1,3
1,6,86,2,3
1,7,32,3,3
0,6,117,2,3
0,6,132,2,3
1,6,385,2,3
1,6,73,2,3
0,5,545,1,3
1,7,160,2,3
0,6,443,2,3
1,7,100,2,3
0,6,467,1,3
1,7,44,2,3
0,6,148,2,3
0,6,61,1,3
1,7,120,3,3
1,6,17,2,3
0,6,46,2,3
1,6,479,1,3
1,6,8,2,3
0,6,350,2,3
1,6,244,2,3
1,7,187,2,3
1,6,338,2,3
1,6,256,2,3
1,6,30,2,3
0,6,206,2,3
0,6,120,2,3
1,6,53,2,3
0,5,335,1,3
0,6,261,1,3
1,6,79,2,3
1,7,20,2,3
1,6,89,1,3
1,6,133,2,3
1,6,227,2,3
1,6,187,2,3
0,6,197,2,3
1,6,57,2,3
1,6,147,2,3
0,6,124,2,3
1,6,128,2,3
1,6,50,2,3
0,6,258,1,3
0,6,114,2,3
0,6,157,2,3
1,6,65,2,3
0,6,178,1,3
0,6,118,2,3
1,6,116,2,3
1,6,33,2,3
1,6,124,2,3
1,6,144,2,3
1,6,99,2,3
1,7,18,2,3
1,6,45,2,3
1,7,0,2,3
0,6,0,2,3
1,6,1,2,3
1,6,307,1,3
1,6,216,2,3
0,6,162,2,3
1,6,318,2,3
0,6,170,2,3
1,6,125,2,3
1,6,75,2,3
1,6,148,2,3
0,6,0,2,3
1,6,56,2,3
1,6,41,2,3
0,6,67,2,3
0,6,9,2,3
1,6,94,2,3
1,6,48,2,3
0,6,105,1,3
1,6,21,2,3
1,6,5,2,3
1,6,5,2,3
1,6,33,2,3
1,6,21,2,3
1,6,133,1,3
1,6,38,2,3
1,7,72,2,3
1,6,60,2,3
0,6,38,2,3
0,6,123,2,3
1,6,0,2,3
0,6,47,2,3
1,6,167,2,3
1,7,5,2,3
0,6,0,2,3
1,6,55,2,3
1,7,23,2,3
0,6,46,2,3
1,6,9,2,3
1,6,37,2,3
1,6,3,2,3
0,6,96,2,3
1,7,74,3,3
0,6,1,2,3
1,6,68,2,3
1,6,19,2,3
1,7,4,2,3
1,6,0,2,3
2,7,240,2,3
1,6,199,2,3
0,6,222,1,3
0,6,298,2,3
0,6,3,2,3
1,6,137,2,3
0,6,81,2,3
1,6,110,2,3
1,6,61,2,3
1,6,37,2,3
0,6,52,2,3
1,6,48,2,3
1,6,107,1,3
0,6,58,1,3
1,7,0,2,3
1,6,102,2,3
1,6,184,2,3
1,6,104,2,3
0,6,171,2,3
1,6,232,2,3
1,6,25,2,3
0,6,152,2,3
1,6,153,2,3
0,6,84,2,3
1,6,21,2,3
1,6,132,2,3
1,6,104,2,3
1,6,296,2,3
1,6,37,2,3
0,5,435,1,3
1,6,202,2,3
1,6,348,2,3
0,6,123,2,3
1,6,163,2,3
1,6,2,2,3
1,6,7,2,3
1,6,126,2,3
0,6,80,1,3
1,6,279,2,3
0,6,108,2,3
1,6,429,1,3
1,6,252,2,3
1,6,22,2,3
0,6,600,1,3
1,7,37,2,3
0,6,617,1,3
0,6,625,1,3
0,6,398,2,3
0,6,889,1,3
0,6,1023,1,3
1,6,725,1,3
0,5,985,0,3
1,6,517,2,3
1,6,612,2,3
1,7,319,2,3
0,5,1009,0,3
0,6,589,1,3
1,6,472,2,3
0,6,738,1,3
1,7,398,2,3
1,6,257,2,3
1,7,219,2,3
1,6,72,2,3
1,6,59,1,3
1,6,501,1,3
1,6,356,2,3
0,6,471,1,3
0,6,503,2,3
12,17,1023,14,3
0,5,63,0,3
5,11,1023,7,3
0,4,761,0,3
0,5,794,0,3
0,5,864,0,3
0,6,736,1,3
1,6,232,2,3
1,7,9,2,3
1,7,111,2,3
1,6,66,2,3
1,6,51,2,3
1,6,422,1,3
1,7,0,3,3
1,6,45,2,3
0,6,174,2,3
0,5,1023,1,3
2,7,339,3,3
9,15,1023,11,3
0,4,772,0,3
1,6,479,1,3
0,5,882,0,3
0,6,573,1,3
0,1,1023,0,3
0,5,842,0,3
0,5,1023,0,3
0,5,772,0,3
0,5,719,1,3
1,7,150,2,3
0,6,308,2,3
1,6,274,2,3
1,7,485,2,3
0,6,467,1,3
1,6,546,1,3
1,6,74,2,3
1,6,348,2,3
0,5,619,1,3
1,6,254,2,3
13,19,1023,15,3
0,5,704,0,3
9,14,1023,10,3
2,7,62,3,3
0,4,606,0,3
0,5,981,1,3
1,6,739,1,3
9,15,1023,11,3
0,5,655,0,3
0,5,1023,2,3
0,5,751,0,3
0,5,999,0,3
1,6,55,2,3
0,5,999,0,3
0,6,685,1,3
0,6,911,1,3
0,5,634,1,3
0,5,770,1,3
1,7,15,2,3
0,5,838,1,3
1,6,58,2,3
0,6,1023,1,3
1,7,463,3,3
6,12,1023,8,3
0,5,611,0,3
0,4,1023,0,3
9,15,1023,10,3
0,1,1023,0,3
0,5,594,0,3
0,5,358,0,3
7,12,1023,7,3
0,5,726,0,3
0,6,663,1,3
0,6,147,2,3
0,5,919,1,3
1,6,143,2,3
0,5,697,0,3
0,6,770,1,3
1,7,53,3,3
13,19,1023,15,3
0,5,210,0,3
0,5,417,0,3
0,5,210,1,3
0,6,353,1,3
0,6,369,1,3
1,6,11,2,3
0,5,819,0,3
2,7,1,3,3
1,7,1023,4,3
0,5,397,0,3
8,13,1023,9,3
1,6,799,2,3
0,5,807,0,3
12,18,1023,13,3
3,8,1023,3,3
5,10,1023,6,3
0,6,626,2,3
0,5,644,0,3
0,5,142,1,3
0,5,613,1,3
0,5,601,1,3
0,5,730,1,3
1,6,409,2,3
1,6,314,2,3
1,6,295,3,3
1,7,86,2,3
11,17,1023,14,3
0,2,1023,0,3
0,5,737,1,3
0,4,1023,1,3
0,5,248,1,3
8,14,1023,10,3
2,8,1023,4,3
7,12,1023,8,3
0,2,1023,0,3
2,7,1023,2,3
2,8,1023,4,3
1,7,181,3,3
0,3,1023,0,3
0,6,622,1,3
1,6,7,2,3
1,6,139,2,3
0,6,801,1,3
1,6,296,2,3
0,3,1023,0,3
10,15,1023,11,3
2,8,1023,4,3
1,6,1023,1,3
7,12,1023,8,3
2,7,160,3,3
7,13,1023,9,3
1,7,979,3,3
8,13,1023,9,3
0,5,348,1,3
0,5,245,0,3
0,5,978,0,3
1,6,297,2,3
3,9,1023,5,3
0,5,416,1,3
0,5,1023,0,3
0,5,576,0,3
0,6,580,1,3
0,6,686,1,3
0,6,1023,1,3
1,7,11,3,3
4,10,1023,7,3
0,5,105,0,3
0,5,381,1,3
2,7,455,3,3
0,5,188,1,3
0,5,502,0,3
0,5,1023,0,3
0,5,192,1,3
0,5,1023,2,3
0,5,541,0,3
2,7,1023,3,3
7,12,1023,8,3
0,1,1023,0,3
0,4,737,0,3
0,4,1023,0,3
6,10,1023,5,3
0,4,1023,0,3
0,6,872,1,3
0,5,349,0,3
12,17,1023,13,3
0,5,129,0,3
0,5,375,1,3
0,6,397,1,3
0,5,1023,0,3
7,13,1023,8,3
2,7,1023,4,3
0,5,769,1,3
0,1,1023,0,3
0,5,524,1,3
0,5,146,0,3
8,14,1023,10,3
0,5,117,1,3
0,5,331,1,3
0,5,797,1,3
1,6,146,2,3
0,6,330,1,3
1,6,141,2,3
0,6,845,1,3
0,6,469,2,3
1,7,3,3,3
1,7,190,2,3
1,6,341,2,3
0,6,1,2,3
1,6,187,2,3
1,6,209,2,3
0,6,197,1,3
1,6,51,2,3
1,7,408,2,3
1,6,202,2,3
1,6,78,2,3
1,6,67,2,3
0,5,778,1,3
1,6,286,2,3
1,7,343,2,3
1,6,102,2,3
0,6,265,1,3
1,6,228,2,3
1,6,109,3,3
0,6,232,1,3
1,6,106,2,3
1,7,152,2,3
0,6,35,2,3
0,6,47,2,3
1,6,117,2,3
1,6,30,2,3
0,6,193,1,3
1,6,82,2,3
1,6,109,2,3
1,6,120,2,3
0,6,42,2,3
1,6,369,2,3
0,6,174,2,3
0,6,69,2,3
1,6,21,3,3
1,6,35,2,3
0,6,4,2,3
0,6,393,2,3
1,7,36,3,3
1,6,85,2,3
0,6,165,2,3
1,7,168,2,3
1,6,0,2,3
1,6,30,2,3
1,6,325,2,3
1,6,158,2,3
0,6,18,2,3
0,6,377,2,3
1,7,10,3,3
0,6,80,2,3
0,6,0,2,3
1,6,75,2,3
0,6,111,2,3
1,6,21,2,3
1,6,161,2,3
1,6,128,2,3
0,6,47,2,3
1,6,40,2,3
1,6,541,2,3
1,6,151,2,3
0,6,276,2,3
1,7,141,2,3
1,6,224,2,3
0,6,19,2,3
1,7,124,2,3
0,6,319,2,3
0,6,326,1,3
1,6,248,2,3
1,6,35,3,3
1,6,64,2,3
1,6,124,1,3
1,7,54,2,3
0,6,0,2,3
1,6,23,3,3
0,6,349,1,3
1,6,39,2,3
0,6,229,1,3
1,6,20,2,3
1,6,342,2,3
1,6,0,2,3
1,6,83,2,3
1,7,111,2,3
1,6,0,2,3
0,6,55,2,3
1,6,187,1,3
1,6,174,2,3
0,6,501,1,3
1,6,68,2,3
1,6,314,2,3
1,6,430,1,3
1,6,258,2,3
1,7,122,2,3
1,6,27,2,3
0,6,95,2,3
1,6,78,2,3
1,6,46,2,3
0,6,185,1,3
1,6,5,2,3
1,6,116,2,3
1,6,87,2,3
1,6,132,2,3
1,7,157,3,3
0,6,252,1,3
0,6,455,1,3
1,7,243,2,3
0,5,915,0,3
0,6,640,1,3
1,7,219,2,3
1,6,231,2,3
1,6,182,2,3
1,6,84,2,3
1,6,73,2,3
0,6,0,2,3
0,6,160,2,3
1,6,334,2,3
0,6,170,2,3
0,6,299,1,3
1,6,289,2,3
1,6,70,2,3
1,6,137,2,3
1,7,359,3,3
1,6,172,2,3
0,6,76,1,3
0,5,53,2,3
1,6,394,2,3
1,7,388,2,3
0,5,309,1,3
1,6,31,2,3
1,6,115,2,3
0,6,156,1,3
0,6,127,2,3
1,6,67,2,3
1,6,20,2,3
0,6,80,2,3
1,6,109,2,3
1,6,114,2,3
1,6,112,2,3
1,6,45,2,3
1,6,241,2,3
1,6,237,2,3
1,6,77,2,3
1,6,12,2,3
0,6,284,2,3
1,6,143,2,3
1,7,14,2,3
1,7,93,3,3
1,6,0,2,3
1,6,75,2,3
1,6,157,2,3
0,5,123,1,3
1,6,31,2,3
2,7,3,3,3
0,6,24,1,3
0,6,0,2,3
0,5,210,1,3
0,6,0,1,3
1,6,130,1,3
1,6,0,2,3
1,6,0,2,3
1,6,26,2,3
1,6,31,2,3
1,6,41,2,3
0,5,0,2,3
0,6,184,2,3
1,6,397,1,3
1,6,24,2,3
0,5,969,0,3
1,7,244,3,3
1,6,176,2,3
1,6,63,2,3
0,6,50,2,3
1,6,105,2,3
1,6,7,2,3
0,6,24,2,3
1,6,113,2,3
1,6,12,2,3
0,6,217,2,3
1,7,0,2,3
1,6,107,2,3
0,6,9,2,3
0,6,13,2,3
1,6,12,3,3
1,6,6,2,3
0,6,24,2,3
1,7,114,2,3
1,6,0,2,3
0,5,63,2,3
0,6,74,1,3
1,6,84,2,3
0,6,24,2,3
1,6,103,2,3
1,6,39,2,3
0,6,38,2,3
0,6,69,2,3
1,6,227,2,3
1,6,4,2,3
0,6,0,2,3
0,6,6,2,3
0,6,41,2,3
1,6,28,2,3
0,6,6,2,3
1,6,91,2,3
1,6,42,2,3
0,6,23,2,3
1,6,16,2,3
1,7,21,2,3
0,6,6,2,3
0,6,35,2,3
1,6,62,2,3
1,6,0,2,3
0,6,3,2,3
1,6,13,2,3
1,6,3,2,3
0,6,39,2,3
1,6,10,2,3
1,6,5,2,3
0,6,65,2,3
1,6,95,2,3
1,6,76,2,3
1,6,22,2,3
1,7,0,2,3
1,6,0,2,3
1,6,0,1,3
1,6,52,2,3
1,7,36,2,3
1,6,27,2,3
0,6,0,2,3
1,6,60,2,3
1,7,5,3,3
0,6,78,2,3
1,6,6,2,3
1,7,91,3,3
1,6,22,2,3
0,6,0,2,3
1,7,8,2,3
1,7,0,3,3
0,6,74,2,3
0,6,23,2,3
1,7,59,2,3
0,6,199,2,3
1,7,0,2,3
1,7,99,2,3
1,6,0,2,3
0,6,15,2,3
1,6,104,2,3
1,6,73,2,3
0,6,3,2,3
0,6,34,1,3
1,7,23,3,3
0,6,29,2,3
1,6,79,2,3
1,6,27,2,3
1,6,133,2,3
0,6,115,1,3
1,6,23,2,3
1,6,0,2,3
0,6,19,2,3
1,6,27,2,3
1,6,27,2,3
0,6,50,2,3
0,6,173,2,3
1,6,201,2,3
1,6,118,2,3
0,6,468,1,3
1,6,71,2,3
1,6,58,2,3
1,6,67,2,3
1,6,57,2,3
0,6,124,2,3
0,6,48,2,3
1,6,177,2,3
1,6,259,2,3
1,6,221,2,3
0,6,252,2,3
0,6,435,1,3
1,6,103,2,3
0,6,11,2,3
1,6,212,2,3
1,6,274,2,3
1,6,253,2,3
1,6,0,2,3
0,6,426,2,3
1,6,286,2,3
1,6,523,2,3
1,6,165,2,3
1,6,111,2,3
0,5,439,1,3
1,6,178,2,3
0,6,707,1,3
1,7,231,2,3
0,5,790,1,3
2,7,29,3,3
1,6,420,2,3
0,6,0,2,3
1,6,324,2,3
1,6,267,2,3
0,6,667,1,3
1,6,227,2,3
0,6,606,1,3
1,6,608,1,3
1,7,268,2,3
1,6,783,1,3
1,7,35,3,3
0,6,436,1,3
0,6,723,1,3
1,7,106,3,3
1,6,327,2,3
1,6,54,2,3
0,6,188,1,3
1,6,405,1,3
1,6,670,1,3
1,7,351,2,3
0,5,791,1,3
1,7,323,2,3
1,6,201,2,3
0,6,717,1,3
1,7,531,2,3
0,6,679,1,3
0,5,958,1,3
2,8,10,4,3
1,6,631,2,3
1,6,370,2,3
1,7,41,2,3
0,6,757,1,3
1,7,145,3,3
0,5,1023,1,3
2,7,72,3,3
1,6,141,2,3
1,6,189,2,3
0,6,761,1,3
1,6,283,2,3
