Ch1,Ch2,Ch3,Ch4,label
24,16,2,0,1
253,230,2,0,1
71,127,2,33,1
126,145,2,69,1
182,111,2,3,1
23,32,2,30,1
212,169,2,82,1
10,24,2,21,1
251,278,2,61,1
156,139,2,48,1
46,59,2,0,1
152,154,2,0,1
5,33,2,34,1
173,212,2,79,1
122,124,2,0,1
100,66,2,13,1
185,173,2,55,1
41,80,2,2,1
202,165,2,43,1
181,143,2,0,1
106,75,2,21,1
198,188,2,3,1
86,65,2,7,1
100,153,2,37,1
210,194,2,74,1
47,72,2,0,1
165,166,2,62,1
100,112,2,11,1
194,232,2,44,1
203,230,2,66,1
102,157,2,0,1
208,209,2,17,1
8,6,2,26,1
102,70,2,97,1
177,198,2,14,1
2,38,2,0,1
210,205,2,2,1
185,172,2,5,1
29,26,2,62,1
173,174,2,4,1
4,9,2,19,1
228,257,2,26,1
28,41,2,1,1
102,115,2,132,1
121,104,2,11,1
110,107,2,73,1
241,304,2,8,1
39,93,2,31,1
152,166,2,18,1
46,15,2,34,1
27,9,2,0,1
232,190,2,68,1
74,121,2,1,1
137,158,2,61,1
154,163,2,0,1
75,98,2,2,1
165,155,2,73,1
95,73,2,0,1
191,203,2,100,1
162,118,2,3,1
97,41,2,37,1
144,71,2,6,1
54,41,2,24,1
112,124,2,112,1
73,27,2,0,1
24,51,2,113,1
153,128,2,1,1
21,56,2,0,1
167,164,2,23,1
167,144,2,8,1
110,69,2,49,1
280,215,2,6,1
41,21,2,11,1
198,176,2,96,1
223,311,2,11,1
17,37,2,13,1
152,219,2,28,1
64,24,2,0,1
101,151,2,44,1
125,121,2,0,1
25,45,2,8,1
140,155,2,41,1
70,62,2,33,1
125,113,1,82,1
172,158,2,0,1
69,125,2,12,1
208,211,2,139,1
90,59,2,0,1
92,157,2,129,1
70,34,2,0,1
95,130,2,278,1
254,239,2,0,1
92,73,2,117,1
101,78,2,64,1
97,57,2,135,1
6,15,2,37,1
100,40,2,122,1
168,128,2,170,1
51,43,2,54,1
101,85,2,58,1
29,23,2,97,1
101,66,2,44,1
32,21,2,0,1
186,232,2,85,1
93,98,2,61,1
113,134,2,23,1
273,266,2,8,1
89,110,2,20,1
204,216,2,1,1
64,11,2,18,1
51,36,2,99,1
191,136,2,89,1
49,115,2,13,1
164,182,2,235,1
212,245,2,33,1
19,34,2,60,1
105,141,2,60,1
11,8,2,9,1
90,85,2,19,1
164,81,2,1,1
69,103,2,13,1
196,55,2,333,1
165,199,2,0,1
46,39,2,109,1
184,261,2,45,1
56,15,2,46,1
265,379,2,80,1
65,75,2,54,1
253,261,2,117,1
112,52,2,55,1
6,9,2,6,1
179,191,2,149,1
76,75,2,36,1
133,153,2,2,1
179,183,2,30,1
121,88,2,109,1
221,109,2,24,1
96,67,2,173,1
29,33,2,0,1
163,103,2,36,1
42,68,2,3,1
196,172,2,13,1
15,45,2,59,1
105,83,2,94,1
156,161,2,0,1
8,70,2,165,1
154,142,2,117,1
64,74,2,155,1
204,307,2,105,1
132,109,2,0,1
141,135,2,206,1
237,138,2,51,1
0,66,2,27,1
109,58,2,36,1
256,212,2,46,1
12,76,2,57,1
347,359,2,17,1
206,228,2,16,1
250,221,2,85,1
78,23,2,179,1
26,6,2,3,1
69,112,2,212,1
13,86,2,0,1
109,108,2,289,1
249,363,2,61,1
27,17,2,62,1
234,355,2,139,1
233,208,2,258,1
76,171,2,61,1
57,73,2,373,1
28,33,2,503,1
307,315,2,419,1
168,178,2,4,1
242,210,2,302,1
214,236,2,136,1
23,30,2,41,1
117,161,2,170,1
38,28,2,98,1
216,249,2,117,1
170,191,2,3,1
95,147,1,62,1
260,317,1,273,1
4,62,2,208,1
92,9,2,401,1
207,111,2,61,1
136,191,2,309,1
191,202,2,197,1
140,180,2,652,1
215,268,2,455,1
134,179,2,523,1
150,16,2,140,1
176,235,2,216,1
72,233,2,46,1
12,124,2,315,1
80,149,2,230,1
61,73,2,0,1
345,460,2,0,1
115,109,2,521,1
374,415,2,194,1
57,9,2,99,1
262,229,2,181,1
278,121,2,145,1
25,11,2,386,1
86,99,2,416,1
241,266,2,51,1
35,15,2,180,1
447,476,2,284,1
32,105,2,145,1
358,454,2,35,1
109,13,2,416,1
321,362,2,415,1
32,166,2,0,1
176,147,2,64,1
359,285,2,277,1
43,63,2,14,1
141,76,2,301,1
166,227,2,460,1
281,95,2,352,1
78,223,2,57,1
198,79,2,325,1
68,119,2,479,1
363,321,2,0,1
60,26,2,247,1
55,105,2,4,1
76,194,2,116,1
7,32,2,471,1
313,389,1,327,1
147,40,2,507,1
486,419,2,262,1
365,282,1,377,1
113,250,2,145,1
258,369,2,443,1
117,71,3,695,1
155,33,2,441,1
169,40,2,283,1
24,139,2,326,1
165,105,2,524,1
115,265,2,104,1
270,405,2,312,1
373,426,1,690,1
465,635,1,149,1
17,125,2,52,1
40,108,3,621,1
102,94,2,470,1
78,30,2,1023,1
26,63,1,97,1
48,102,2,518,1
48,147,41,1023,1
207,210,32,125,1
253,212,2,339,1
136,63,1,397,1
202,156,2,74,1
46,60,2,182,1
72,33,2,63,1
167,397,2,287,1
17,111,2,625,1
252,410,1,214,1
193,251,3,902,1
132,131,2,391,1
174,291,1,467,1
109,53,2,34,1
566,442,2,773,1
148,127,2,392,1
241,203,2,123,1
191,159,2,17,1
54,72,2,195,1
12,139,2,58,1
134,318,2,167,1
153,341,2,267,1
416,618,2,618,1
258,331,1,15,1
85,190,2,770,1
56,417,2,1013,1
137,59,2,352,1
32,111,3,937,1
223,255,2,310,1
62,30,2,477,1
158,7,2,501,1
70,71,2,523,1
162,156,2,429,1
110,23,2,36,1
254,237,2,54,1
71,25,2,243,1
135,121,2,79,1
255,403,2,6,1
359,566,2,202,1
441,726,2,488,1
352,317,2,101,1
9,71,2,149,1
60,175,2,214,1
32,29,2,281,1
168,88,2,201,1
74,76,2,269,1
141,131,2,541,1
170,130,2,463,1
46,56,2,113,1
60,10,2,97,1
84,120,2,306,1
124,187,1,165,1
13,171,2,118,1
108,114,2,69,1
18,253,2,331,1
112,281,2,395,1
0,17,2,369,1
168,291,2,517,1
60,101,2,159,1
230,347,2,682,1
8,98,2,143,1
235,189,3,803,1
215,201,2,25,1
49,51,2,382,1
95,189,2,151,1
2,6,2,98,1
110,75,2,131,1
256,369,2,275,1
92,138,2,438,1
208,154,1,92,1
56,162,2,548,1
12,159,2,24,1
76,83,2,593,1
206,164,2,744,1
128,235,624,1023,1
62,123,425,867,1
6,135,127,249,1
11,83,18,487,1
121,148,1,202,1
137,151,2,43,1
1,23,3,506,1
146,182,2,296,1
198,504,2,116,1
96,56,2,372,1
388,838,2,1015,1
449,462,194,149,1
402,599,370,1023,1
164,362,294,202,1
579,926,58,958,1
253,304,4,948,1
252,271,0,1013,1
285,312,342,1023,1
58,90,231,30,1
95,113,43,637,1
32,90,3,385,1
4,14,2,108,1
36,95,2,15,1
111,139,2,380,1
94,72,2,719,1
51,63,2,249,1
95,344,551,1023,1
178,122,68,144,1
255,472,9,324,1
208,345,1,117,1
137,42,2,274,1
34,270,2,113,1
169,196,2,90,1
60,14,2,450,1
8,80,2,20,1
57,53,2,526,1
332,378,2,147,1
138,212,2,12,1
104,132,2,32,1
4,16,2,306,1
231,280,2,129,1
121,619,2,78,1
134,338,2,235,1
410,578,2,92,1
255,280,2,129,1
192,239,3,725,1
160,56,2,82,1
56,49,2,198,1
40,24,2,308,1
124,149,2,188,1
213,262,2,295,1
10,23,2,375,1
103,107,2,0,1
301,302,2,0,1
81,213,2,244,1
9,121,2,145,1
291,101,2,323,1
40,108,2,341,1
120,280,2,580,1
34,43,1,295,1
425,535,2,110,1
260,209,75,627,1
56,54,45,398,1
125,216,4,0,1
43,44,1,3,1
12,58,2,72,1
84,104,2,274,1
5,8,2,174,1
217,160,2,203,1
178,30,2,46,1
323,454,2,167,1
73,119,2,137,1
51,44,2,654,1
208,180,2,299,1
538,734,29,1023,1
178,441,123,166,1
531,772,23,429,1
94,386,1,1,1
16,105,2,482,1
273,293,2,85,1
161,173,2,298,1
59,46,2,347,1
0,22,2,50,1
87,103,2,385,1
84,42,2,392,1
18,24,2,314,1
93,79,2,272,1
117,216,3,882,1
64,64,174,326,1
333,367,136,1023,1
382,128,187,1023,1
259,440,432,1023,1
184,366,306,373,1
110,220,62,808,1
137,147,5,732,1
21,75,1,293,1
103,59,2,407,1
210,261,3,78,1
35,63,2,304,1
0,59,2,256,1
149,181,2,197,1
239,321,3,607,1
283,161,2,318,1
369,552,2,453,1
2,41,2,376,1
259,246,2,246,1
157,267,2,48,1
212,131,2,601,1
141,110,2,166,1
81,35,2,164,1
654,409,2,38,1
75,288,3,751,1
232,335,2,235,1
234,414,1,244,1
90,120,2,562,1
214,534,2,164,1
16,12,2,114,1
237,378,2,139,1
14,76,2,304,1
105,218,2,133,1
509,649,2,166,1
348,236,2,457,1
191,378,2,548,1
35,53,2,478,1
224,303,3,752,1
122,189,2,121,1
38,39,2,131,1
39,137,2,505,1
15,43,2,46,1
79,46,2,161,1
280,541,3,981,1
73,107,1,130,1
350,393,1,498,1
226,201,2,424,1
193,297,1,350,1
164,338,3,995,1
70,171,44,118,1
50,155,7,459,1
83,82,1,77,1
133,281,2,502,1
326,329,166,80,1
162,283,42,44,1
291,246,3,373,1
25,97,1,676,1
119,124,2,149,1
383,476,2,179,1
253,228,2,246,1
2,86,2,148,1
8,16,2,813,1
195,346,3,784,1
163,16,2,23,1
377,338,2,62,1
41,232,2,37,1
164,181,2,797,1
63,157,2,542,1
120,105,3,182,1
243,59,1,477,1
28,99,2,790,1
83,35,2,117,1
16,20,2,163,1
190,253,2,68,1
182,267,2,8,1
114,29,2,46,1
109,434,2,555,1
50,57,2,461,1
20,118,1,75,1
51,223,2,325,1
212,167,2,252,1
55,91,2,362,1
40,26,2,132,1
37,54,2,26,1
61,57,2,363,1
24,43,2,50,1
174,183,2,315,1
117,108,2,58,1
222,121,2,289,1
376,375,2,0,1
95,23,3,726,1
66,389,2,545,1
220,169,2,286,1
237,254,2,445,1
21,82,2,140,1
0,15,2,459,1
72,75,2,0,1
74,47,2,28,1
163,92,2,577,1
11,73,2,434,1
155,143,2,217,1
163,187,2,237,1
228,210,2,116,1
42,23,3,487,1
18,38,2,251,1
243,240,2,88,1
2,304,2,161,1
81,169,2,386,1
19,108,2,317,1
2,43,2,3,1
131,70,2,108,1
104,71,3,713,1
77,33,2,127,1
184,204,2,632,1
12,28,3,871,1
16,36,2,43,1
121,84,2,382,1
123,174,2,167,1
41,38,2,274,1
63,86,2,14,1
223,418,2,126,1
276,447,2,0,1
22,13,2,0,1
178,223,2,429,1
24,63,2,73,1
136,232,2,503,1
103,146,2,57,1
106,290,2,286,1
34,118,2,203,1
178,144,2,165,1
145,195,2,330,1
7,57,2,164,1
71,138,2,293,1
205,194,2,44,1
131,306,2,318,1
145,262,2,520,1
149,131,2,134,1
359,630,2,62,1
346,490,2,151,1
188,105,2,135,1
392,433,2,352,1
5,94,2,374,1
376,607,2,233,1
11,72,2,83,1
57,65,2,18,1
78,46,2,65,1
195,180,2,164,1
0,113,2,122,1
0,9,2,20,1
69,83,2,122,1
95,159,2,48,1
96,52,2,4,1
37,86,2,44,1
296,296,2,470,1
96,76,2,207,1
40,30,2,189,1
97,99,2,147,1
0,142,2,77,1
164,275,2,23,1
10,17,3,723,1
312,240,2,134,1
86,31,2,24,1
37,11,2,117,1
122,202,2,7,1
36,68,2,137,1
27,138,1,50,1
54,41,2,134,1
67,160,2,108,1
48,8,2,567,1
152,264,2,176,1
110,131,2,242,1
143,369,2,245,1
110,301,2,441,1
518,241,2,0,1
174,261,2,182,1
36,125,2,111,1
148,320,2,288,1
52,29,2,168,1
31,29,2,178,1
124,157,2,225,1
44,121,2,117,1
8,36,2,131,1
60,88,2,153,1
64,114,2,313,1
2,5,2,135,1
65,90,2,12,1
64,90,2,11,1
46,48,2,14,1
343,493,2,51,1
188,83,2,33,1
117,372,2,315,1
167,181,2,0,1
153,70,2,377,1
105,44,2,258,1
283,326,2,63,1
15,83,2,18,1
167,250,2,0,1
68,64,2,34,1
59,44,2,142,1
160,251,2,1,1
68,55,2,57,1
63,17,2,7,1
151,239,2,617,1
23,182,2,542,1
76,42,2,338,1
214,411,2,312,1
96,131,2,0,1
185,189,2,40,1
19,19,2,59,1
3,24,2,68,1
174,165,2,89,1
23,72,2,100,1
148,83,2,125,1
222,163,2,161,1
84,30,2,44,1
72,219,1,106,1
28,48,2,150,1
66,89,2,70,1
25,65,2,580,1
32,78,2,254,1
69,86,2,430,1
104,190,2,205,1
19,29,2,179,1
324,401,3,640,1
136,155,2,163,1
206,262,2,20,1
140,114,2,54,1
131,169,2,16,1
122,188,2,96,1
34,189,2,63,1
202,154,2,71,1
158,173,2,102,1
10,111,2,33,1
81,245,2,103,1
52,205,2,428,1
325,326,2,31,1
48,44,3,576,1
203,229,2,205,1
86,157,2,158,1
7,64,2,110,1
149,249,2,126,1
152,29,2,0,1
85,85,2,4,1
126,126,2,0,1
3,56,2,20,1
142,191,2,106,1
187,258,2,13,1
52,187,2,219,1
182,148,2,91,1
162,174,2,43,1
25,162,2,57,1
234,258,2,80,1
42,129,2,9,1
193,220,2,177,1
71,159,2,19,1
39,66,2,117,1
20,8,2,35,1
93,89,2,393,1
102,81,2,4,1
103,76,2,146,1
96,142,2,139,1
162,253,2,90,1
161,138,2,8,1
226,468,2,19,1
42,14,2,90,1
135,405,2,99,1
33,236,2,28,1
167,459,2,398,1
103,269,2,0,1
182,151,2,436,1
19,42,2,106,1
85,87,2,116,1
17,13,2,449,1
185,174,2,101,1
21,41,2,164,1
77,118,2,323,1
9,27,2,106,1
26,35,2,159,1
33,16,2,234,1
147,176,2,9,1
58,86,2,0,1
254,350,2,0,1
165,211,2,88,1
340,460,2,0,1
392,358,2,4,1
254,467,2,519,1
242,458,1,48,1
55,58,2,506,1
214,85,2,215,1
48,27,2,133,1
117,135,2,264,1
130,112,2,83,1
141,127,2,402,1
151,185,2,44,1
129,243,2,226,1
43,87,2,80,1
272,279,2,0,1
154,136,2,44,1
104,129,2,228,1
3,74,2,22,1
180,270,2,11,1
138,150,2,6,1
93,255,2,312,1
2,13,2,303,1
2,198,2,343,1
94,294,2,412,1
120,147,2,0,1
26,79,2,253,1
6,13,2,68,1
128,168,2,122,1
20,16,2,153,1
53,36,2,116,1
151,259,2,84,1
366,557,2,12,1
411,449,2,116,1
161,419,1,61,1
95,85,2,552,1
226,453,2,55,1
185,123,2,168,1
85,153,2,85,1
185,129,2,264,1
173,213,2,41,1
4,11,3,526,1
241,301,2,454,1
38,112,2,276,1
308,260,2,0,1
166,58,2,61,1
111,44,2,146,1
34,183,2,114,1
76,89,2,112,1
220,220,2,23,1
300,471,2,60,1
108,14,2,67,1
262,267,2,63,1
2,118,2,60,1
172,45,2,89,1
210,102,2,84,1
184,156,2,331,1
60,175,2,106,1
137,151,2,356,1
359,344,2,224,1
220,188,2,597,1
183,249,2,304,1
417,483,2,550,1
258,275,2,0,1
194,215,2,119,1
212,168,2,85,1
123,113,2,104,1
186,112,2,189,1
214,166,2,39,1
295,401,2,0,1
173,134,2,0,1
186,162,2,26,1
237,357,2,128,1
73,39,2,301,1
212,178,2,98,1
175,123,2,5,1
54,24,2,247,1
299,303,2,325,1
187,204,2,123,1
77,170,2,418,1
103,176,3,643,1
4,171,2,311,1
184,332,2,82,1
173,156,1,55,1
12,53,2,221,1
34,54,2,76,1
11,15,2,90,1
300,296,2,10,1
185,216,2,4,1
248,299,2,45,1
63,55,2,65,1
193,277,2,82,1
19,10,2,28,1
61,105,2,363,1
190,111,2,61,1
267,264,2,381,1
21,47,2,398,1
92,170,2,4,1
265,492,2,175,1
54,74,2,378,1
259,385,2,290,1
78,37,2,143,1
273,301,2,226,1
28,61,2,64,1
171,212,2,134,1
38,64,2,46,1
23,67,2,26,1
202,200,2,220,1
175,147,2,0,1
120,227,2,44,1
66,43,2,83,1
214,353,1,153,1
2,11,2,329,1
39,71,2,246,1
69,101,2,573,1
339,372,2,289,1
351,253,2,171,1
21,84,2,402,1
60,100,2,195,1
276,335,3,846,1
153,151,2,204,1
91,175,2,171,1
137,161,2,13,1
110,102,2,58,1
59,93,2,152,1
41,60,2,0,1
58,14,2,51,1
123,82,2,71,1
82,219,2,172,1
239,85,2,333,1
246,278,2,65,1
128,237,2,248,1
150,116,2,21,1
120,111,2,239,1
35,42,2,388,1
215,191,2,584,1
73,65,2,281,1
126,137,2,267,1
139,134,2,79,1
196,314,2,31,1
87,196,2,73,1
65,110,2,4,1
330,311,2,49,1
113,118,2,82,1
6,10,2,67,1
122,10,2,0,1
141,116,2,142,1
3,74,2,221,1
51,76,2,0,1
170,269,2,147,1
119,38,2,257,1
97,134,2,6,1
182,111,2,38,1
70,18,2,29,1
72,227,2,59,1
204,218,2,200,1
199,368,2,46,1
202,312,2,151,1
60,69,2,72,1
248,241,2,2,1
115,178,2,0,1
17,35,2,31,1
168,255,2,68,1
1,56,2,78,1
151,123,2,178,1
4,64,2,306,1
16,28,2,27,1
95,7,2,179,1
250,283,2,493,1
76,59,2,287,1
2,146,1,72,1
174,249,2,132,1
149,266,2,42,1
130,13,2,38,1
75,109,2,129,1
87,193,2,0,1
2,7,2,0,1
199,172,2,30,1
126,140,2,38,1
128,165,2,255,1
143,10,2,178,1
132,327,2,99,1
27,220,2,277,1
142,133,2,22,1
69,93,2,11,1
48,40,2,221,1
75,76,2,54,1
116,202,2,387,1
134,157,2,243,1
36,6,2,114,1
87,56,2,168,1
63,23,2,143,1
169,199,2,0,1
31,119,2,25,1
241,245,2,16,1
67,56,2,35,1
24,33,2,145,1
168,116,2,231,1
222,219,2,72,1
29,98,2,235,1
108,40,2,111,1
152,24,2,62,1
13,123,2,105,1
1,66,2,232,1
226,335,2,188,1
7,12,2,128,1
35,16,2,4,1
61,37,2,133,1
107,123,2,24,1
55,84,2,22,1
101,73,2,118,1
27,25,2,52,1
140,157,2,77,1
55,138,2,0,1
326,302,2,92,1
93,103,2,0,1
326,345,2,47,1
95,206,2,4,1
18,31,2,254,1
106,143,2,119,1
348,335,2,65,1
122,106,2,121,1
239,263,2,47,1
21,12,2,28,1
63,91,2,24,1
115,133,2,0,1
20,19,2,166,1
124,104,2,190,1
220,211,2,45,1
213,266,2,178,1
142,135,2,50,1
25,81,2,101,1
50,144,2,60,1
13,199,2,25,1
45,64,2,168,1
51,206,2,140,1
108,98,2,106,1
114,113,2,115,1
64,77,2,74,1
108,123,2,152,1
151,79,2,125,1
63,43,2,0,1
146,173,2,15,1
26,50,2,273,1
1,21,2,283,1
197,242,2,256,1
69,81,3,630,1
180,303,2,203,1
60,211,2,210,1
22,6,2,82,1
13,74,2,176,1
21,53,2,0,1
29,69,2,99,1
130,323,2,125,1
19,105,2,127,1
119,165,2,0,1
98,103,2,157,1
121,101,2,468,1
194,165,2,54,1
149,184,2,328,1
140,158,2,147,1
103,43,2,237,1
157,168,2,10,1
167,299,2,270,1
48,206,2,404,1
63,288,2,0,1
63,79,2,237,1
42,49,2,62,1
70,43,2,0,1
83,158,2,19,1
215,303,1,137,1
9,43,2,166,1
243,281,2,142,1
71,43,2,86,1
12,15,2,39,1
49,6,2,177,1
23,5,2,347,1
7,141,2,269,1
138,159,3,651,1
149,385,2,207,1
282,382,2,290,1
58,177,2,508,1
382,658,2,241,1
127,125,2,269,1
475,733,2,622,1
43,241,1,0,1
73,11,2,275,1
39,15,2,442,1
208,162,1,128,1
63,88,2,127,1
94,164,2,357,1
29,25,2,566,1
198,230,2,331,1
73,18,2,650,1
128,100,2,7,1
60,84,2,230,1
74,17,2,0,1
156,46,2,5,1
200,327,2,25,1
11,70,2,23,1
242,233,2,57,1
180,143,2,2,1
232,377,2,173,1
169,122,2,132,1
36,35,2,26,1
262,306,2,162,1
26,207,2,302,1
302,379,2,435,1
142,263,2,33,1
179,7,2,216,1
9,11,2,21,1
162,8,2,328,1
95,195,2,249,1
253,99,3,774,1
18,129,2,18,1
53,83,2,269,1
106,222,2,88,1
1,12,2,51,1
279,570,2,92,1
28,114,2,269,1
203,164,2,371,1
244,385,2,209,1
360,455,2,415,1
151,284,2,337,1
109,58,2,652,1
35,31,2,284,1
107,127,3,707,1
158,107,2,137,1
218,206,2,24,1
159,321,2,212,1
11,17,2,476,1
291,309,2,19,1
100,68,3,695,1
153,167,2,182,1
33,164,2,257,1
224,321,1,204,1
169,313,2,29,1
32,29,3,272,1
3,43,2,101,1
18,69,2,110,1
169,23,2,649,1
58,153,2,4,1
3,174,2,695,1
22,154,1,260,1
74,118,2,788,1
132,185,1,41,1
59,14,2,548,1
12,67,1,357,1
108,106,2,236,1
22,43,2,334,1
85,9,2,274,1
167,157,1,0,1
392,310,2,96,1
90,111,2,517,1
234,605,2,0,1
253,403,2,570,1
135,239,2,132,1
77,182,3,768,1
150,47,2,113,1
89,92,2,191,1
87,22,2,501,1
7,12,2,380,1
200,264,2,419,1
242,220,2,38,1
369,472,2,0,1
63,150,2,191,1
453,293,2,463,1
107,111,2,207,1
310,403,2,385,1
36,178,2,305,1
207,311,1,107,1
120,240,2,49,1
100,34,2,116,1
505,630,2,1,1
52,84,2,274,1
530,706,2,84,1
77,155,2,252,1
116,101,2,701,1
36,113,2,114,1
175,84,2,298,1
5,61,2,354,1
73,21,2,138,1
43,178,2,298,1
29,12,2,631,1
51,28,2,86,1
4,39,2,510,1
1,43,2,508,1
43,152,2,146,1
353,506,2,526,1
327,529,1,177,1
209,311,2,311,1
46,169,2,189,1
546,420,2,21,1
491,349,2,524,1
232,231,2,482,1
70,148,2,569,1
174,78,3,665,1
44,6,2,1019,1
36,6,1,171,1
2,77,2,712,1
57,37,2,7,1
267,183,2,387,1
66,80,2,456,1
303,334,2,284,1
138,474,2,149,1
184,141,2,111,1
117,326,2,479,1
343,537,1,185,1
69,98,2,125,1
72,102,2,375,1
68,111,2,269,1
0,180,2,329,1
26,8,2,132,1
53,30,2,479,1
46,32,2,51,1
96,130,3,631,1
74,9,2,165,1
226,121,2,160,1
85,67,2,449,1
179,347,2,419,1
8,47,2,528,1
165,578,1,137,1
183,199,2,639,1
56,114,2,33,1
40,82,2,212,1
195,341,2,319,1
38,175,2,27,1
132,189,2,569,1
98,126,2,10,1
89,142,2,302,1
55,154,2,310,1
224,92,2,364,1
116,70,2,192,1
76,113,2,43,1
96,229,2,30,1
8,8,2,61,1
124,69,2,271,1
211,322,2,490,1
15,36,1,147,1
262,453,2,530,1
396,506,1,35,1
35,14,2,246,1
182,162,2,145,1
20,106,2,271,1
18,20,2,264,1
131,8,2,112,1
7,59,2,82,1
195,260,2,659,1
240,289,1,133,1
39,88,3,877,1
72,247,105,85,1
102,63,22,133,1
90,114,1,337,1
223,298,1,770,1
135,59,265,890,1
36,134,416,1023,1
270,89,303,70,1
200,243,62,444,1
39,76,5,320,1
52,8,1,6,1
27,92,2,0,1
13,14,2,386,1
58,136,2,25,1
146,77,2,169,1
169,155,2,405,1
3,12,2,408,1
88,173,1,6,1
55,137,2,640,1
230,199,2,398,1
182,413,2,412,1
195,274,2,579,1
253,458,2,102,1
661,668,2,384,1
437,654,2,0,1
601,832,2,302,1
19,173,2,25,1
118,134,2,272,1
20,31,2,106,1
193,193,2,319,1
37,147,2,0,1
27,21,2,83,1
24,54,2,18,1
8,59,2,1,1
38,25,2,208,1
39,16,2,577,1
286,245,625,1023,1
100,27,168,391,1
211,86,32,123,1
286,127,1,207,1
335,482,1,223,1
261,374,2,548,1
57,220,2,354,1
195,170,2,310,1
42,167,2,363,1
142,124,2,715,1
212,249,2,231,1
97,58,1,628,1
117,91,1,230,1
43,185,2,594,1
30,103,2,127,1
39,93,2,142,1
156,280,2,117,1
0,119,2,395,1
162,191,2,341,1
125,8,2,642,1
554,918,3,545,1
241,8,2,155,1
538,616,1,584,1
49,33,2,112,1
176,470,2,622,1
214,520,2,407,1
11,79,2,186,1
149,120,2,238,1
166,86,2,122,1
55,18,2,128,1
19,127,2,131,1
45,10,2,191,1
7,13,2,524,1
186,217,2,169,1
26,10,2,160,1
123,111,2,358,1
223,125,1,156,1
124,371,615,1023,1
167,382,98,475,1
199,235,282,738,1
159,151,498,1023,1
51,71,121,453,1
171,326,19,726,1
11,127,1,648,1
155,200,1,193,1
17,9,2,308,1
72,131,2,53,1
143,208,2,171,1
10,37,2,134,1
9,6,2,608,1
188,252,2,449,1
84,56,3,835,1
7,82,2,118,1
72,50,2,606,1
141,250,2,323,1
361,299,2,728,1
167,185,1,145,1
113,79,2,92,1
90,10,2,34,1
119,125,2,60,1
126,148,2,0,1
19,21,2,44,1
140,190,2,200,1
128,144,2,50,1
183,290,2,118,1
92,113,2,90,1
210,303,2,16,1
97,65,2,40,1
82,55,2,376,1
3,98,2,259,1
676,660,2,211,1
715,799,3,912,1
244,243,2,443,1
97,165,2,0,1
36,57,2,59,1
98,300,2,73,1
11,10,2,130,1
22,147,2,368,1
68,38,2,4,1
63,63,2,344,1
108,125,2,41,1
77,20,2,303,1
87,102,2,212,1
107,27,2,623,1
31,7,2,313,1
160,235,2,573,1
25,27,2,587,1
223,314,2,331,1
149,275,2,75,1
70,73,2,41,1
34,8,2,199,1
40,113,2,16,1
80,156,2,33,1
85,197,2,28,1
55,63,2,155,1
193,260,2,361,1
82,78,2,315,1
192,237,2,537,1
45,26,2,79,1
22,6,2,55,1
148,223,2,174,1
0,45,2,255,1
210,348,2,518,1
61,203,2,45,1
153,165,2,0,1
139,142,2,235,1
196,90,2,130,1
104,38,2,90,1
52,7,2,305,1
6,34,2,100,1
52,95,2,34,1
31,35,2,10,1
101,107,2,20,1
82,51,2,135,1
150,148,2,258,1
75,71,2,64,1
250,243,2,7,1
123,95,2,152,1
447,408,2,93,1
3,6,2,14,1
189,173,2,15,1
129,237,2,156,1
56,115,2,289,1
66,132,2,254,1
44,68,2,46,1
24,38,2,108,1
22,54,2,80,1
171,211,2,72,1
122,111,2,19,1
70,107,2,212,1
368,530,2,153,1
109,36,2,220,1
182,235,2,18,1
34,119,2,48,1
79,332,2,55,1
0,79,2,71,1
23,69,2,13,1
114,87,2,0,1
82,15,2,127,1
113,258,2,31,1
114,90,2,305,1
38,8,2,105,1
44,168,2,421,1
29,170,2,0,1
61,86,2,182,1
39,125,2,4,1
91,16,2,90,1
306,515,2,110,1
87,212,2,21,1
175,240,2,112,1
276,408,2,105,1
135,122,2,50,1
172,207,2,60,1
131,31,2,183,1
108,114,2,311,1
43,86,2,176,1
24,38,2,291,1
152,66,2,33,1
35,77,2,289,1
1,129,2,154,1
190,70,2,119,1
16,62,2,124,1
89,9,2,264,1
109,78,2,0,1
49,161,1,71,1
3,10,2,51,1
184,143,2,30,1
170,352,2,84,1
78,139,2,0,1
150,162,2,422,1
302,434,2,56,1
60,107,2,457,1
200,255,2,520,1
32,93,2,624,1
93,88,2,104,1
60,23,2,42,1
111,79,2,315,1
55,191,2,274,1
121,243,2,352,1
31,126,2,5,1
26,177,2,15,1
137,206,2,147,1
142,369,2,101,1
111,244,2,61,1
48,52,2,35,1
107,129,2,92,1
145,280,2,623,1
100,45,2,469,1
93,479,1,356,1
22,55,1,222,1
71,100,2,140,1
2,45,2,104,1
126,55,2,387,1
342,607,2,167,1
76,52,2,60,1
103,249,2,0,1
64,84,2,108,1
18,158,2,197,1
144,219,2,108,1
15,102,2,196,1
228,285,2,181,1
20,219,2,3,1
80,208,2,153,1
195,107,2,436,1
70,243,2,84,1
182,368,2,212,1
64,142,2,149,1
120,35,2,97,1
83,102,2,39,1
14,42,2,0,1
257,313,3,651,1
160,152,2,151,1
67,25,2,275,1
190,306,2,50,1
49,96,2,188,1
6,95,2,128,1
183,186,2,29,1
91,47,2,89,1
85,25,2,35,1
122,258,2,27,1
175,181,2,0,1
309,368,2,282,1
118,186,2,377,1
132,149,3,841,1
72,17,2,139,1
170,143,2,542,1
245,306,2,291,1
55,19,2,179,1
110,100,2,7,1
68,33,2,197,1
52,59,2,108,1
4,164,2,94,1
66,207,2,206,1
68,223,2,93,1
44,130,2,179,1
203,242,2,96,1
83,168,2,0,1
313,475,2,28,1
84,188,2,56,1
198,312,2,533,1
185,129,2,101,1
188,73,3,643,1
143,73,2,366,1
40,79,2,23,1
105,127,2,168,1
19,106,2,107,1
191,129,2,41,1
249,95,2,0,1
211,202,2,131,1
112,49,2,96,1
79,81,2,49,1
52,97,2,0,1
36,86,2,142,1
145,90,2,74,1
0,34,2,18,1
69,7,2,361,1
72,146,2,195,1
149,212,3,588,1
105,241,2,125,1
2,37,2,128,1
188,195,2,167,1
171,294,2,239,1
92,10,2,197,1
106,236,2,199,1
112,279,2,52,1
177,231,2,158,1
97,263,2,185,1
61,140,2,24,1
227,243,2,119,1
175,211,2,132,1
342,535,2,49,1
36,135,2,66,1
161,329,2,538,1
61,121,2,502,1
63,23,2,397,1
157,200,2,625,1
287,275,2,100,1
154,117,2,477,1
66,92,2,465,1
35,30,2,14,1
262,468,2,11,1
108,162,2,3,1
456,713,2,204,1
31,39,2,97,1
137,151,2,92,1
31,54,2,195,1
7,72,2,98,1
124,132,2,166,1
98,59,2,157,1
123,37,2,7,1
154,277,2,111,1
99,57,2,19,1
38,95,2,314,1
187,115,2,178,1
4,48,2,59,1
125,183,2,264,1
284,350,2,278,1
127,183,2,199,1
206,340,1,246,1
190,290,2,71,1
78,61,2,127,1
123,217,2,33,1
99,81,2,143,1
66,138,2,38,1
36,48,2,10,1
18,92,2,64,1
18,75,2,0,1
197,157,2,164,1
82,79,2,7,1
19,35,2,94,1
231,247,2,227,1
16,43,2,199,1
161,176,2,379,1
251,187,2,461,1
50,11,2,83,1
256,167,2,248,1
108,388,2,309,1
254,142,2,55,1
504,774,2,51,1
36,15,2,164,1
370,604,2,0,1
54,344,2,60,1
258,370,2,7,1
242,371,2,0,1
142,56,2,24,1
29,22,2,7,1
43,37,2,5,1
75,52,2,7,1
1,9,2,428,1
180,57,2,337,1
211,184,2,70,1
198,211,2,247,1
145,117,2,149,1
242,307,2,297,1
141,203,2,352,1
247,364,2,347,1
35,73,2,174,1
53,23,2,186,1
143,226,2,33,1
16,101,2,92,1
220,256,2,34,1
66,20,2,0,1
12,11,2,93,1
90,122,2,2,1
7,7,2,64,1
146,123,2,118,1
141,41,2,44,1
146,115,2,0,1
19,151,2,116,1
43,14,2,103,1
15,8,2,33,1
340,495,2,25,1
13,16,2,62,1
134,268,2,246,1
184,137,2,1,1
101,147,2,61,1
39,68,2,128,1
160,171,2,85,1
140,90,2,115,1
15,51,2,175,1
246,284,2,43,1
135,83,2,139,1
82,97,2,215,1
91,12,2,40,1
6,51,2,22,1
97,214,2,7,1
91,173,2,347,1
107,190,2,244,1
239,390,2,21,1
265,300,2,204,1
127,269,2,11,1
95,156,2,141,1
50,129,2,63,1
149,222,2,8,1
6,9,2,14,1
30,122,2,456,1
66,155,2,291,1
151,209,2,0,1
33,164,2,220,1
84,29,2,238,1
9,191,2,303,1
305,389,2,48,1
80,41,2,171,1
140,152,2,0,1
107,167,2,64,1
48,84,2,152,1
32,114,2,9,1
100,105,2,40,1
23,35,2,0,1
71,83,2,87,1
96,157,2,23,1
108,188,2,21,1
65,64,2,248,1
131,254,2,127,1
265,302,2,176,1
103,229,2,592,1
26,208,2,0,1
111,214,2,29,1
71,67,2,215,1
73,73,2,83,1
94,89,2,58,1
80,26,2,5,1
59,79,2,109,1
24,71,2,96,1
53,107,2,114,1
181,152,2,70,1
60,65,2,10,1
79,170,2,109,1
11,9,2,146,1
177,219,2,459,1
71,61,2,77,1
88,59,2,67,1
81,101,2,120,1
30,206,1,2,1
5,47,2,5,1
152,164,2,81,1
83,100,2,4,1
106,81,2,15,1
101,59,2,162,1
9,38,2,304,1
148,120,2,53,1
17,9,2,170,1
12,46,2,69,1
197,177,2,143,1
1,86,2,127,1
172,142,2,44,1
188,317,2,96,1
181,295,2,62,1
114,169,2,100,1
229,344,2,0,1
86,115,2,0,1
55,103,2,59,1
198,425,1,56,1
46,49,2,20,1
61,154,2,59,1
77,165,2,356,1
37,36,2,190,1
171,151,2,195,1
18,47,2,396,1
4,10,2,0,1
146,217,2,70,1
3,50,2,16,1
206,226,2,75,1
76,80,2,280,1
19,178,2,147,1
45,128,2,53,1
128,216,2,334,1
0,136,2,5,1
17,42,2,215,1
79,201,2,296,1
212,334,2,136,1
190,273,2,220,1
164,274,2,135,1
187,206,1,172,1
62,15,2,380,1
56,7,2,266,1
264,294,2,229,1
119,23,2,157,1
254,294,2,271,1
32,48,2,290,1
398,737,2,79,1
77,133,2,544,1
207,473,1,21,1
73,13,2,340,1
74,88,2,279,1
71,12,2,293,1
99,81,2,175,1
13,59,2,166,1
239,238,2,300,1
5,69,2,10,1
241,329,2,38,1
29,52,2,149,1
21,59,2,188,1
50,26,2,81,1
6,12,2,356,1
56,47,2,284,1
388,453,2,86,1
42,155,2,362,1
134,193,2,469,1
13,134,2,362,1
166,135,2,21,1
228,85,2,515,1
157,70,2,264,1
121,149,2,334,1
20,71,2,424,1
51,179,2,382,1
98,137,2,221,1
42,34,2,381,1
132,142,2,106,1
230,322,2,89,1
172,262,2,196,1
16,80,2,334,1
150,73,2,53,1
22,30,2,231,1
78,308,2,301,1
328,371,2,365,1
188,254,2,278,1
239,90,2,638,1
143,52,2,15,1
40,9,2,591,1
180,196,1,368,1
189,168,2,383,1
116,56,3,815,1
305,277,2,311,1
166,157,2,396,1
38,246,2,453,1
171,481,2,176,1
17,16,2,155,1
63,209,2,245,1
38,80,2,1,1
209,484,2,215,1
15,27,2,209,1
147,368,2,2,1
0,48,2,395,1
139,60,2,75,1
19,21,2,175,1
109,164,2,91,1
53,117,2,17,1
74,129,2,0,1
40,83,2,262,1
137,496,2,202,1
182,402,2,180,1
546,984,2,482,1
68,387,1,0,1
246,478,2,349,1
256,277,2,218,1
83,9,2,142,1
130,278,2,169,1
14,141,2,98,1
30,34,2,177,1
171,186,2,80,1
68,32,2,3,1
124,78,2,52,1
146,56,2,621,1
2,27,2,618,1
169,114,2,143,1
1,205,2,301,1
205,255,2,140,1
0,286,2,541,1
71,79,2,217,1
99,283,3,1023,1
251,487,1,322,1
78,17,2,453,1
210,335,2,28,1
162,81,2,336,1
228,265,2,489,1
8,103,2,644,1
265,184,2,399,1
5,107,2,411,1
110,106,2,454,1
6,121,2,33,1
60,43,3,453,1
203,168,2,227,1
119,365,2,51,1
117,37,2,87,1
313,433,2,410,1
10,254,1,152,1
245,297,2,379,1
90,270,2,149,1
231,338,1,429,1
18,58,2,355,1
106,37,2,560,1
51,151,2,405,1
111,25,2,185,1
27,173,2,1023,1
201,21,1,160,1
119,157,12,1023,1
13,125,52,12,1
38,55,7,530,1
64,21,1,44,1
302,355,2,684,1
25,51,2,171,1
224,208,1,116,1
152,341,2,353,1
170,400,2,206,1
206,123,2,119,1
30,116,2,188,1
114,170,2,16,1
32,37,2,77,1
86,6,2,264,1
86,255,2,404,1
119,55,2,407,1
28,31,2,147,1
150,50,27,1023,1
86,13,28,789,1
111,73,2,414,1
133,37,1,475,1
20,69,2,779,1
0,109,2,725,1
301,328,2,53,1
277,334,2,558,1
384,679,2,59,1
279,368,1,327,1
101,48,2,339,1
20,111,2,136,1
19,51,2,74,1
141,149,2,46,1
55,60,2,406,1
160,7,2,146,1
274,108,2,129,1
105,89,2,479,1
278,209,2,300,1
39,62,2,327,1
38,147,2,263,1
137,289,2,335,1
191,158,2,367,1
301,430,2,203,1
199,499,1,9,1
285,449,2,418,1
308,398,1,229,1
117,111,2,528,1
233,325,2,0,1
4,42,2,368,1
307,362,2,178,1
44,34,2,657,1
111,147,2,1023,1
90,159,2,649,1
8,128,1,135,1
11,52,2,605,1
78,27,2,77,1
139,250,2,479,1
146,59,2,410,1
299,667,2,228,1
10,176,2,293,1
491,811,2,331,1
73,60,1,287,1
476,700,2,565,1
64,250,2,230,1
188,263,2,815,1
19,229,1,84,1
387,421,49,427,1
193,330,18,0,1
40,20,1,394,1
272,218,1,62,1
45,17,2,329,1
238,168,2,285,1
115,72,2,583,1
52,182,2,513,1
70,119,2,368,1
123,222,2,100,1
328,313,2,155,1
263,387,2,336,1
224,158,2,41,1
104,437,2,72,1
33,67,2,138,1
413,717,2,245,1
136,174,2,199,1
148,232,2,388,1
25,38,3,1023,1
180,87,98,923,1
218,222,270,762,1
160,118,67,217,1
42,18,7,538,1
129,173,1,504,1
78,50,2,22,1
92,125,2,652,1
149,282,2,136,1
31,107,2,175,1
232,131,2,446,1
75,277,2,32,1
186,63,2,265,1
152,13,2,330,1
96,438,5,1023,1
2,155,1,552,1
130,264,1,147,1
140,61,2,851,1
54,104,2,97,1
240,222,2,239,1
101,63,2,502,1
107,95,2,412,1
110,138,2,442,1
118,69,2,320,1
338,451,2,385,1
205,347,1,93,1
239,327,2,316,1
90,154,2,486,1
120,243,2,3,1
247,295,3,876,1
263,471,1,585,1
77,110,2,563,1
120,245,2,679,1
338,258,602,1023,1
153,82,172,773,1
145,323,510,1023,1
151,150,393,191,1
277,277,320,1023,1
24,263,317,29,1
271,321,63,336,1
230,207,6,491,1
238,284,1,39,1
611,1023,3,28,1
340,558,2,21,1
422,762,2,273,1
260,413,2,425,1
102,9,3,674,1
105,185,2,203,1
284,240,2,48,1
120,132,2,483,1
175,62,2,303,1
98,103,2,42,1
85,158,2,234,1
131,21,2,69,1
108,36,2,105,1
179,76,2,145,1
147,111,2,309,1
48,28,2,228,1
112,269,2,399,1
146,43,2,0,1
52,57,2,99,1
212,280,2,24,1
59,84,2,0,1
92,193,2,177,1
75,19,2,136,1
97,26,2,318,1
16,62,2,176,1
82,8,2,155,1
2,11,2,1,1
53,51,2,220,1
41,71,2,224,1
95,81,2,480,1
543,369,2,249,1
260,30,2,339,1
42,219,2,433,1
40,187,2,274,1
2,11,2,87,1
105,363,1,284,1
10,50,2,28,1
116,156,2,54,1
77,90,2,304,1
223,11,2,391,1
105,104,2,131,1
53,280,2,332,1
337,350,2,307,1
156,289,2,177,1
165,122,2,294,1
20,112,2,729,1
166,96,112,258,1
180,88,24,605,1
123,21,1,507,1
29,83,1,211,1
10,55,2,246,1
10,62,2,329,1
174,94,2,148,1
250,275,2,29,1
51,234,2,73,1
191,549,2,63,1
13,9,2,224,1
67,110,2,102,1
60,58,3,511,1
35,174,2,8,1
69,28,2,178,1
112,107,2,237,1
59,59,2,37,1
148,105,2,50,1
32,135,2,212,1
107,91,2,65,1
11,139,2,72,1
6,148,2,15,1
131,20,2,217,1
164,276,2,66,1
118,163,2,256,1
110,86,2,77,1
199,359,2,115,1
157,231,2,158,1
14,98,2,92,1
5,40,2,39,1
86,50,2,30,1
99,132,2,305,1
35,78,2,137,1
3,139,2,498,1
156,168,2,278,1
32,87,2,89,1
81,109,2,87,1
3,143,2,235,1
50,191,2,135,1
203,166,2,1,1
13,65,2,43,1
126,104,2,33,1
94,69,2,502,1
96,180,2,88,1
290,340,2,482,1
100,156,2,113,1
89,119,3,97,1
158,246,2,34,1
49,7,2,232,1
41,115,2,212,1
67,59,2,311,1
178,250,2,110,1
162,113,2,165,1
171,126,2,36,1
116,164,2,194,1
38,52,2,60,1
115,99,2,295,1
6,19,2,0,1
59,47,2,300,1
3,9,2,187,1
253,160,2,236,1
57,98,2,211,1
17,95,2,253,1
1,35,2,38,1
94,145,2,138,1
52,95,2,165,1
21,136,2,264,1
327,521,2,52,1
51,228,2,25,1
347,505,2,211,1
26,63,2,89,1
217,413,2,56,1
86,171,2,176,1
143,216,2,213,1
206,275,2,99,1
9,63,2,184,1
12,43,2,118,1
4,45,2,159,1
70,17,3,673,1
2,56,2,0,1
154,257,2,0,1
85,158,2,155,1
186,376,2,279,1
113,166,2,0,1
211,44,3,662,1
159,255,2,58,1
108,282,2,324,1
134,315,2,227,1
40,166,2,6,1
104,200,2,253,1
13,77,2,110,1
17,20,2,83,1
94,117,2,307,1
84,157,2,14,1
150,292,2,274,1
51,184,1,0,1
140,311,2,23,1
107,68,2,62,1
10,56,2,50,1
122,30,2,136,1
173,50,2,19,1
64,68,2,311,1
42,24,2,20,1
6,72,2,252,1
88,14,2,0,1
27,15,2,392,1
97,90,2,58,1
86,147,2,194,1
54,293,2,261,1
39,104,2,435,1
85,198,2,88,1
67,13,2,2,1
55,93,2,82,1
110,134,2,226,1
259,385,2,376,1
195,206,2,0,1
164,383,2,159,1
180,95,2,18,1
23,124,2,166,1
213,400,1,191,1
343,634,2,352,1
36,297,2,276,1
416,753,2,122,1
34,84,2,12,1
177,219,2,15,1
45,92,2,320,1
1,26,2,197,1
121,167,2,102,1
65,66,2,57,1
80,160,2,30,1
197,215,2,42,1
50,53,2,64,1
112,79,2,132,1
133,204,2,68,1
241,281,2,62,1
331,510,2,76,1
109,24,2,177,1
129,72,2,150,1
310,446,2,200,1
209,254,2,151,1
294,431,2,289,1
11,33,2,190,1
197,353,2,307,1
60,51,2,112,1
201,279,2,267,1
52,111,2,27,1
53,19,2,181,1
269,252,2,80,1
4,35,2,85,1
99,24,2,192,1
17,7,2,277,1
33,165,2,152,1
58,176,2,82,1
165,386,2,22,1
196,326,2,25,1
178,419,2,121,1
78,145,2,354,1
301,480,2,33,1
251,431,2,48,1
198,162,2,68,1
61,94,2,361,1
99,190,2,161,1
70,50,2,197,1
135,157,2,249,1
204,175,2,115,1
2,52,2,19,1
49,131,2,25,1
4,8,2,0,1
29,83,2,142,1
64,33,2,51,1
42,30,2,0,1
24,9,2,12,1
163,102,2,103,1
29,86,2,186,1
50,90,2,36,1
75,31,2,23,1
6,7,2,30,1
134,186,2,372,1
61,59,2,153,1
126,88,2,30,1
244,207,2,129,1
11,52,2,269,1
3,130,2,164,1
70,187,2,272,1
59,87,2,0,1
78,125,2,99,1
81,275,2,23,1
27,20,2,142,1
138,423,2,100,1
214,446,2,129,1
5,155,2,112,1
166,111,2,238,1
114,108,2,461,1
145,136,2,102,1
66,165,3,592,1
66,20,2,394,1
12,75,2,143,1
102,228,2,92,1
279,129,2,0,1
175,162,2,182,1
132,33,2,25,1
7,37,2,147,1
188,341,1,150,1
91,283,2,2,1
285,461,2,5,1
40,11,2,45,1
21,195,2,62,1
186,307,2,14,1
26,72,2,47,1
98,169,2,384,1
64,156,2,349,1
40,123,2,58,1
101,105,2,338,1
94,98,2,250,1
48,75,2,358,1
125,273,2,145,1
119,152,2,528,1
163,66,2,218,1
158,180,2,195,1
128,63,2,230,1
29,13,2,110,1
75,117,2,113,1
246,390,2,52,1
18,36,2,61,1
93,198,2,47,1
6,46,2,64,1
23,63,2,0,1
267,277,2,180,1
87,23,2,341,1
134,232,2,439,1
18,59,2,176,1
162,358,2,428,1
54,134,2,150,1
272,523,2,45,1
111,154,2,93,1
185,410,2,40,1
7,45,2,46,1
9,100,2,71,1
10,130,2,37,1
88,192,2,91,1
62,97,2,21,1
177,206,2,14,1
204,134,2,211,1
200,110,2,323,1
120,264,2,116,1
155,111,2,4,1
114,114,2,307,1
190,46,2,147,1
74,62,2,539,1
297,279,2,738,1
258,85,2,227,1
71,55,2,265,1
50,42,2,346,1
23,46,2,0,1
280,341,2,33,1
249,269,2,105,1
62,146,2,138,1
75,190,2,3,1
103,95,2,97,1
42,76,2,227,1
53,39,2,132,1
20,23,2,46,1
12,93,2,138,1
182,7,2,26,1
80,10,2,80,1
251,44,2,154,1
49,180,2,325,1
113,54,2,14,1
2,11,2,155,1
136,113,2,198,1
164,77,2,93,1
38,112,2,116,1
87,82,2,92,1
58,84,2,60,1
122,144,2,44,1
73,59,2,41,1
48,6,2,310,1
128,204,2,131,1
34,40,2,106,1
8,122,2,225,1
67,70,2,92,1
41,124,2,19,1
132,149,2,49,1
112,153,2,117,1
218,194,2,99,1
74,49,2,102,1
7,9,2,74,1
116,117,2,1,1
44,14,2,29,1
164,125,2,93,1
163,133,2,0,1
144,196,2,11,1
250,224,2,20,1
82,215,2,55,1
104,253,2,70,1
231,154,2,27,1
125,253,2,40,1
206,116,2,13,1
237,245,1,235,1
5,76,2,171,1
56,31,2,10,1
31,161,2,25,1
196,149,2,113,1
42,41,2,35,1
131,174,2,70,1
4,31,2,0,1
90,73,2,66,1
108,193,2,0,1
6,85,2,0,1
16,5,2,107,1
127,57,2,99,1
43,37,2,7,1
245,314,2,1,1
29,147,2,196,1
194,278,2,90,1
88,38,2,108,1
51,112,2,140,1
188,190,2,34,1
56,91,2,152,1
261,196,2,37,1
138,117,2,25,1
35,21,2,8,1
108,132,2,145,1
70,113,2,0,1
7,12,2,63,1
14,45,2,84,1
39,44,2,113,1
141,35,2,94,1
25,26,2,39,1
59,68,2,115,1
83,54,2,24,1
51,126,2,47,1
21,7,2,201,1
54,155,2,112,1
47,59,2,342,1
160,214,2,148,1
14,10,2,18,1
224,229,2,49,1
82,7,2,51,1
127,107,2,180,1
117,153,2,17,1
131,167,2,9,1
180,196,2,50,1
144,74,2,15,1
132,238,2,12,1
34,18,2,308,1
121,278,2,189,1
205,211,2,182,1
167,242,2,276,1
40,49,2,111,1
66,131,2,27,1
103,36,2,73,1
1,56,2,0,1
70,77,2,0,1
93,117,2,29,1
112,94,2,44,1
0,21,2,79,1
164,135,2,44,1
220,274,2,0,1
38,57,2,19,1
213,53,2,264,1
139,227,2,33,1
49,177,2,38,1
219,338,2,282,1
107,57,2,67,1
204,280,2,270,1
34,45,2,159,1
280,283,2,311,1
70,70,2,352,1
90,199,2,133,1
109,70,2,446,1
11,81,2,126,1
0,19,2,192,1
130,121,3,487,1
253,145,2,31,1
276,314,2,362,1
112,22,2,733,1
301,457,2,341,1
183,227,2,720,1
468,768,1,110,1
17,46,2,572,1
157,347,1,218,1
80,86,2,157,1
111,199,2,460,1
61,54,2,0,1
185,165,2,379,1
54,75,2,355,1
241,442,2,56,1
169,198,2,368,1
316,483,2,71,1
59,11,2,99,1
37,194,2,72,1
137,307,2,54,1
78,68,2,50,1
235,273,2,11,1
84,245,2,0,1
63,75,2,22,1
76,80,2,425,1
100,13,2,384,1
157,233,2,101,1
189,80,3,719,1
158,227,2,110,1
137,96,2,104,1
32,130,2,249,1
365,409,2,85,1
216,389,2,437,1
341,661,1,64,1
273,347,2,215,1
42,253,2,385,1
26,8,2,33,1
48,92,2,291,1
186,50,2,145,1
190,100,2,262,1
153,212,2,64,1
142,174,2,148,1
175,172,2,61,1
77,129,2,82,1
360,326,2,73,1
29,25,2,70,1
44,155,2,57,1
304,124,2,384,1
14,29,2,147,1
228,131,2,424,1
135,49,2,116,1
204,283,2,15,1
0,162,2,231,1
24,199,2,346,1
59,91,2,201,1
68,140,2,171,1
38,99,2,22,1
40,74,2,294,1
47,140,2,632,1
16,7,2,305,1
44,128,3,491,1
150,43,2,401,1
187,130,2,187,1
127,82,2,238,1
322,127,2,89,1
55,117,2,301,1
76,182,2,303,1
139,11,3,875,1
115,316,1,43,1
23,183,2,564,1
218,297,2,233,1
129,343,2,9,1
215,355,2,47,1
165,150,2,114,1
206,161,2,120,1
349,769,2,339,1
17,7,2,111,1
260,115,2,165,1
242,422,2,306,1
149,86,2,64,1
248,262,2,32,1
132,291,2,13,1
11,34,2,238,1
118,79,2,54,1
202,148,2,198,1
292,315,2,377,1
99,101,2,180,1
33,88,2,39,1
172,239,2,226,1
465,747,2,462,1
105,209,2,10,1
233,139,2,182,1
140,88,2,230,1
170,10,2,204,1
215,192,2,101,1
95,20,3,667,1
4,62,2,450,1
11,247,2,130,1
141,45,2,459,1
36,112,2,201,1
60,16,2,64,1
225,288,2,219,1
105,338,2,163,1
0,319,2,155,1
366,399,1,0,1
177,330,2,18,1
201,567,2,494,1
117,182,1,8,1
230,393,2,651,1
63,20,2,104,1
23,253,2,192,1
30,78,2,209,1
32,39,2,340,1
86,102,2,132,1
208,280,2,412,1
13,34,2,45,1
131,156,2,174,1
88,175,2,475,1
77,82,2,282,1
112,136,2,111,1
35,111,2,189,1
82,160,2,28,1
214,428,2,230,1
103,103,2,48,1
198,463,2,103,1
33,154,2,96,1
112,209,2,162,1
78,171,2,0,1
241,323,2,520,1
67,184,2,529,1
3,100,2,33,1
96,247,2,229,1
52,21,2,386,1
1,26,2,107,1
171,218,2,178,1
129,25,2,376,1
5,113,2,401,1
118,110,2,0,1
237,373,2,155,1
196,91,2,35,1
132,465,2,311,1
13,67,2,215,1
98,245,2,335,1
25,21,2,168,1
210,28,2,41,1
10,28,2,63,1
128,220,2,175,1
112,93,2,100,1
61,106,2,393,1
147,86,2,306,1
110,62,2,314,1
488,770,2,236,1
165,132,1,64,1
143,287,2,276,1
48,176,2,127,1
74,23,2,156,1
32,359,2,94,1
52,49,2,159,1
53,115,2,0,1
396,352,2,833,1
37,101,1,60,1
220,54,538,1023,1
325,106,180,458,1
112,11,33,342,1
60,246,1,943,1
83,23,1,33,1
140,67,2,324,1
65,138,2,159,1
186,289,2,97,1
30,103,2,59,1
364,630,2,194,1
189,72,2,41,1
134,234,2,84,1
71,121,2,148,1
87,196,2,19,1
63,14,2,464,1
77,76,2,435,1
41,119,2,8,1
6,46,2,205,1
20,118,2,211,1
1,30,2,38,1
6,135,2,897,1
81,129,2,425,1
194,158,2,257,1
353,394,2,433,1
106,68,2,445,1
376,372,2,85,1
11,15,2,333,1
47,246,2,0,1
64,305,2,607,1
25,122,2,364,1
75,241,2,698,1
149,27,2,523,1
10,65,3,953,1
21,60,1,235,1
97,7,2,662,1
55,15,1,338,1
39,67,3,1005,1
22,71,2,214,1
66,58,2,404,1
24,91,2,233,1
276,398,3,821,1
345,10,2,0,1
47,407,2,357,1
61,193,2,369,1
95,15,2,239,1
51,132,2,709,1
221,529,3,974,1
44,126,2,212,1
560,656,2,1023,1
45,156,2,762,1
201,167,2,786,1
45,6,2,20,1
35,14,2,1,1
225,216,2,610,1
137,163,1,156,1
89,173,2,95,1
88,87,2,102,1
92,112,2,433,1
175,83,2,72,1
330,462,2,711,1
50,186,2,457,1
417,713,2,629,1
13,65,1,5,1
229,376,2,499,1
122,275,2,266,1
193,341,2,632,1
33,18,2,370,1
27,58,2,27,1
8,22,2,97,1
15,58,2,283,1
137,164,2,39,1
171,77,2,176,1
93,97,2,96,1
89,137,2,70,1
54,130,2,151,1
107,223,2,214,1
45,230,2,104,1
121,83,2,48,1
123,30,2,185,1
187,77,3,870,1
22,54,2,378,1
180,14,2,266,1
50,19,2,73,1
201,181,2,394,1
59,203,2,169,1
16,93,2,0,1
3,78,2,35,1
7,93,2,222,1
66,17,2,198,1
123,79,2,231,1
147,118,2,111,1
307,104,2,68,1
16,12,2,56,1
132,16,2,3,1
20,19,2,158,1
22,100,2,389,1
102,275,2,557,1
37,19,2,262,1
184,264,2,188,1
39,158,2,401,1
72,51,2,51,1
24,40,2,232,1
87,130,2,38,1
19,117,2,0,1
64,10,2,95,1
16,67,2,248,1
226,234,2,74,1
7,52,2,84,1
45,43,2,117,1
12,53,2,193,1
48,123,2,49,1
112,331,2,24,1
133,270,2,183,1
180,249,2,14,1
7,74,2,164,1
41,5,2,29,1
16,73,2,143,1
0,74,2,130,1
121,101,2,18,1
266,245,2,79,1
4,108,2,267,1
26,28,2,9,1
21,232,2,54,1
55,356,2,138,1
156,293,2,238,1
27,250,2,78,1
153,211,2,65,1
26,73,2,99,1
42,11,2,267,1
61,173,2,6,1
61,11,2,60,1
50,65,2,197,1
8,19,2,26,1
228,246,2,201,1
46,30,2,125,1
17,22,2,1,1
15,97,2,61,1
24,246,2,153,1
107,134,2,122,1
67,66,2,79,1
84,245,2,25,1
87,23,2,99,1
85,130,2,0,1
243,270,2,224,1
97,105,2,219,1
27,86,2,427,1
138,96,2,184,1
32,105,2,1,1
107,41,2,417,1
112,309,2,162,1
111,93,2,294,1
330,468,2,20,1
123,149,2,105,1
125,19,2,197,1
44,119,2,111,1
62,27,2,24,1
78,17,2,192,1
16,59,2,75,1
158,278,2,250,1
99,78,2,228,1
144,207,2,4,1
16,54,2,101,1
46,106,2,220,1
196,163,2,162,1
171,182,2,318,1
8,24,2,343,1
146,256,2,279,1
36,69,2,0,1
289,495,2,200,1
38,262,2,136,1
249,371,2,29,1
18,208,1,94,1
38,54,2,4,1
82,209,2,281,1
64,218,2,27,1
172,64,2,241,1
222,310,2,98,1
37,74,2,166,1
41,67,2,68,1
8,50,2,107,1
1,19,2,161,1
123,113,2,88,1
138,105,2,78,1
135,107,2,61,1
54,118,2,305,1
4,74,2,8,1
39,27,2,242,1
51,31,2,85,1
107,66,2,36,1
20,83,2,7,1
161,330,2,10,1
54,163,2,215,1
115,317,2,166,1
188,206,2,557,1
231,227,2,33,1
84,35,2,281,1
186,127,2,7,1
29,41,2,76,1
173,177,2,19,1
22,35,2,196,1
64,165,2,8,1
31,15,2,23,1
1,49,2,91,1
105,80,2,56,1
46,131,2,30,1
102,182,2,103,1
312,364,2,340,1
98,227,2,123,1
370,386,2,204,1
227,452,2,199,1
78,152,2,229,1
60,247,2,376,1
88,148,2,425,1
100,16,2,269,1
28,9,2,103,1
117,148,2,334,1
123,67,2,125,1
100,155,2,276,1
23,50,2,62,1
50,31,2,44,1
4,158,2,33,1
160,71,2,289,1
145,348,2,206,1
343,333,2,100,1
248,97,2,200,1
529,814,1,42,1
49,120,2,519,1
334,488,2,99,1
400,185,2,252,1
38,168,2,554,1
240,345,2,149,1
11,9,2,566,1
106,45,2,1,1
268,298,2,610,1
57,10,2,112,1
130,108,2,86,1
121,125,2,78,1
83,134,2,106,1
23,247,2,181,1
105,123,2,0,1
309,590,2,169,1
5,17,2,87,1
120,315,2,542,1
229,310,2,356,1
171,172,2,401,1
92,208,2,602,1
215,269,2,90,1
5,45,3,1023,1
14,97,2,130,1
153,163,2,185,1
198,287,2,220,1
176,258,2,163,1
71,137,2,62,1
202,232,2,0,1
136,276,2,278,1
122,141,2,270,1
168,232,2,42,1
119,197,2,73,1
308,251,2,132,1
60,100,2,396,1
197,139,2,269,1
6,69,3,648,1
3,34,2,13,1
254,160,2,0,1
0,39,2,8,1
1,34,2,186,1
223,394,2,343,1
248,357,2,176,1
446,684,2,276,1
245,470,2,142,1
92,177,2,32,1
248,399,2,57,1
44,67,2,45,1
380,357,2,7,1
126,99,2,66,1
58,197,1,221,1
15,36,2,569,1
3,81,2,0,1
96,20,2,59,1
47,82,2,0,1
269,251,2,599,1
106,158,2,50,1
99,218,2,468,1
218,199,2,265,1
58,514,2,277,1
69,83,2,79,1
321,881,2,12,1
302,371,1,83,1
64,30,2,256,1
343,437,2,181,1
341,407,2,44,1
310,286,2,48,1
189,98,2,40,1
227,191,2,264,1
67,59,2,388,1
1,9,2,131,1
90,37,3,727,1
72,21,2,136,1
128,113,2,704,1
106,368,2,230,1
225,274,2,646,1
37,40,3,729,1
77,386,1,209,1
51,185,2,164,1
144,49,2,146,1
45,34,2,160,1
138,89,2,48,1
14,95,2,35,1
7,27,2,194,1
80,107,2,0,1
151,198,2,0,1
96,130,2,45,1
20,15,2,106,1
235,235,2,75,1
157,69,2,425,1
103,38,2,266,1
281,283,2,680,1
69,57,2,482,1
278,216,2,311,1
80,61,2,88,1
128,115,3,558,1
238,230,1,56,1
83,281,2,138,1
193,223,2,91,1
3,54,2,164,1
21,116,2,47,1
54,120,2,113,1
5,36,2,0,1
142,137,2,110,1
214,301,2,0,1
16,14,2,31,1
171,97,2,125,1
14,8,2,89,1
152,77,2,39,1
144,122,2,0,1
235,265,1,72,1
111,54,2,15,1
41,23,2,0,1
7,53,2,45,1
74,94,2,66,1
69,82,2,25,1
162,153,2,74,1
20,149,2,178,1
134,251,2,124,1
49,51,2,89,1
95,18,2,195,1
31,34,2,12,1
100,156,2,571,1
243,204,2,391,1
188,274,2,655,1
170,229,3,1023,1
119,201,16,132,1
9,21,1,257,1
212,273,1,149,1
162,84,2,220,1
82,11,2,153,1
122,233,2,4,1
74,31,2,98,1
220,293,1,53,1
117,66,2,14,1
130,93,2,46,1
11,78,2,82,1
158,241,2,147,1
123,235,2,28,1
165,233,2,8,1
8,180,2,59,1
64,9,2,230,1
134,125,2,98,1
187,76,2,45,1
73,104,2,284,1
90,76,2,156,1
50,28,2,0,1
26,71,2,83,1
109,177,2,5,1
59,143,2,79,1
77,38,2,126,1
175,372,2,0,1
232,270,1,0,1
159,52,2,242,1
193,288,2,155,1
171,191,2,0,1
259,348,2,245,1
31,76,2,63,1
163,229,2,90,1
21,34,2,207,1
62,63,2,81,1
140,190,2,132,1
49,58,2,110,1
106,147,2,120,1
190,288,2,64,1
116,220,2,6,1
146,195,2,44,1
61,223,2,16,1
59,17,2,86,1
164,226,2,142,1
270,276,2,260,1
166,188,2,65,1
21,127,2,195,1
206,307,2,61,1
59,69,2,110,1
42,96,2,38,1
12,11,2,0,1
3,27,2,37,1
177,166,2,26,1
29,11,2,69,1
67,49,2,144,1
254,379,2,49,1
15,83,2,33,1
373,595,2,65,1
73,160,2,76,1
328,363,2,168,1
8,39,2,128,1
80,48,2,140,1
150,66,2,143,1
99,112,2,82,1
106,91,2,0,1
152,207,2,102,1
10,10,2,0,1
147,204,2,153,1
95,161,2,0,1
86,99,2,0,1
7,68,2,54,1
20,71,2,29,1
187,65,2,149,1
388,543,2,373,1
58,90,2,93,1
44,31,2,258,1
147,144,2,371,1
257,234,2,171,1
120,120,2,19,1
139,217,2,276,1
52,16,2,80,1
26,10,2,37,1
138,152,2,15,1
89,54,2,98,1
79,80,2,115,1
178,284,2,159,1
128,198,2,165,1
313,477,1,156,1
157,261,2,90,1
166,234,2,24,1
28,15,2,250,1
9,58,2,98,1
235,355,2,57,1
1,90,2,13,1
65,130,2,56,1
100,26,2,178,1
106,231,2,120,1
147,99,2,54,1
137,141,2,374,1
135,151,2,106,1
52,27,2,61,1
14,8,2,74,1
241,385,2,200,1
3,17,2,24,1
245,302,1,119,1
146,319,2,137,1
60,232,2,150,1
120,333,2,10,1
88,202,2,76,1
163,197,2,127,1
163,85,2,99,1
332,538,2,26,1
79,124,2,41,1
71,94,2,176,1
137,92,2,89,1
158,238,2,31,1
32,87,2,117,1
245,240,2,263,1
37,146,2,176,1
155,114,2,300,1
267,235,2,334,1
182,310,2,306,1
372,408,2,119,1
464,547,2,403,1
63,105,2,385,1
117,81,2,21,1
50,54,2,164,1
247,141,2,352,1
64,127,2,187,1
33,47,2,132,1
24,47,2,195,1
76,37,2,234,1
242,183,2,154,1
42,49,2,385,1
135,141,2,431,1
316,328,2,165,1
275,231,2,475,1
323,464,2,222,1
121,192,2,296,1
45,222,2,142,1
108,327,2,188,1
108,491,2,0,1
90,57,2,0,1
58,225,2,52,1
59,76,2,284,1
31,15,2,184,1
27,115,2,226,1
352,330,2,148,1
301,484,2,412,1
183,49,2,608,1
287,346,1,81,1
20,100,2,775,1
66,241,2,317,1
117,111,2,352,1
62,174,2,528,1
133,296,1,185,1
39,58,2,858,1
169,200,2,262,1
361,652,2,136,1
525,620,3,713,1
803,1016,2,453,1
115,375,183,86,1
150,280,43,533,1
72,239,3,63,1
57,45,1,141,1
0,103,2,57,1
18,76,2,0,1
175,230,2,773,1
47,47,2,968,1
93,305,2,445,1
47,49,15,1023,1
21,273,0,189,1
11,99,2,670,1
289,180,2,622,1
69,429,1,60,1
461,471,3,901,1
231,642,87,1020,1
76,185,34,142,1
5,388,2,714,1
132,300,1,0,1
85,390,2,294,1
171,472,2,0,1
292,206,2,363,1
150,101,2,521,1
223,211,2,210,1
78,13,2,282,1
155,86,2,256,1
162,43,2,68,1
1,55,2,191,1
53,103,2,131,1
212,206,2,230,1
246,227,2,221,1
108,262,2,84,1
133,57,2,118,1
30,65,2,63,1
123,109,2,217,1
343,596,2,6,1
110,169,2,137,1
12,31,2,168,1
262,386,2,4,1
171,393,2,97,1
149,33,2,231,1
81,338,2,74,1
109,94,2,94,1
39,41,2,54,1
205,219,2,377,1
193,83,2,24,1
204,267,2,878,1
117,49,1,56,1
110,223,3,952,1
77,303,1,343,1
268,434,1,337,1
316,399,1,167,1
64,552,2,118,1
345,626,1,202,1
207,394,1,72,1
377,353,2,376,1
416,427,2,103,1
67,28,2,446,1
164,278,2,132,1
49,9,2,610,1
242,135,15,899,1
66,27,30,427,1
329,136,2,449,1
81,117,1,109,1
3,35,2,387,1
43,93,2,7,1
179,251,2,1023,1
19,215,2,457,1
332,508,56,617,1
123,499,14,0,1
320,941,1,389,1
99,281,0,343,1
8,334,1,230,1
6,98,2,124,1
284,204,2,192,1
109,68,2,561,1
127,69,2,47,1
100,85,2,597,1
43,104,2,463,1
117,246,2,269,1
30,160,2,113,1
311,606,2,89,1
77,254,2,168,1
323,435,2,107,1
101,302,2,553,1
158,183,2,71,1
267,295,2,525,1
50,42,2,103,1
32,92,2,66,1
48,30,2,864,1
44,52,2,43,1
405,298,3,929,1
82,22,2,258,1
5,33,2,268,1
32,10,2,466,1
24,56,2,115,1
59,88,2,890,1
39,23,2,822,1
31,305,2,337,1
33,73,2,546,1
271,20,2,120,1
6,69,2,266,1
142,243,2,432,1
327,397,2,430,1
246,811,2,56,1
221,136,2,444,1
477,802,2,122,1
30,47,2,735,1
205,326,1,3,1
87,71,2,542,1
110,5,2,512,1
131,179,2,33,1
30,27,2,929,1
72,15,2,621,1
160,97,13,75,1
39,88,2,286,1
130,91,1,81,1
216,98,1,85,1
78,34,2,169,1
524,552,2,349,1
132,24,2,51,1
210,464,2,189,1
99,185,2,467,1
22,89,2,246,1
340,254,2,43,1
212,359,2,166,1
178,142,1,363,1
393,181,2,490,1
118,131,2,366,1
115,34,2,1023,1
61,25,2,183,1
255,280,2,401,1
77,55,2,625,1
9,215,2,369,1
258,374,2,546,1
0,19,2,321,1
442,739,2,629,1
99,65,2,822,1
633,923,2,554,1
122,534,2,889,1
478,927,3,91,1
82,281,1,607,1
21,176,1,66,1
146,53,2,285,1
109,85,2,431,1
5,62,2,642,1
218,108,2,85,1
76,61,2,709,1
32,125,2,325,1
5,19,2,164,1
135,316,2,267,1
20,6,2,492,1
42,310,2,852,1
65,42,2,105,1
323,377,3,695,1
97,619,1,52,1
541,772,2,303,1
87,244,2,52,1
243,298,2,39,1
112,156,2,0,1
95,81,2,368,1
79,22,3,532,1
133,139,2,631,1
24,15,2,460,1
30,120,3,922,1
17,66,1,61,1
179,172,1,209,1
17,39,2,68,1
101,196,2,87,1
227,381,1,234,1
44,25,3,667,1
350,962,2,15,1
92,28,2,621,1
228,50,2,69,1
120,205,3,806,1
78,181,1,16,1
114,189,1,662,1
88,55,2,491,1
163,97,2,32,1
20,72,2,342,1
1,13,2,9,1
15,38,2,622,1
30,186,2,422,1
119,266,2,346,1
2,279,2,83,1
288,344,2,479,1
198,16,2,601,1
191,213,2,339,1
153,44,3,665,1
346,364,2,695,1
275,234,2,36,1
325,44,2,641,1
64,65,2,120,1
116,55,2,353,1
200,116,2,128,1
305,401,2,912,1
7,44,2,311,1
181,38,2,522,1
286,10,2,157,1
214,560,2,650,1
61,389,2,131,1
144,90,2,0,1
522,697,2,139,1
6,75,2,341,1
103,234,2,223,1
182,208,2,262,1
35,123,2,188,1
113,106,2,80,1
182,221,2,255,1
122,152,2,315,1
21,56,2,158,1
86,191,2,304,1
38,85,2,83,1
17,221,2,18,1
54,81,2,3,1
115,365,2,8,1
143,164,2,142,1
23,73,2,0,1
11,17,2,59,1
14,53,2,0,1
3,27,2,179,1
199,358,2,109,1
138,95,2,127,1
252,164,2,303,1
10,164,2,90,1
28,37,2,56,1
113,26,2,292,1
90,75,3,437,1
86,215,2,181,1
167,150,2,80,1
81,153,2,140,1
176,204,2,0,1
55,42,2,47,1
97,140,2,180,1
98,130,2,0,1
66,46,2,78,1
97,62,2,515,1
19,102,2,2,1
106,166,3,777,1
50,34,2,262,1
10,107,2,0,1
39,326,2,192,1
141,108,2,50,1
32,81,2,20,1
43,83,2,0,1
41,120,2,0,1
80,123,2,262,1
63,103,2,48,1
46,139,2,98,1
10,45,2,0,1
1,33,2,441,1
298,319,1,74,1
1,174,2,80,1
55,108,1,23,1
1,300,2,116,1
135,259,2,0,1
185,264,2,193,1
241,267,2,14,1
45,83,2,75,1
84,243,2,97,1
27,17,2,237,1
210,332,2,213,1
25,63,2,58,1
159,279,2,125,1
82,216,2,111,1
33,107,2,134,1
87,9,2,35,1
133,92,2,53,1
101,204,2,164,1
95,127,2,256,1
50,317,2,86,1
176,344,2,346,1
6,269,2,98,1
7,75,2,399,1
44,143,2,4,1
81,272,2,453,1
223,247,2,91,1
204,244,2,115,1
80,82,2,205,1
0,25,2,9,1
5,91,2,22,1
184,227,2,210,1
131,207,2,6,1
35,32,2,20,1
81,97,2,92,1
78,93,2,54,1
153,105,2,137,1
283,311,2,26,1
69,45,2,25,1
87,39,2,52,1
43,88,2,20,1
12,102,2,38,1
200,92,2,78,1
120,251,2,236,1
24,49,2,20,1
103,103,2,7,1
115,137,2,0,1
104,81,2,99,1
73,109,2,2,1
26,17,2,72,1
58,29,2,23,1
210,236,2,0,1
49,15,2,0,1
10,12,2,186,1
154,246,2,189,1
23,14,2,125,1
180,15,2,381,1
178,30,2,162,1
245,195,2,30,1
318,307,2,70,1
190,332,1,60,1
144,249,2,126,1
37,113,2,0,1
32,37,2,8,1
13,29,2,43,1
102,157,2,9,1
7,53,2,325,1
75,43,2,95,1
38,59,2,120,1
82,214,2,58,1
92,121,2,95,1
30,140,2,3,1
115,273,2,0,1
121,381,2,96,1
57,113,2,63,1
83,159,2,51,1
287,179,2,48,1
31,139,2,25,1
92,53,2,253,1
11,7,2,41,1
2,10,2,212,1
150,237,2,2,1
8,153,2,210,1
3,81,2,39,1
143,93,2,133,1
67,103,2,0,1
215,190,2,76,1
13,11,2,31,1
212,246,2,79,1
204,147,2,127,1
115,248,2,72,1
288,277,2,85,1
207,278,2,179,1
42,225,2,260,1
238,262,2,0,1
39,35,2,364,1
95,160,2,78,1
223,41,2,107,1
8,53,2,283,1
136,121,2,179,1
19,101,2,214,1
175,229,2,425,1
96,116,2,88,1
27,33,2,195,1
167,162,2,307,1
11,25,2,221,1
250,137,2,38,1
41,55,2,29,1
73,102,2,587,1
56,296,2,381,1
65,20,12,1023,1
42,87,69,474,1
135,216,11,8,1
104,361,1,0,1
36,32,1,268,1
35,54,2,397,1
98,196,2,175,1
4,107,2,377,1
46,50,2,174,1
141,287,2,42,1
4,13,2,491,1
418,689,2,326,1
24,22,2,355,1
288,524,2,839,1
100,40,1,69,1
20,80,2,334,1
230,156,2,424,1
110,183,2,66,1
210,280,2,323,1
104,151,2,64,1
4,36,2,70,1
187,239,2,46,1
2,13,2,105,1
61,37,2,152,1
73,143,2,51,1
62,13,2,15,1
177,184,2,295,1
163,200,2,396,1
160,6,2,0,1
238,276,2,478,1
25,29,2,25,1
166,54,2,325,1
143,146,2,256,1
0,39,2,446,1
204,117,2,200,1
73,116,2,248,1
370,561,1,58,1
122,71,2,37,1
182,253,2,0,1
72,67,2,141,1
26,96,2,58,1
339,488,2,6,1
131,253,2,97,1
162,394,2,14,1
67,84,2,93,1
126,237,2,581,1
37,58,2,357,1
93,176,2,621,1
12,14,2,439,1
149,116,2,85,1
272,212,2,63,1
287,464,2,93,1
92,36,2,187,1
172,314,1,141,1
38,136,2,153,1
55,53,2,6,1
82,18,2,95,1
145,148,2,88,1
17,150,1,213,1
62,136,2,534,1
61,91,2,229,1
380,485,2,607,1
141,222,2,453,1
357,440,2,510,1
93,35,2,635,1
9,44,2,491,1
82,40,3,994,1
191,14,15,443,1
37,57,3,179,1
208,257,1,368,1
23,58,1,252,1
367,605,2,42,1
40,185,1,154,1
436,719,1,17,1
76,105,2,62,1
120,153,2,0,1
44,46,2,54,1
83,182,2,0,1
143,96,2,25,1
330,422,2,0,1
4,13,2,16,1
218,315,2,47,1
26,52,2,26,1
135,97,2,73,1
116,160,2,1,1
18,7,2,123,1
187,255,2,181,1
178,329,2,43,1
50,45,2,99,1
391,463,2,48,1
157,228,2,211,1
171,200,2,5,1
139,204,2,71,1
1,44,2,102,1
42,165,2,1,1
75,138,2,44,1
17,33,2,120,1
77,114,2,28,1
10,27,3,8,1
107,163,2,182,1
98,239,2,475,1
247,313,2,67,1
23,20,2,301,1
50,69,2,286,1
220,267,2,194,1
19,15,2,103,1
220,247,2,175,1
29,14,2,145,1
205,344,2,11,1
92,120,2,0,1
219,395,2,56,1
94,143,2,37,1
64,22,2,106,1
3,8,2,54,1
19,82,2,26,1
8,33,2,250,1
168,101,2,407,1
141,139,1,59,1
181,172,2,455,1
30,47,2,387,1
35,31,2,0,1
119,149,2,39,1
17,61,2,194,1
40,54,2,37,1
38,67,2,80,1
196,214,2,0,1
43,117,2,127,1
89,126,2,37,1
178,116,2,4,1
39,64,2,44,1
194,253,2,0,1
94,53,2,60,1
205,263,2,221,1
7,24,2,143,1
188,182,2,133,1
22,20,2,283,1
173,184,1,208,1
205,244,2,177,1
205,341,2,142,1
110,168,2,182,1
171,241,2,141,1
268,365,2,68,1
211,347,2,51,1
167,137,2,132,1
249,176,2,1,1
70,145,2,17,1
136,135,2,80,1
82,136,2,0,1
130,149,2,0,1
50,16,2,215,1
30,22,2,72,1
154,179,2,144,1
103,85,2,152,1
54,15,2,38,1
99,70,2,0,1
71,90,2,87,1
75,40,2,168,1
11,72,2,92,1
37,110,2,12,1
31,189,2,36,1
154,229,2,160,1
285,331,2,184,1
150,126,2,55,1
113,129,2,96,1
182,201,2,91,1
4,8,2,80,1
92,86,2,29,1
23,64,2,95,1
93,124,2,12,1
133,91,2,199,1
8,7,2,168,1
219,279,2,246,1
47,67,2,280,1
56,83,2,49,1
116,149,2,153,1
99,177,2,62,1
274,228,2,166,1
133,43,2,133,1
31,114,2,35,1
2,64,2,144,1
96,69,2,179,1
2,132,2,69,1
70,7,2,0,1
33,61,2,48,1
129,190,2,25,1
8,28,2,297,1
107,123,3,65,1
145,92,2,249,1
151,150,2,369,1
59,81,2,36,1
34,85,2,231,1
276,375,2,29,1
86,58,2,157,1
261,291,2,6,1
55,135,2,0,1
80,131,2,0,1
105,75,2,18,1
219,259,2,323,1
15,10,2,0,1
168,220,2,90,1
8,13,2,98,1
208,239,2,16,1
43,21,2,218,1
82,93,2,91,1
144,136,2,177,1
0,15,2,119,1
4,77,2,8,1
127,140,2,18,1
43,36,2,319,1
225,275,2,105,1
13,63,2,300,1
78,112,2,400,1
89,175,1,69,1
65,17,2,188,1
276,357,2,89,1
163,323,2,68,1
174,146,2,76,1
108,57,2,4,1
14,50,2,315,1
113,68,2,0,1
12,31,2,436,1
294,344,2,43,1
57,11,2,260,1
16,33,2,206,1
48,11,2,409,1
16,22,2,142,1
115,179,2,499,1
206,26,2,312,1
260,376,2,516,1
163,136,2,37,1
286,325,2,133,1
13,7,2,0,1
19,79,2,40,1
377,648,1,0,1
11,16,2,0,1
186,286,2,144,1
137,68,2,367,1
46,31,2,149,1
25,53,2,47,1
97,51,2,181,1
135,359,2,90,1
149,99,2,107,1
73,110,2,183,1
21,9,2,694,1
44,197,1,6,1
13,12,3,661,1
86,436,2,1023,1
1,11,1,49,1
4,143,2,522,1
60,124,2,594,1
39,63,2,0,1
222,105,2,500,1
41,202,2,414,1
156,218,2,251,1
118,316,2,526,1
18,7,1,212,1
4,70,2,268,1
213,157,2,134,1
5,265,1,416,1
191,11,2,383,1
34,150,2,217,1
234,345,2,531,1
12,120,2,127,1
67,148,2,457,1
283,206,2,532,1
0,119,2,144,1
29,115,3,1023,1
139,128,2,434,1
144,89,2,242,1
70,269,2,467,1
62,90,2,185,1
12,162,1,43,1
42,103,2,244,1
103,265,1,377,1
94,100,2,300,1
252,322,2,39,1
103,142,2,163,1
39,159,2,131,1
193,240,2,135,1
112,106,2,225,1
19,56,2,192,1
33,64,2,370,1
53,9,3,638,1
2,34,2,680,1
142,79,2,209,1
36,64,2,307,1
232,299,2,352,1
15,52,2,283,1
262,37,2,297,1
185,300,2,126,1
106,92,2,410,1
107,243,2,538,1
11,43,2,201,1
169,127,2,289,1
153,196,2,49,1
129,100,2,177,1
343,316,2,190,1
135,412,2,419,1
397,393,2,43,1
248,426,2,548,1
274,394,1,408,1
414,782,2,68,1
126,177,107,753,1
446,954,26,212,1
124,187,2,7,1
104,38,1,530,1
34,143,2,162,1
191,119,2,25,1
159,130,2,132,1
60,203,2,76,1
201,237,2,133,1
34,103,2,435,1
74,108,2,155,1
27,96,2,390,1
195,459,2,330,1
145,92,2,424,1
23,178,2,269,1
18,23,2,352,1
44,96,2,80,1
202,195,2,44,1
32,106,2,146,1
159,181,2,59,1
78,10,2,312,1
105,48,2,224,1
268,281,2,159,1
54,46,2,483,1
250,104,2,138,1
143,311,2,454,1
333,49,2,198,1
143,124,2,35,1
65,77,2,293,1
578,1023,578,39,1
74,281,130,245,1
622,1023,25,123,1
24,257,82,473,1
241,197,11,550,1
31,95,1,146,1
245,251,2,622,1
123,201,2,141,1
44,133,2,420,1
8,9,2,0,1
216,254,2,232,1
142,80,2,172,1
0,96,3,432,1
206,145,2,346,1
351,387,2,490,1
31,158,2,471,1
106,103,2,6,1
77,114,2,110,1
2,79,3,553,1
231,311,2,248,1
331,406,2,346,1
184,215,2,280,1
14,13,2,14,1
23,34,2,401,1
60,81,2,444,1
132,88,2,327,1
127,93,3,826,1
65,67,1,295,1
19,6,2,309,1
24,76,2,299,1
145,297,1,131,1
102,17,2,269,1
247,308,2,632,1
59,9,2,114,1
11,183,2,494,1
28,155,1,55,1
21,120,2,337,1
10,101,2,79,1
66,167,2,33,1
288,484,2,24,1
31,110,2,0,1
187,69,2,150,1
11,104,2,823,1
43,184,2,614,2
156,180,2,599,2
47,225,2,445,2
187,50,1,448,2
174,259,2,205,2
157,106,3,704,2
106,103,1,303,2
135,27,2,650,2
92,29,2,540,2
96,17,2,144,2
168,227,2,132,2
93,44,2,112,2
17,10,2,364,2
234,692,2,658,2
78,217,2,0,2
309,649,2,2,2
46,68,2,41,2
185,161,2,358,2
98,83,2,460,2
12,108,2,156,2
264,72,2,0,2
219,53,2,0,2
62,157,2,69,2
110,75,2,0,2
139,218,2,249,2
101,45,2,86,2
97,57,2,8,2
268,405,2,342,2
82,98,2,51,2
2,135,2,229,2
143,18,2,169,2
106,57,2,163,2
222,378,2,172,2
121,184,2,83,2
242,111,3,492,2
25,395,2,684,2
286,251,1,20,2
550,430,64,1023,2
144,113,136,76,2
523,317,21,807,2
164,224,1,26,2
5,58,1,241,2
264,285,2,32,2
182,164,2,24,2
61,76,2,156,2
124,57,2,322,2
34,297,2,107,2
193,105,2,0,2
77,16,2,291,2
286,539,1,0,2
143,151,2,320,2
135,281,2,349,2
217,241,2,491,2
175,149,1,373,2
146,138,2,141,2
129,27,2,303,2
14,10,2,73,2
143,254,2,475,2
167,157,2,1,2
37,107,2,534,2
209,287,2,56,2
21,138,2,168,2
37,166,2,225,2
42,199,2,189,2
75,93,2,63,2
6,38,2,138,2
304,307,2,400,2
136,99,2,111,2
19,119,2,436,2
18,12,2,470,2
104,123,3,665,2
9,30,2,143,2
54,22,2,395,2
45,53,2,154,2
71,127,2,203,2
61,103,2,100,2
208,269,2,628,2
182,139,2,66,2
210,251,2,16,2
72,118,2,646,2
41,35,2,122,2
14,68,2,409,2
219,156,2,151,2
455,774,2,22,2
107,254,2,638,2
204,410,1,46,2
49,35,2,453,2
209,297,2,3,2
93,84,2,72,2
81,52,2,131,2
33,85,2,99,2
49,124,2,659,2
317,252,2,333,2
178,17,3,630,2
166,137,2,306,2
174,69,2,524,2
180,365,2,37,2
377,213,2,399,2
252,471,2,666,2
73,181,106,1023,2
401,377,2,681,2
178,532,280,819,2
459,459,104,350,2
99,340,15,238,2
174,128,0,41,2
47,43,2,115,2
38,17,2,93,2
129,152,2,4,2
28,31,2,566,2
25,63,2,13,2
13,10,2,229,2
11,28,2,61,2
1,66,2,458,2
23,7,2,168,2
41,19,2,217,2
22,41,2,254,2
67,55,2,155,2
354,499,3,881,2
34,239,2,28,2
369,448,2,484,2
18,82,2,193,2
33,325,2,443,2
247,476,1,185,2
69,112,2,178,2
119,168,2,19,2
1,31,2,41,2
13,38,2,3,2
140,129,2,42,2
7,12,2,72,2
1,45,2,372,2
1,37,2,355,2
2,7,2,523,2
183,247,2,250,2
32,29,2,345,2
104,44,2,88,2
83,224,2,226,2
17,16,2,261,2
225,328,2,0,2
43,117,2,113,2
47,236,2,277,2
175,102,2,145,2
267,294,2,42,2
61,82,2,166,2
100,36,2,84,2
25,20,2,134,2
14,12,2,58,2
60,146,2,127,2
225,239,2,76,2
3,27,2,35,2
72,107,2,0,2
207,232,2,130,2
121,206,2,514,2
262,253,1,35,2
153,144,2,349,2
36,24,2,46,2
85,232,2,273,2
102,175,2,61,2
2,106,2,87,2
37,90,2,83,2
19,9,2,177,2
255,413,2,120,2
22,61,2,72,2
340,458,2,18,2
7,12,2,143,2
86,113,2,26,2
37,54,2,239,2
211,175,2,375,2
174,131,2,66,2
120,246,2,89,2
3,82,2,81,2
51,30,2,81,2
70,41,2,97,2
303,560,2,80,2
9,52,2,2,2
28,90,2,24,2
10,71,2,113,2
70,81,2,87,2
205,332,2,204,2
175,115,2,227,2
19,115,2,480,2
195,205,2,561,2
43,8,2,524,2
42,89,2,331,2
141,288,2,352,2
114,144,2,81,2
252,159,2,217,2
30,14,2,98,2
50,91,2,0,2
45,188,2,57,2
94,116,2,102,2
61,101,2,90,2
15,60,2,0,2
97,143,2,57,2
149,233,2,43,2
109,155,2,227,2
93,43,2,209,2
128,77,2,266,2
215,116,2,106,2
93,102,2,351,2
31,174,2,249,2
162,105,2,311,2
41,47,2,38,2
181,70,2,89,2
32,12,2,66,2
39,79,2,146,2
63,22,2,20,2
113,12,2,77,2
152,202,2,24,2
117,178,1,143,2
53,53,2,251,2
166,238,2,155,2
32,7,2,117,2
225,205,2,291,2
90,13,2,30,2
188,162,2,237,2
55,73,2,115,2
55,84,2,159,2
198,264,2,368,2
69,59,2,126,2
76,55,2,39,2
5,14,2,66,2
231,195,2,80,2
295,481,1,130,2
17,161,2,0,2
96,216,2,6,2
39,152,2,78,2
1,41,2,7,2
160,122,2,85,2
60,59,2,197,2
36,80,2,147,2
27,116,2,162,2
42,32,2,44,2
7,37,2,203,2
40,101,2,281,2
80,146,2,623,2
143,140,2,26,2
31,12,2,240,2
46,78,2,33,2
33,74,2,107,2
267,367,2,236,2
104,95,2,58,2
17,25,2,79,2
69,86,2,122,2
245,381,2,46,2
56,113,2,206,2
394,452,1,305,2
45,84,2,637,2
163,531,2,148,2
165,268,3,1023,2
223,500,288,868,2
150,121,117,285,2
11,303,17,167,2
262,327,1,229,2
256,249,2,119,2
127,360,2,13,2
222,313,2,73,2
12,118,3,100,2
139,222,2,38,2
1,22,2,85,2
98,37,2,75,2
234,283,2,256,2
48,8,2,589,2
113,53,2,587,2
157,370,2,390,2
76,32,14,1023,2
71,329,1,250,2
531,381,1,1023,2
201,420,1,224,2
31,13,3,1023,2
347,371,160,786,2
185,207,37,221,2
154,166,2,327,2
17,31,1,302,2
198,254,2,144,2
2,6,2,72,2
100,167,2,41,2
38,12,2,159,2
3,156,2,90,2
6,65,2,67,2
115,214,2,102,2
0,57,2,72,2
152,196,2,232,2
145,313,2,542,2
82,136,2,363,2
183,350,2,332,2
48,158,2,446,2
169,259,2,122,2
140,169,2,513,2
227,219,2,143,2
58,170,2,303,2
77,274,2,130,2
42,27,2,64,2
23,123,2,39,2
13,13,2,22,2
97,6,2,14,2
60,31,2,81,2
12,125,2,80,2
219,212,2,53,2
67,69,2,0,2
433,486,2,99,2
71,154,2,38,2
361,482,2,256,2
332,408,2,1,2
90,233,2,147,2
89,184,2,22,2
280,362,1,63,2
78,7,2,272,2
50,92,2,201,2
16,77,2,80,2
41,153,2,122,2
137,248,2,37,2
106,234,2,31,2
198,269,2,266,2
17,38,2,31,2
99,81,2,35,2
109,33,2,258,2
233,305,2,59,2
235,124,2,105,2
151,357,2,444,2
244,97,2,371,2
261,233,2,655,2
51,54,2,622,2
268,316,2,153,2
129,177,2,239,2
151,259,2,162,2
145,227,2,203,2
41,78,2,49,2
270,369,2,67,2
137,165,2,39,2
149,229,2,65,2
66,9,2,12,2
54,72,2,20,2
126,172,2,34,2
329,239,2,103,2
63,14,2,165,2
137,70,2,0,2
64,125,2,135,2
196,43,2,0,2
279,258,2,115,2
97,149,2,53,2
45,33,2,77,2
8,109,2,30,2
55,215,2,185,2
127,247,2,82,2
309,381,1,29,2
35,7,2,53,2
28,13,2,13,2
147,192,2,0,2
126,107,2,29,2
27,9,2,122,2
317,217,2,67,2
70,125,2,43,2
113,43,2,35,2
32,34,2,292,2
127,66,2,104,2
67,41,2,9,2
105,119,2,0,2
89,156,2,39,2
169,193,2,105,2
210,373,2,122,2
116,127,2,0,2
118,123,2,19,2
45,68,2,89,2
152,206,2,87,2
130,152,2,276,2
91,93,2,241,2
95,75,2,210,2
176,189,2,381,2
67,63,2,79,2
94,41,2,125,2
8,59,2,18,2
183,175,2,0,2
167,244,2,40,2
100,129,2,1,2
183,57,2,24,2
230,331,2,88,2
104,229,2,53,2
318,462,2,24,2
233,257,2,0,2
223,349,2,44,2
149,145,2,139,2
25,15,2,137,2
65,50,2,140,2
171,126,2,98,2
118,115,2,129,2
153,141,2,0,2
79,174,2,0,2
239,388,2,89,2
139,181,2,150,2
113,123,2,8,2
129,60,2,92,2
176,259,2,43,2
114,58,2,55,2
102,159,2,0,2
60,70,2,75,2
185,229,2,23,2
75,82,2,72,2
183,194,2,1,2
44,45,2,42,2
34,77,2,0,2
46,70,2,0,2
39,46,2,60,2
54,74,2,152,2
261,344,2,188,2
158,256,2,228,2
360,583,2,29,2
227,451,1,28,2
221,346,2,1,2
30,167,2,2,2
264,462,2,94,2
62,66,2,79,2
2,27,2,191,2
57,79,2,357,2
92,118,2,6,2
84,121,2,316,2
38,56,2,151,2
33,15,2,69,2
181,215,2,112,2
13,42,2,102,2
5,86,2,0,2
11,26,2,169,2
181,386,2,51,2
356,436,2,17,2
301,337,2,118,2
341,394,2,50,2
123,21,2,309,2
29,12,2,63,2
89,76,2,136,2
109,42,2,42,2
43,103,2,246,2
140,234,2,11,2
42,77,2,13,2
52,17,2,119,2
34,52,2,179,2
123,26,2,17,2
104,210,2,382,2
99,211,2,404,2
37,130,2,414,2
48,9,2,471,2
207,260,2,475,2
334,453,2,73,2
70,15,2,195,2
107,321,2,117,2
22,119,2,350,2
24,58,2,158,2
108,113,2,285,2
1,36,2,210,2
159,280,2,389,2
60,77,2,84,2
89,76,2,86,2
162,210,2,324,2
118,137,2,343,2
311,237,2,126,2
189,157,2,7,2
245,415,2,265,2
237,228,2,648,2
119,285,2,5,2
195,363,2,249,2
38,116,1,52,2
219,273,2,75,2
192,86,2,89,2
212,253,2,5,2
227,184,2,361,2
348,378,2,561,2
75,76,2,129,2
40,13,2,343,2
164,184,2,313,2
175,185,2,298,2
85,95,2,466,2
248,39,2,254,2
38,63,2,449,2
209,438,2,340,2
190,203,2,201,2
305,316,2,172,2
86,177,2,190,2
185,378,2,115,2
67,195,2,90,2
123,17,2,683,2
72,488,1,197,2
229,296,2,418,2
2,323,2,150,2
13,58,484,1023,2
84,102,133,267,2
74,97,23,1021,2
50,400,307,924,2
67,220,107,448,2
134,43,15,746,2
322,334,1,85,2
25,127,2,537,2
8,35,2,136,2
201,148,2,73,2
106,84,2,305,2
77,19,2,128,2
178,174,2,93,2
89,160,2,215,2
221,273,2,116,2
154,209,2,0,2
118,47,2,17,2
264,289,2,219,2
93,94,2,302,2
231,346,2,51,2
270,203,2,786,2
139,138,1,271,2
259,243,3,1023,2
321,169,2,499,2
70,40,2,199,2
11,371,2,471,2
23,55,2,181,2
73,304,2,409,2
113,419,2,340,2
164,708,2,1016,2
37,424,1,2,2
482,646,2,912,2
142,118,2,548,2
31,167,2,838,2
113,24,2,337,2
69,168,2,806,2
243,195,1,162,2
81,206,2,622,2
54,62,1,316,2
152,285,2,605,2
65,48,2,228,2
14,90,2,260,2
88,127,2,489,2
250,332,2,561,2
33,47,2,5,2
73,183,2,215,2
162,74,2,1014,2
201,280,1,235,2
358,200,3,962,2
304,111,2,467,2
143,199,2,472,2
110,161,1,569,2
58,137,2,236,2
97,30,2,230,2
131,127,3,642,2
227,51,3,955,2
457,269,1,137,2
124,79,2,471,2
273,42,2,394,2
304,240,2,288,2
70,11,2,36,2
150,231,2,437,2
286,523,2,148,2
3,115,2,213,2
287,779,1,487,2
184,220,2,75,2
452,540,2,576,2
21,37,2,207,2
0,141,2,882,2
151,255,2,228,2
47,68,2,642,2
0,91,2,54,2
157,227,2,819,2
75,25,1,339,2
109,115,2,480,2
36,9,2,15,2
192,374,2,280,2
191,64,2,3,2
52,138,2,48,2
164,137,2,236,2
260,271,2,300,2
159,274,2,115,2
47,95,2,505,2
24,94,2,445,2
30,47,2,202,2
33,15,2,413,2
70,318,2,778,2
14,60,2,174,2
69,35,3,940,2
2,23,1,204,2
257,41,2,280,2
23,105,2,245,2
256,627,2,114,2
113,17,2,204,2
485,729,2,345,2
88,350,2,208,2
426,470,2,213,2
345,616,1,72,2
479,389,1,152,2
583,492,2,720,2
102,423,2,1023,2
179,471,283,640,2
28,30,74,499,2
53,173,8,641,2
204,139,1,465,2
152,167,2,549,2
283,268,2,201,2
125,197,2,698,2
47,8,2,117,2
288,326,2,396,2
30,35,2,474,2
237,340,2,980,2
118,388,2,408,2
25,155,3,806,2
63,168,1,65,2
135,172,400,1023,2
480,540,420,1023,2
49,147,147,806,2
240,590,30,480,2
103,46,1,883,2
4,371,1,635,2
61,6,2,332,2
200,74,2,0,2
7,106,2,242,2
189,242,2,387,2
41,169,2,112,2
309,515,2,306,2
60,27,2,69,2
177,261,2,195,2
461,1023,2,27,2
98,43,2,121,2
952,1023,629,133,2
161,362,312,232,2
170,387,71,61,2
102,208,6,701,2
285,222,1,137,2
84,194,2,171,2
20,17,2,522,2
209,120,2,641,2
167,69,2,150,2
41,13,2,163,2
97,86,2,208,2
6,82,2,37,2
306,204,2,206,2
68,64,2,214,2
347,914,2,1,2
98,321,1,0,2
126,357,2,330,2
18,194,3,461,2
52,199,2,221,2
76,39,2,494,2
30,6,2,30,2
43,19,2,745,2
118,170,2,431,2
105,139,2,414,2
420,509,3,841,2
22,15,2,571,2
6,50,2,430,2
267,243,2,764,2
344,560,2,456,2
255,125,2,311,2
322,780,2,779,2
30,98,1,133,2
72,57,3,944,2
19,245,1,149,2
84,116,2,201,2
289,408,2,154,2
43,61,2,284,2
98,70,2,264,2
175,216,2,139,2
48,18,2,69,2
35,72,2,161,2
147,6,2,236,2
90,237,2,176,2
143,69,2,436,2
0,235,2,145,2
77,101,2,388,2
299,443,2,116,2
3,246,2,407,2
294,95,3,824,2
170,628,1,194,2
296,396,2,469,2
154,261,2,637,2
173,235,2,111,2
13,25,2,226,2
111,85,2,141,2
139,204,2,207,2
16,17,2,601,2
405,552,2,506,2
64,70,2,485,2
243,458,2,141,2
355,474,2,219,2
158,147,2,153,2
150,205,2,175,2
38,23,2,58,2
91,129,2,105,2
95,90,2,198,2
64,7,2,525,2
2,70,2,453,2
71,145,2,104,2
122,81,2,155,2
2,58,2,378,2
108,120,2,0,2
92,99,2,185,2
21,40,2,103,2
92,194,2,68,2
100,155,2,275,2
88,87,2,203,2
21,43,2,349,2
13,133,2,72,2
44,149,2,40,2
231,496,1,113,2
1,82,2,75,2
85,231,2,238,2
3,12,2,15,2
16,90,2,144,2
145,79,2,96,2
69,36,2,130,2
22,74,2,419,2
92,118,2,267,2
70,286,2,568,2
167,220,2,95,2
163,101,2,93,2
54,12,2,52,2
295,340,1,43,2
4,35,2,69,2
163,204,2,54,2
7,205,2,18,2
14,197,2,111,2
86,126,2,18,2
79,145,2,198,2
17,5,2,350,2
105,73,2,107,2
92,123,2,81,2
66,42,2,100,2
5,92,2,139,2
207,154,2,63,2
41,28,2,0,2
5,22,2,4,2
173,172,2,14,2
152,97,2,114,2
108,190,2,164,2
8,161,2,133,2
11,33,2,120,2
15,11,2,233,2
175,387,2,120,2
43,45,2,241,2
144,199,2,43,2
59,99,2,356,2
115,92,2,63,2
101,101,2,205,2
179,147,2,158,2
11,22,2,116,2
29,50,2,67,2
51,112,2,22,2
97,21,2,26,2
43,243,2,72,2
3,19,2,104,2
106,186,2,6,2
28,32,2,0,2
6,40,2,336,2
301,369,1,211,2
55,7,2,226,2
175,218,2,227,2
116,40,2,80,2
71,372,2,250,2
107,111,2,277,2
67,65,2,28,2
5,38,2,22,2
9,66,2,28,2
78,69,2,284,2
16,38,2,49,2
108,154,2,193,2
39,72,2,32,2
258,347,1,112,2
2,11,2,178,2
188,271,2,6,2
171,354,2,75,2
32,74,2,73,2
181,93,2,315,2
60,371,2,172,2
124,157,2,247,2
132,241,2,387,2
28,46,2,0,2
50,101,2,363,2
115,231,2,303,2
185,165,2,313,2
116,124,2,163,2
69,8,2,283,2
290,507,2,38,2
40,110,2,48,2
362,621,2,62,2
155,361,2,269,2
197,232,2,184,2
307,313,2,75,2
159,315,2,162,2
18,98,2,107,2
165,215,2,234,2
1,73,2,62,2
144,195,2,81,2
41,88,2,84,2
167,91,2,113,2
110,91,2,102,2
27,72,2,110,2
61,41,2,107,2
99,67,2,14,2
99,87,2,576,2
44,45,1,57,2
1,10,2,185,2
62,100,2,0,2
10,107,2,178,2
61,96,2,157,2
1,38,2,71,2
48,73,2,119,2
139,77,2,183,2
187,254,2,60,2
211,258,2,108,2
232,282,2,54,2
23,133,2,377,2
74,16,2,289,2
76,63,2,429,2
53,146,2,392,2
88,94,2,235,2
75,131,2,246,2
163,149,2,285,2
137,129,2,504,2
52,38,2,652,2
77,101,1,35,2
197,317,2,207,2
76,181,2,129,2
86,207,2,103,2
10,7,2,113,2
90,98,2,62,2
41,14,2,0,2
187,247,2,162,2
140,159,2,404,2
31,38,2,201,2
42,77,2,161,2
193,214,2,272,2
169,95,2,0,2
1,20,2,163,2
6,8,2,17,2
227,116,2,157,2
54,218,2,90,2
193,335,1,60,2
42,129,2,109,2
286,378,2,12,2
1,82,2,106,2
62,96,2,111,2
98,179,2,0,2
289,724,1,159,2
35,31,2,487,2
13,189,2,248,2
61,16,2,651,2
54,12,2,633,2
128,43,2,254,2
108,128,1,75,2
68,63,2,190,2
5,10,2,351,2
168,159,2,37,2
62,53,2,58,2
202,158,2,188,2
133,95,2,116,2
118,195,2,15,2
5,128,2,76,2
2,81,2,0,2
72,226,2,7,2
45,82,2,6,2
14,176,2,33,2
155,14,2,25,2
129,127,2,5,2
7,71,2,146,2
86,28,2,92,2
73,123,2,131,2
241,315,2,261,2
51,54,2,139,2
258,279,2,670,2
55,62,2,599,2
91,35,2,145,2
93,147,2,164,2
71,28,2,105,2
126,105,2,156,2
107,75,2,57,2
144,152,2,13,2
128,96,2,74,2
1,43,2,22,2
34,20,2,43,2
18,54,2,124,2
82,30,2,173,2
306,370,2,66,2
117,68,2,202,2
210,382,2,513,2
91,198,2,11,2
121,240,2,789,2
244,419,2,440,2
35,24,2,95,2
151,303,2,211,2
22,98,2,88,2
90,99,2,78,2
246,198,2,0,2
273,378,2,51,2
216,160,2,111,2
321,369,2,1,2
6,40,2,29,2
117,207,2,96,2
255,243,2,290,2
253,340,2,233,2
43,86,2,54,2
90,158,2,417,2
255,218,2,323,2
21,7,2,286,2
68,119,2,518,2
150,204,2,270,2
225,242,2,450,2
116,143,2,36,2
70,66,2,168,2
13,56,2,80,2
165,293,2,104,2
171,125,2,60,2
50,41,2,0,2
466,620,2,0,2
237,318,2,42,2
168,226,2,13,2
151,188,2,0,2
29,79,2,1,2
35,40,2,1,2
117,182,2,108,2
194,178,2,235,2
11,58,2,18,2
190,186,2,353,2
83,80,2,61,2
7,17,2,75,2
30,72,2,4,2
18,12,2,55,2
351,473,2,30,2
99,133,2,1,2
214,267,2,4,2
20,34,2,70,2
76,78,2,123,2
186,300,2,16,2
13,10,2,162,2
333,319,2,307,2
74,49,2,131,2
121,261,2,71,2
211,343,2,313,2
54,97,2,204,2
156,218,2,57,2
59,25,2,111,2
19,38,2,0,2
193,212,2,30,2
62,151,2,93,2
98,135,2,75,2
3,113,2,30,2
4,7,2,76,2
137,113,2,79,2
6,63,2,120,2
67,94,2,5,2
90,45,2,50,2
12,31,2,25,2
156,184,2,311,2
13,21,2,150,2
62,151,2,27,2
16,74,2,21,2
76,108,2,6,2
89,59,2,91,2
43,77,2,20,2
87,129,2,18,2
145,277,2,44,2
165,179,1,52,2
196,257,2,7,2
45,96,2,143,2
285,427,2,172,2
8,33,2,177,2
9,119,2,24,2
26,60,2,428,2
2,23,2,271,2
251,298,2,16,2
91,78,2,60,2
66,124,2,77,2
180,175,2,0,2
66,83,2,17,2
159,146,2,118,2
130,136,2,14,2
101,175,2,0,2
191,169,2,157,2
49,47,2,136,2
45,21,2,33,2
64,18,2,19,2
65,47,2,38,2
187,123,2,127,2
26,32,2,29,2
27,32,2,0,2
111,104,2,90,2
3,71,2,1,2
282,253,2,170,2
89,136,2,52,2
186,218,2,102,2
136,125,2,40,2
86,127,2,42,2
149,160,2,289,2
122,178,2,198,2
131,100,2,43,2
197,127,2,373,2
2,17,2,39,2
207,296,2,20,2
114,94,2,44,2
143,190,2,47,2
30,13,2,167,2
75,62,2,125,2
80,107,2,44,2
53,71,2,0,2
70,56,2,102,2
162,185,2,32,2
55,120,2,36,2
71,54,2,97,2
22,28,2,70,2
150,87,2,35,2
32,94,2,124,2
122,97,2,72,2
79,90,2,2,2
33,50,2,48,2
193,175,2,14,2
54,189,2,0,2
99,132,2,242,2
39,43,2,41,2
133,300,2,247,2
131,55,2,242,2
155,143,2,0,2
105,135,2,121,2
291,341,2,191,2
74,139,2,227,2
200,217,2,53,2
0,48,2,271,2
0,102,2,119,2
134,112,2,89,2
6,135,2,188,2
277,321,2,50,2
192,148,2,0,2
110,59,2,34,2
163,312,2,146,2
32,192,2,273,2
358,279,2,458,2
225,204,2,141,2
120,31,2,468,2
200,280,2,641,2
31,21,2,169,2
173,195,2,396,2
59,56,2,358,2
47,43,2,70,2
309,313,2,80,2
57,47,2,28,2
409,483,2,263,2
254,297,2,88,2
123,131,2,0,2
27,34,2,216,2
218,85,2,344,2
55,242,2,273,2
114,169,2,484,2
208,63,2,17,2
14,88,2,302,2
54,42,2,0,2
110,188,2,0,2
181,220,2,0,2
169,139,2,223,2
33,8,2,155,2
219,175,2,7,2
121,332,2,0,2
70,151,2,100,2
362,492,1,441,2
376,626,2,429,2
84,218,2,233,2
264,459,2,651,2
185,505,1,283,2
91,174,2,561,2
238,146,2,231,2
223,321,2,232,2
205,227,2,113,2
138,171,2,301,2
8,33,2,197,2
126,260,2,66,2
303,128,2,257,2
289,33,2,51,2
69,147,2,257,2
191,53,2,297,2
534,774,2,581,2
88,30,3,816,2
361,357,2,506,2
35,200,1,207,2
82,158,2,62,2
302,77,2,264,2
279,717,2,637,2
153,151,2,93,2
189,366,3,714,2
176,225,2,468,2
83,188,2,715,2
157,150,1,182,2
191,256,2,38,2
83,70,2,256,2
21,52,2,209,2
4,100,2,16,2
4,71,2,185,2
409,574,2,530,2
97,104,2,559,2
223,180,2,195,2
191,84,2,439,2
12,36,2,49,2
296,210,2,519,2
87,85,2,191,2
79,62,2,461,2
241,453,2,46,2
24,106,3,982,2
54,358,1,61,2
183,502,1,357,2
176,197,2,833,2
414,642,1,269,2
20,89,2,749,2
315,328,2,573,2
198,126,1,363,2
117,55,2,878,2
341,337,2,267,2
62,8,3,882,2
104,142,2,742,2
78,71,2,630,2
17,18,2,94,2
233,250,2,307,2
131,44,2,335,2
99,105,2,454,2
1,37,2,13,2
76,95,2,216,2
226,183,2,160,2
425,515,1,242,2
70,9,2,461,2
164,102,2,470,2
225,219,2,338,2
106,110,3,861,2
73,79,1,23,2
55,105,2,444,2
109,101,2,313,2
46,82,2,75,2
142,162,2,195,2
103,168,2,519,2
170,381,2,348,2
20,15,2,833,2
312,393,1,69,2
30,254,2,432,2
183,212,1,72,2
1,157,2,155,2
98,95,2,94,2
27,210,2,116,2
5,143,2,200,2
237,141,2,110,2
8,29,3,842,2
33,214,2,128,2
19,58,2,102,2
235,189,2,574,2
39,124,2,548,2
240,320,2,581,2
0,69,2,519,2
0,119,2,434,2
12,79,2,821,2
115,280,2,417,2
463,397,3,900,2
110,433,1,378,2
7,14,2,666,2
4,51,305,1023,2
289,438,122,757,2
24,203,174,1023,2
144,224,171,427,2
76,63,29,513,2
106,113,1,169,2
20,7,1,5,2
7,11,3,445,2
153,44,2,107,2
44,8,3,920,2
60,7,2,488,2
204,680,2,410,2
163,40,2,310,2
593,933,2,283,2
90,147,2,415,2
168,147,2,377,2
139,335,2,296,2
88,216,2,142,2
83,61,3,817,2
174,195,2,252,2
148,51,2,199,2
52,157,2,411,2
308,283,2,177,2
195,121,2,538,2
108,79,2,220,2
78,100,2,463,2
30,34,2,486,2
64,111,2,40,2
43,109,2,147,2
202,276,2,366,2
179,421,2,372,2
62,70,2,579,2
95,612,1,63,2
293,437,2,541,2
80,225,2,248,2
107,77,2,545,2
72,168,2,387,2
271,164,2,839,2
99,220,2,708,2
222,251,2,87,2
59,91,2,98,2
83,141,2,15,2
43,43,2,375,2
29,79,2,448,2
232,614,2,51,2
188,190,2,821,2
425,767,1,9,2
45,49,2,557,2
79,167,2,35,2
94,72,2,406,2
1,29,2,246,2
211,221,2,211,2
82,25,3,1022,2
18,84,2,65,2
237,137,2,589,2
284,372,2,57,2
308,258,2,539,2
187,154,1,21,2
263,201,2,154,2
218,180,2,36,2
21,209,2,60,2
233,325,1,31,2
146,340,2,173,2
31,73,2,291,2
60,42,2,83,2
21,153,2,440,2
123,104,2,72,2
51,47,2,636,2
43,33,2,570,2
154,81,2,272,2
160,88,2,0,2
188,7,2,232,2
38,10,2,313,2
126,66,2,4,2
151,14,2,269,2
79,53,2,215,2
161,229,2,360,2
148,59,2,24,2
23,41,2,272,2
175,297,2,91,2
8,51,2,204,2
35,58,2,260,2
138,245,2,576,2
29,121,2,55,2
69,31,2,524,2
273,465,2,313,2
10,28,2,759,2
111,259,2,382,2
9,35,2,6,2
17,103,2,9,2
18,86,2,75,2
105,7,2,45,2
95,310,2,147,2
35,13,2,9,2
46,65,2,75,2
93,39,2,231,2
334,341,2,67,2
7,277,2,27,2
115,35,2,35,2
58,46,2,418,2
82,197,2,327,2
14,27,2,139,2
216,163,2,277,2
79,27,2,129,2
10,42,2,188,2
214,309,2,33,2
50,211,2,327,2
107,142,2,163,2
92,157,2,27,2
48,189,2,23,2
31,144,2,0,2
87,27,2,41,2
40,175,2,178,2
97,107,2,78,2
388,545,2,131,2
85,93,2,0,2
82,204,2,153,2
97,41,2,24,2
88,20,2,158,2
113,106,2,50,2
43,52,2,177,2
80,157,2,33,2
30,376,2,287,2
3,70,2,67,2
99,246,2,193,2
33,67,2,1,2
44,66,2,45,2
127,164,2,136,2
39,103,2,87,2
49,66,2,4,2
29,244,2,46,2
15,155,2,209,2
43,122,2,222,2
35,5,2,251,2
62,64,2,21,2
197,144,2,37,2
71,30,2,530,2
10,14,2,41,2
51,75,2,174,2
85,228,2,61,2
60,95,2,140,2
45,131,2,63,2
75,153,2,73,2
15,31,2,40,2
32,114,2,207,2
32,63,2,455,2
43,73,2,394,2
9,85,2,553,2
29,43,2,49,2
89,93,2,158,2
117,121,2,300,2
29,47,2,8,2
157,262,2,161,2
48,51,2,39,2
80,108,2,142,2
121,120,2,0,2
1,10,2,62,2
67,16,2,176,2
35,223,2,163,2
170,163,2,12,2
125,219,2,0,2
69,145,2,149,2
185,323,2,14,2
138,409,2,233,2
284,177,2,427,2
245,376,2,145,2
17,84,2,164,2
127,159,2,54,2
78,221,2,19,2
88,129,2,205,2
17,21,2,175,2
77,38,2,0,2
40,46,2,63,2
17,6,2,144,2
48,53,2,0,2
104,162,2,0,2
93,104,2,25,2
267,387,2,272,2
62,105,2,221,2
88,57,3,193,2
82,183,2,118,2
160,252,2,360,2
4,135,2,36,2
38,61,2,116,2
263,428,2,0,2
129,272,2,19,2
165,168,2,19,2
153,194,2,131,2
147,176,2,54,2
63,89,2,278,2
89,151,2,137,2
31,82,2,182,2
38,109,2,319,2
3,122,2,69,2
8,65,2,231,2
143,247,2,201,2
141,260,2,172,2
171,247,2,190,2
90,23,2,46,2
165,6,2,49,2
67,129,2,95,2
20,219,2,52,2
87,221,2,49,2
210,318,2,22,2
88,403,2,24,2
127,151,2,90,2
52,48,2,634,2
13,186,2,479,2
5,42,3,968,2
122,67,2,449,2
4,100,1,211,2
16,12,2,90,2
187,208,2,226,2
7,28,2,85,2
112,93,2,289,2
213,138,2,42,2
58,146,2,119,2
52,157,2,187,2
321,449,2,56,2
30,138,2,0,2
286,584,1,81,2
243,462,1,198,2
377,520,2,294,2
98,42,2,166,2
68,215,2,329,2
62,127,2,346,2
27,73,2,323,2
46,57,2,68,2
141,155,2,376,2
20,140,2,0,2
17,73,2,281,2
132,178,2,0,2
12,94,2,4,2
175,188,2,68,2
25,13,2,144,2
236,495,2,129,2
99,202,2,48,2
178,528,2,0,2
53,409,1,352,2
133,102,2,481,2
236,54,2,282,2
51,80,3,764,2
244,208,2,32,2
2,23,2,257,2
29,33,2,161,2
174,169,2,266,2
78,29,2,128,2
81,127,2,195,2
110,73,2,20,2
0,39,2,0,2
115,76,2,89,2
63,190,2,23,2
301,347,2,24,2
202,239,2,123,2
5,182,2,169,2
172,161,2,111,2
151,137,1,201,2
61,61,2,678,2
162,154,2,147,2
62,291,3,1023,2
6,129,54,381,2
63,16,8,204,2
151,252,0,129,2
61,7,2,129,2
9,43,2,159,2
170,215,2,44,2
6,10,2,24,2
154,174,2,72,2
342,564,2,13,2
153,63,2,0,2
246,453,2,86,2
23,73,2,341,2
276,295,2,330,2
155,252,1,79,2
4,13,2,463,2
263,244,2,410,2
21,19,2,216,2
190,207,2,297,2
222,255,2,173,2
84,139,2,456,2
213,278,2,126,2
37,89,2,169,2
189,208,2,43,2
37,49,2,3,2
28,40,2,200,2
50,52,2,84,2
5,122,2,38,2
130,120,2,90,2
168,30,2,159,2
70,143,2,356,2
260,475,1,89,2
4,17,2,271,2
191,282,2,524,2
50,28,2,412,2
10,8,2,111,2
134,225,2,418,2
32,24,2,616,2
212,301,2,211,2
6,7,2,196,2
107,247,2,124,2
166,128,2,109,2
69,79,2,71,2
38,128,2,190,2
265,232,2,0,2
116,64,2,54,2
107,179,2,64,2
156,277,2,33,2
195,248,2,51,2
14,73,2,65,2
35,144,2,86,2
39,64,2,56,2
12,7,2,99,2
155,193,2,26,2
43,19,2,186,2
24,20,2,31,2
48,26,2,178,2
56,112,2,167,2
4,6,2,12,2
50,85,2,57,2
9,79,2,36,2
7,83,2,124,2
7,134,2,9,2
24,18,2,28,2
44,47,2,82,2
78,90,2,278,2
177,114,2,161,2
153,160,2,393,2
4,31,2,29,2
3,143,2,621,2
227,300,2,453,2
113,235,1,8,2
25,15,2,46,2
164,176,2,45,2
231,262,2,157,2
150,128,2,128,2
323,327,2,21,2
48,185,2,180,2
281,335,2,123,2
65,239,2,19,2
16,20,2,42,2
168,159,2,45,2
51,109,2,59,2
162,263,2,30,2
99,35,2,77,2
7,13,2,235,2
131,171,2,60,2
5,10,2,185,2
139,115,2,147,2
116,355,2,93,2
115,99,2,2,2
738,1023,2,22,2
124,60,1,3,2
166,301,2,3,2
121,160,2,11,2
5,42,2,90,2
201,228,2,0,2
86,43,2,39,2
118,115,2,125,2
78,111,2,184,2
55,109,2,177,2
78,83,2,89,2
135,116,2,137,2
76,127,2,421,2
117,94,2,72,2
62,23,2,68,2
109,66,2,19,2
65,87,2,0,2
280,289,2,98,2
169,88,2,20,2
56,111,2,2,2
130,122,2,60,2
91,146,2,0,2
221,284,2,35,2
194,127,2,0,2
16,112,2,97,2
144,192,2,80,2
14,57,2,60,2
41,15,2,42,2
151,303,2,0,2
63,59,2,17,2
283,484,2,17,2
310,536,2,58,2
122,166,2,395,2
280,471,2,83,2
1,15,2,25,2
282,394,2,26,2
116,103,2,50,2
270,363,2,227,2
179,101,2,40,2
237,231,2,14,2
361,389,2,93,2
88,153,2,274,2
112,133,2,121,2
6,7,2,125,2
20,28,2,290,2
139,129,2,93,2
69,62,2,5,2
199,146,2,60,2
321,486,2,125,2
121,159,2,71,2
351,666,2,67,2
11,17,2,83,2
191,188,2,37,2
184,73,2,176,2
146,92,2,247,2
7,51,2,106,2
195,277,2,41,2
148,137,2,275,2
21,50,2,309,2
91,95,2,81,2
132,196,2,401,2
31,52,2,385,2
149,216,2,274,2
166,127,2,321,2
10,100,2,227,2
588,578,2,395,2
343,336,1,114,2
430,611,2,297,2
199,304,2,183,2
171,212,2,0,2
317,324,2,196,2
68,230,1,12,2
45,112,2,378,2
45,109,2,200,2
15,126,2,33,2
142,122,2,283,2
81,56,2,197,2
171,247,2,169,2
1,144,2,319,2
176,307,2,86,2
62,72,2,17,2
242,200,2,8,2
314,13,2,80,2
407,414,1,177,2
97,6,2,270,2
298,239,2,89,2
298,145,2,461,2
99,23,2,29,2
2,33,2,507,2
363,496,2,432,2
56,45,2,253,2
281,411,2,273,2
185,74,2,222,2
47,88,2,219,2
119,111,2,12,2
74,76,2,7,2
122,85,2,239,2
176,110,2,378,2
180,229,2,452,2
87,182,2,625,2
110,33,2,132,2
3,246,2,214,2
480,701,2,163,2
220,370,2,158,2
442,706,2,50,2
231,23,2,94,2
345,554,2,696,2
254,65,2,261,2
432,492,2,486,2
179,170,2,774,2
259,273,1,692,2
206,15,2,624,2
459,480,2,383,2
43,94,3,926,2
45,15,1,98,2
122,257,2,1017,2
35,16,2,230,2
6,5,2,350,2
200,299,2,459,2
213,325,2,48,2
7,208,2,271,2
23,314,2,9,2
188,208,2,581,2
136,235,2,118,2
25,129,2,450,2
66,422,2,709,2
57,102,2,196,2
116,48,3,789,2
70,296,2,410,2
84,46,2,1023,2
13,133,2,728,2
177,188,2,651,2
372,166,2,864,2
115,134,1,206,2
441,181,2,478,2
396,599,2,272,2
261,407,2,394,2
525,689,2,833,2
137,234,1,264,2
57,127,2,833,2
372,445,1,75,2
271,295,2,402,2
84,49,2,321,2
59,193,3,1023,2
38,85,15,389,2
132,161,597,1023,2
61,121,307,1023,2
79,15,181,920,2
77,66,489,1023,2
14,11,171,171,2
38,109,16,1023,2
105,152,2,245,2
246,185,2,338,2
172,173,2,591,2
12,17,2,77,2
452,533,3,544,2
268,594,2,128,2
479,515,2,669,2
210,270,2,502,2
355,484,2,133,2
228,182,2,321,2
34,298,2,53,2
64,34,2,27,2
39,5,3,667,2
124,33,2,471,2
59,69,2,502,2
92,20,2,952,2
204,164,1,251,2
189,272,77,1023,2
72,9,17,76,2
70,151,1,603,2
29,24,1,459,2
62,216,2,693,2
268,754,2,416,2
28,269,2,976,2
22,98,2,675,2
62,472,1,619,2
207,141,2,858,2
68,83,1,497,2
219,236,2,872,2
249,11,1,722,2
38,64,2,1014,2
315,221,308,916,2
88,143,129,605,2
59,65,20,451,2
184,199,1,133,2
36,7,2,220,2
120,112,2,269,2
76,74,2,437,2
73,227,2,744,2
131,129,2,420,2
94,33,2,516,2
71,71,3,673,2
319,342,1,624,2
4,44,474,1023,2
353,557,56,745,2
228,167,537,1023,2
108,183,242,334,2
41,19,47,621,2
38,144,4,14,2
10,46,1,260,2
66,117,2,3,2
220,244,2,348,2
121,124,2,656,2
169,126,2,85,2
473,674,3,549,2
201,440,2,94,2
363,655,2,435,2
170,191,2,230,2
150,320,2,188,2
141,12,2,351,2
231,249,2,14,2
243,329,2,688,2
212,203,2,255,2
106,136,2,86,2
50,32,2,217,2
140,25,2,731,2
12,9,2,206,2
306,530,2,401,2
107,70,2,394,2
374,468,2,352,2
37,53,2,466,2
303,406,2,251,2
199,382,1,20,2
268,239,2,663,2
50,228,2,886,2
42,14,2,478,2
166,225,526,1023,2
15,13,219,1023,2
90,108,351,519,2
250,193,116,904,2
684,410,91,941,2
216,363,29,403,2
38,164,2,861,2
95,386,1,487,2
62,37,2,227,2
326,708,2,265,2
210,438,2,815,2
265,39,2,67,2
60,149,3,1023,2
107,447,2,231,2
33,189,2,793,2
152,293,1,151,2
143,182,2,660,2
104,26,100,892,2
67,66,25,603,2
10,91,1,103,2
156,31,1,1,2
86,132,2,5,2
62,91,2,111,2
48,47,2,56,2
199,264,2,197,2
18,62,2,94,2
0,28,2,236,2
375,104,2,372,2
263,112,2,253,2
4,95,2,70,2
151,562,2,43,2
8,302,2,603,2
181,342,2,6,2
63,142,2,335,2
275,447,1,421,2
256,288,1,54,2
152,339,2,388,2
137,118,2,221,2
48,115,2,132,2
66,20,3,946,2
77,135,2,7,2
189,268,2,244,2
31,90,2,202,2
3,28,2,164,2
110,84,2,148,2
173,232,2,695,2
4,104,2,74,2
61,182,2,87,2
40,169,2,148,2
15,129,2,2,2
2,14,2,579,2
187,152,2,1,2
1,81,3,858,2
33,120,2,61,2
29,169,2,371,2
84,252,2,301,2
30,242,2,154,2
4,11,2,213,2
132,130,2,536,2
199,206,2,13,2
454,425,2,299,2
261,95,2,19,2
62,67,2,330,2
120,121,2,57,2
27,71,2,0,2
121,118,2,452,2
4,107,2,233,2
43,18,2,470,2
1,104,2,224,2
14,21,2,221,2
93,17,2,173,2
228,165,2,82,2
165,52,3,687,2
52,229,2,335,2
123,103,2,280,2
58,43,2,188,2
42,10,2,30,2
100,215,2,125,2
71,84,2,0,2
21,98,2,29,2
89,188,2,1,2
54,75,2,285,2
51,118,2,192,2
33,14,2,170,2
18,19,2,389,2
112,133,2,25,2
58,70,2,31,2
42,75,2,52,2
81,225,2,215,2
105,77,2,16,2
182,249,2,117,2
40,10,2,52,2
226,455,2,101,2
185,343,2,21,2
70,268,2,112,2
128,151,2,97,2
51,143,2,96,2
14,20,2,443,2
40,91,2,98,2
1,6,2,97,2
137,208,2,163,2
75,112,2,75,2
113,182,2,39,2
10,74,2,45,2
18,11,2,11,2
96,255,2,101,2
210,352,2,80,2
161,203,2,94,2
132,175,2,0,2
75,117,2,19,2
10,67,2,147,2
34,58,2,215,2
24,131,2,591,2
43,97,2,16,2
107,10,2,71,2
56,179,2,183,2
23,25,2,109,2
16,31,2,200,2
22,53,2,63,2
55,156,2,166,2
222,204,2,148,2
109,132,2,118,2
139,158,2,0,2
5,29,2,46,2
12,45,2,39,2
1,196,2,54,2
38,12,2,184,2
137,195,2,89,2
201,462,2,239,2
99,60,2,257,2
310,436,2,312,2
7,12,2,202,2
58,70,2,253,2
6,170,2,56,2
7,9,2,129,2
124,159,2,209,2
18,60,2,103,2
25,12,2,132,2
27,27,2,74,2
76,92,2,0,2
65,54,2,56,2
125,259,2,224,2
61,83,2,6,2
79,50,2,204,2
104,11,2,133,2
50,21,2,189,2
99,86,2,133,2
35,265,2,129,2
43,23,2,294,2
79,74,2,185,2
78,13,2,292,2
261,366,2,573,2
37,135,2,27,2
10,21,2,77,2
67,47,2,68,2
112,133,2,55,2
5,18,2,97,2
67,56,2,163,2
94,147,2,84,2
108,194,2,84,2
161,20,2,402,2
116,59,2,175,2
0,172,2,214,2
16,41,2,488,2
81,136,1,47,2
118,6,2,378,2
95,99,2,159,2
187,191,2,42,2
139,242,1,240,2
13,71,2,319,2
97,75,2,22,2
60,93,2,199,2
98,71,2,5,2
106,113,2,0,2
40,44,2,437,2
316,622,2,319,2
19,104,2,756,2
10,186,2,383,2
85,123,1,111,2
13,50,2,126,2
140,49,2,0,2
211,232,2,162,2
178,200,2,123,2
148,218,2,155,2
15,23,2,223,2
209,222,2,84,2
73,15,2,199,2
72,42,2,139,2
131,125,2,49,2
7,86,2,291,2
115,185,2,305,2
51,114,2,517,2
117,138,2,0,2
52,177,2,626,2
231,280,2,254,2
31,400,2,43,2
119,79,2,223,2
40,19,2,28,2
28,280,2,0,2
136,307,2,63,2
108,39,2,144,2
203,207,2,33,2
146,31,2,34,2
163,184,2,480,2
20,7,2,423,2
181,206,2,345,2
41,18,2,734,2
25,138,2,145,2
22,130,2,361,2
89,28,2,0,2
31,114,2,230,2
266,443,2,265,2
121,399,2,106,2
341,501,1,75,2
141,128,2,129,2
89,87,2,65,2
9,74,2,108,2
32,11,2,251,2
34,201,2,256,2
201,263,2,11,2
94,37,2,88,2
85,15,2,115,2
198,239,2,174,2
57,61,2,170,2
23,94,2,390,2
214,176,2,248,2
27,143,2,224,2
137,249,2,246,2
219,176,2,33,2
20,215,2,32,2
30,11,2,159,2
256,286,1,151,2
179,217,2,145,2
361,403,2,225,2
0,16,2,150,2
218,370,1,0,2
149,339,2,194,2
254,340,2,123,2
185,194,2,207,2
42,98,2,553,2
58,87,2,139,2
13,24,2,49,2
71,133,2,131,2
87,5,2,59,2
43,49,2,113,2
196,239,2,4,2
32,83,2,87,2
59,79,2,17,2
255,234,2,9,2
9,9,2,15,2
340,448,2,134,2
38,199,2,0,2
3,24,2,55,2
8,71,2,187,2
86,63,2,110,2
218,333,2,0,2
105,69,2,398,2
35,144,2,25,2
3,143,2,624,2
140,95,2,430,2
170,261,2,34,2
88,93,2,82,2
92,232,2,88,2
131,53,2,148,2
23,47,2,144,2
41,68,2,8,2
3,80,2,1,2
212,231,2,89,2
16,58,2,42,2
183,165,2,171,2
265,366,2,115,2
59,282,2,82,2
30,224,2,222,2
32,14,2,9,2
83,107,2,38,2
234,299,2,237,2
87,19,2,359,2
145,199,2,305,2
76,136,1,23,2
289,585,2,200,2
387,634,2,234,2
153,342,2,55,2
143,212,2,41,2
11,107,2,84,2
29,123,2,30,2
39,133,2,24,2
65,28,2,39,2
34,31,2,118,2
245,178,2,52,2
72,63,2,171,2
26,204,2,242,2
73,116,2,84,2
137,169,2,180,2
8,137,2,21,2
113,196,2,22,2
164,211,2,22,2
53,115,2,54,2
450,520,2,34,2
143,109,2,0,2
16,15,2,3,2
194,137,2,90,2
77,122,2,8,2
67,167,2,35,2
74,122,2,304,2
64,88,2,0,2
183,202,2,228,2
61,33,2,331,2
101,81,2,0,2
218,285,2,0,2
62,88,2,47,2
205,356,2,137,2
3,12,2,26,2
59,132,2,0,2
11,74,2,52,2
28,199,2,0,2
240,258,2,0,2
32,88,2,96,2
129,208,2,105,2
11,87,2,5,2
67,115,2,146,2
119,80,2,316,2
105,81,2,138,2
4,79,2,488,2
73,61,2,163,2
43,97,2,11,2
124,139,2,0,2
113,54,2,128,2
137,39,2,82,2
198,184,2,94,2
197,203,2,0,2
26,29,2,85,2
73,312,2,0,2
88,214,2,16,2
68,15,2,9,2
105,215,2,149,2
165,230,2,129,2
24,45,2,0,2
42,74,2,99,2
118,115,2,37,2
2,11,2,94,2
133,106,2,66,2
164,196,2,45,2
118,285,2,17,2
23,135,2,14,2
261,448,2,21,2
103,182,2,30,2
66,21,2,45,2
16,23,2,0,2
225,261,2,10,2
102,122,2,23,2
43,108,2,239,2
72,85,2,198,2
275,243,2,122,2
240,261,2,20,2
4,12,2,276,2
217,203,2,335,2
0,24,2,38,2
98,77,2,26,2
155,270,2,136,2
93,146,2,36,2
238,363,1,136,2
75,117,2,112,2
199,255,2,0,2
135,146,2,0,2
86,124,2,0,2
136,94,2,310,2
43,220,2,338,2
104,215,2,109,2
42,221,2,283,2
1,49,2,261,2
75,65,2,16,2
4,29,2,14,2
25,145,2,119,2
18,15,2,81,2
146,143,2,120,2
187,108,2,61,2
46,18,2,42,2
210,213,2,91,2
18,75,2,318,2
78,229,2,258,2
197,144,2,0,2
195,181,2,236,2
4,100,2,161,2
1,7,2,0,2
21,148,2,0,2
39,92,2,180,2
54,15,2,134,2
66,23,2,63,2
119,160,2,94,2
49,60,2,247,2
125,223,2,482,2
131,167,2,93,2
169,115,2,123,2
226,230,2,0,2
121,65,2,118,2
157,32,2,20,2
159,6,2,15,2
170,181,2,258,2
138,205,2,580,2
171,211,1,251,2
29,23,2,408,2
36,74,2,317,2
17,13,2,51,2
169,247,2,298,2
130,110,2,59,2
212,322,2,594,2
11,13,2,430,2
136,186,2,382,2
58,181,2,674,2
97,13,2,109,2
180,69,2,1023,2
128,292,1,127,2
136,155,2,344,2
149,235,2,799,2
29,167,1,112,2
109,197,2,141,2
17,429,2,297,2
76,326,2,99,2
158,73,2,347,2
297,260,2,419,2
92,50,2,103,2
51,112,2,631,2
194,344,2,356,2
248,222,1,68,2
206,107,2,359,2
131,256,2,345,2
183,211,2,705,2
90,71,2,69,2
101,100,2,788,2
212,41,2,190,2
267,182,2,552,2
169,226,2,274,2
148,209,2,425,2
207,167,2,133,2
36,110,2,56,2
279,515,2,120,2
99,123,2,259,2
106,67,2,54,2
31,31,2,37,2
292,644,2,0,2
338,788,2,29,2
67,135,2,812,2
29,326,2,260,2
110,164,2,278,2
247,67,2,331,2
61,63,2,652,2
182,26,2,127,2
23,16,2,241,2
185,160,2,675,2
231,21,2,526,2
69,163,2,28,2
250,129,2,682,2
68,345,1,91,2
65,490,2,330,2
65,183,2,59,2
13,451,2,143,2
216,464,2,35,2
254,86,2,182,2
28,318,2,3,2
129,286,2,266,2
248,391,2,162,2
75,160,2,898,2
64,285,2,610,2
114,43,2,283,2
294,225,2,691,2
185,145,2,74,2
30,14,2,416,2
112,154,2,276,2
289,15,520,1023,2
126,35,97,300,2
117,425,14,870,2
306,431,0,362,2
198,130,1,195,2
243,993,2,88,2
19,31,178,240,2
195,344,40,755,2
65,34,3,222,2
8,153,1,626,2
53,208,2,378,2
314,225,2,247,2
59,19,2,19,2
56,44,3,907,2
304,594,2,431,2
196,367,11,692,2
245,149,2,6,2
39,148,1,136,2
317,296,2,362,2
111,243,2,65,2
243,199,2,296,2
91,10,2,285,2
350,357,2,101,2
202,48,2,129,2
154,295,2,234,2
188,29,2,173,2
47,412,2,286,2
3,64,2,398,2
6,383,2,400,2
5,109,2,845,2
198,245,1,469,2
59,143,2,668,2
55,202,2,105,2
33,103,2,113,2
120,33,2,171,2
43,105,2,244,2
127,223,2,351,2
322,58,2,0,2
13,159,2,1023,2
257,412,128,435,2
204,82,26,969,2
130,207,55,191,2
134,40,11,487,2
240,18,1,870,2
137,184,2,81,2
381,367,3,1023,2
68,90,62,85,2
100,73,9,819,2
192,142,1,75,2
93,38,3,855,2
131,158,2,479,2
59,93,2,549,2
90,21,2,25,2
84,245,2,635,2
174,154,2,434,2
63,34,2,245,2
160,240,2,196,2
13,423,2,427,2
32,96,2,83,2
578,379,620,1023,2
194,559,140,508,2
153,103,24,1010,2
232,7,1,255,2
301,302,2,591,2
22,78,2,554,2
86,61,2,658,2
9,6,2,718,2
50,178,2,348,2
0,7,2,506,2
181,29,2,308,2
163,166,2,403,2
306,35,3,1023,2
260,202,1,413,2
241,179,2,323,2
166,15,2,304,2
204,251,2,205,2
110,230,2,134,2
34,123,2,497,2
129,180,2,13,2
71,13,2,998,2
56,57,2,367,2
39,134,262,1023,2
17,113,163,474,2
82,8,33,527,2
98,26,2,236,2
23,23,1,172,2
109,285,2,23,2
58,291,2,411,2
52,28,2,353,2
200,513,1,239,2
181,290,2,230,2
42,109,2,349,2
10,310,2,577,2
105,60,2,504,2
345,98,2,526,2
91,152,1,101,2
321,20,2,16,2
39,81,2,225,2
125,143,2,393,2
88,83,2,175,2
179,178,2,558,2
39,137,2,101,2
130,182,2,1,2
143,145,2,583,2
259,102,2,158,2
497,513,2,420,2
67,201,1,82,2
253,26,2,617,2
160,189,2,6,2
79,175,2,557,2
219,183,2,350,2
77,142,2,316,2
82,110,3,913,2
16,53,2,533,2
29,107,2,761,2
15,79,2,371,2
223,287,2,497,2
58,164,2,35,2
184,420,2,416,2
51,137,2,271,2
10,9,2,92,2
84,352,2,122,2
218,387,2,344,2
4,23,2,553,2
43,176,2,241,2
79,146,2,748,2
66,266,2,23,2
72,11,2,182,2
15,101,2,450,2
62,7,2,461,2
61,129,2,469,2
108,26,2,261,2
220,151,2,49,2
81,201,2,320,2
16,12,2,104,2
356,265,2,15,2
254,350,2,109,2
8,279,2,151,2
66,564,2,262,2
128,286,1,175,2
143,273,2,48,2
167,259,2,191,2
342,352,2,390,2
42,89,2,42,2
102,214,2,265,2
161,141,2,125,2
191,18,2,615,2
152,66,2,0,2
11,34,2,69,2
2,34,2,72,2
37,46,2,119,2
7,19,2,87,2
121,103,2,123,2
18,16,2,107,2
146,51,2,244,2
123,115,2,34,2
110,245,2,204,2
206,154,2,36,2
26,163,2,122,2
92,89,2,24,2
70,164,2,173,2
20,18,2,185,2
127,147,2,201,2
68,119,2,199,2
63,55,2,0,2
2,175,2,14,2
68,115,2,217,2
90,363,2,44,2
106,41,2,68,2
68,232,2,12,2
6,105,2,91,2
3,39,2,108,2
3,44,2,215,2
1,55,2,93,2
80,29,2,95,2
16,41,2,90,2
81,7,3,69,2
166,206,2,226,2
194,218,2,69,2
204,222,2,12,2
85,86,2,139,2
127,218,2,323,2
126,157,2,99,2
62,46,2,312,2
3,97,2,112,2
8,41,2,217,2
3,25,2,166,2
112,206,2,149,2
37,11,2,105,2
28,37,2,20,2
71,70,2,7,2
20,25,2,69,2
34,20,2,505,2
114,198,2,119,2
124,6,2,641,2
26,295,1,155,2
11,36,2,62,2
50,25,2,96,2
0,8,2,433,2
38,117,2,47,2
224,250,2,477,2
129,230,2,142,2
104,129,2,152,2
0,66,2,84,2
102,150,2,91,2
22,74,2,54,2
12,27,2,30,2
166,192,2,62,2
38,141,2,40,2
79,145,2,404,2
97,51,2,292,2
15,188,2,557,2
1,115,2,255,2
27,117,2,208,2
53,18,2,105,2
52,41,2,32,2
46,67,2,140,2
171,413,2,470,2
70,223,2,11,2
83,108,2,96,2
39,21,2,78,2
89,51,2,52,2
28,6,2,91,2
88,228,2,0,2
138,222,2,43,2
69,294,2,95,2
8,201,2,391,2
294,384,2,10,2
4,198,2,361,2
222,290,2,133,2
198,220,2,167,2
31,344,1,92,2
277,445,2,0,2
110,79,2,90,2
64,353,2,76,2
58,53,2,473,2
57,120,2,53,2
29,47,2,138,2
67,82,2,40,2
113,16,2,78,2
254,527,2,91,2
67,9,2,59,2
389,361,1,121,2
142,59,2,104,2
26,70,2,77,2
418,516,2,88,2
130,169,2,348,2
212,86,2,65,2
36,27,3,586,2
91,32,2,6,2
234,196,2,368,2
65,49,2,73,2
154,95,2,75,2
18,6,2,67,2
209,176,2,477,2
4,27,2,128,2
5,92,2,156,2
307,270,2,81,2
80,25,2,48,2
175,422,2,115,2
38,18,2,42,2
82,183,2,155,2
58,127,2,318,2
357,352,2,3,2
22,87,2,366,2
211,369,2,233,2
6,74,2,496,2
249,370,2,507,2
115,51,2,370,2
40,36,2,28,2
129,127,2,321,2
56,84,2,77,2
70,118,2,294,2
99,165,2,229,2
133,246,2,74,2
16,85,2,0,2
159,294,2,0,2
216,238,2,25,2
71,208,1,45,2
319,386,2,22,2
156,9,2,153,2
11,86,2,224,2
84,138,2,237,2
25,139,2,228,2
139,211,2,301,2
46,31,2,130,2
59,97,2,0,2
274,349,2,563,2
4,10,2,113,2
177,105,2,277,2
89,94,2,0,2
70,148,2,36,2
122,130,2,176,2
25,18,2,109,2
19,11,2,4,2
111,165,2,118,2
11,27,2,2,2
98,543,2,35,2
442,611,1,108,2
524,961,2,535,2
9,81,2,480,2
47,327,2,288,2
33,38,2,472,2
136,127,2,152,2
131,340,2,200,2
75,71,2,158,2
104,126,2,107,2
295,298,2,78,2
47,121,2,149,2
175,141,2,192,2
209,168,2,82,2
68,87,2,23,2
365,376,2,120,2
44,80,2,0,2
73,156,2,8,2
362,462,2,242,2
107,138,2,298,2
507,606,2,0,2
9,38,2,244,2
223,267,2,303,2
101,143,2,58,2
66,104,2,388,2
112,76,2,286,2
76,110,2,224,2
73,121,2,382,2
80,162,2,51,2
28,45,2,14,2
213,393,2,0,2
83,275,2,150,2
215,289,2,82,2
105,76,2,43,2
39,48,2,0,2
126,109,2,127,2
38,79,2,9,2
118,178,2,1,2
10,73,2,0,2
72,21,2,0,2
162,265,2,0,2
52,50,2,34,2
33,175,2,52,2
122,84,2,8,2
0,38,2,34,2
130,112,2,77,2
152,255,2,97,2
127,89,2,0,2
241,233,2,54,2
12,77,2,87,2
91,98,2,95,2
54,55,2,172,2
66,26,2,0,2
95,35,2,325,2
185,474,2,279,2
270,212,2,109,2
309,292,2,85,2
134,269,2,37,2
13,7,2,72,2
2,35,2,31,2
269,237,2,0,2
23,10,2,42,2
109,135,2,51,2
140,149,2,28,2
194,308,2,54,2
216,276,2,95,2
346,382,2,101,2
28,72,2,284,2
459,650,1,246,2
279,351,2,180,2
417,434,2,470,2
169,92,2,330,2
36,24,2,26,2
189,201,2,0,2
140,202,2,81,2
97,182,2,119,2
201,201,2,3,2
92,138,2,1,2
46,31,2,17,2
11,21,2,8,2
190,281,2,10,2
149,122,1,19,2
9,64,2,125,2
437,504,2,121,2
237,408,2,13,2
473,647,2,3,2
161,113,2,71,2
90,232,2,212,2
58,99,2,5,2
6,103,2,60,2
77,118,2,71,2
68,12,2,11,2
125,91,2,13,2
150,178,2,0,2
32,55,2,29,2
101,122,2,177,2
1,9,2,74,2
90,176,2,115,2
2,76,2,82,2
78,137,2,151,2
100,97,2,158,2
124,73,2,89,2
145,163,2,76,2
106,70,3,323,2
42,54,2,2,2
65,116,2,372,2
87,185,2,100,2
295,217,2,143,2
127,110,2,230,2
49,14,2,145,2
206,259,2,0,2
8,51,2,152,2
130,200,2,236,2
117,150,2,283,2
83,40,2,89,2
286,412,2,6,2
92,38,2,233,2
222,420,2,307,2
69,133,2,0,2
11,11,2,241,2
202,163,2,101,2
107,52,2,58,2
66,150,2,0,2
104,164,2,313,2
51,172,2,292,2
110,9,2,119,2
103,18,2,449,2
180,168,2,233,2
44,88,2,224,2
136,39,2,241,2
284,226,2,30,2
83,139,2,197,2
349,324,2,170,2
105,42,2,40,2
4,6,2,103,2
23,81,2,504,2
112,151,2,313,2
11,63,2,181,2
17,68,2,282,2
23,79,2,352,2
82,167,2,658,2
20,73,2,50,2
31,55,3,585,2
266,146,2,252,2
39,99,2,122,2
276,321,2,0,2
228,106,2,39,2
1,84,2,74,2
47,5,2,218,2
87,99,2,143,2
294,305,2,312,2
357,439,2,258,2
36,44,2,10,2
186,88,2,470,2
152,80,2,78,2
247,268,2,594,2
90,226,1,31,2
60,111,2,459,2
153,213,2,50,2
57,15,2,538,2
243,237,1,4,2
4,91,2,267,2
22,108,2,169,2
516,294,2,96,2
100,115,2,467,2
323,492,2,11,2
1,221,2,269,2
215,298,2,163,2
281,382,2,6,2
51,81,2,329,2
131,88,2,0,2
33,111,2,324,2
11,70,2,104,2
47,75,2,732,2
8,17,2,247,2
127,194,2,594,2
332,185,2,640,2
340,225,2,17,2
409,93,2,21,2
34,58,2,4,2
386,468,2,259,2
30,75,2,202,2
139,303,2,63,2
76,321,2,129,2
119,560,2,289,2
298,308,1,600,2
22,98,2,801,2
60,40,2,464,2
128,28,133,1023,2
76,315,74,760,2
263,317,12,1023,2
306,8,1,528,2
34,33,2,451,2
277,193,3,818,2
126,75,2,589,2
129,84,2,775,2
124,143,2,321,2
269,376,2,529,2
43,266,2,737,2
71,238,2,372,2
10,64,2,636,2
55,157,2,581,2
20,110,2,116,2
18,99,2,234,2
5,454,2,220,2
276,115,2,451,2
122,201,1,30,2
244,336,2,431,2
29,20,2,138,2
2,7,2,8,2
510,259,2,261,2
140,38,2,107,2
422,386,2,325,2
313,319,2,20,2
19,125,3,679,2
422,548,2,555,2
145,38,2,607,2
191,274,2,1023,2
96,448,148,226,2
18,26,36,1023,2
17,575,134,1023,2
142,585,27,895,2
354,39,111,1023,2
52,263,122,10,2
276,317,17,691,2
56,12,0,54,2
349,49,2,647,2
33,210,2,202,2
190,35,2,478,2
243,155,2,626,2
257,112,2,585,2
111,112,2,583,2
109,105,2,94,2
336,494,3,946,2
177,278,1,260,2
84,634,2,586,2
164,69,2,298,2
143,666,2,525,2
41,302,2,18,2
8,55,2,101,2
405,415,2,358,2
116,61,2,235,2
224,62,2,104,2
35,17,2,24,2
202,18,2,442,2
19,42,2,786,2
52,129,3,776,2
10,340,506,1023,2
53,96,460,472,2
335,271,218,1023,2
14,113,153,1023,2
478,770,175,369,2
426,684,547,1023,2
159,510,234,75,2
59,217,98,1023,2
103,13,164,597,2
204,141,31,608,2
204,22,1,460,2
213,119,1,444,2
125,30,2,383,2
333,369,2,354,2
225,103,3,324,2
165,211,3,719,2
91,67,2,557,2
41,13,2,410,2
176,71,2,44,2
113,371,2,23,2
34,41,2,502,2
290,562,2,57,2
340,407,2,679,2
770,742,208,783,2
290,475,87,962,2
531,714,304,1023,2
251,535,157,1023,2
16,265,394,689,2
279,153,474,1023,2
75,14,173,854,2
59,117,31,1023,2
56,30,328,774,2
0,123,99,1023,2
268,167,12,623,2
13,87,1,95,2
126,143,2,888,2
160,274,2,239,2
59,257,3,548,2
97,11,2,43,2
526,554,2,6,2
93,143,2,345,2
27,281,2,272,2
335,369,2,428,2
34,189,3,907,2
38,116,2,314,2
295,91,15,1016,2
23,190,17,22,2
47,8,558,1023,2
42,61,309,204,2
38,83,65,869,2
142,120,292,1023,2
2,50,297,554,2
354,14,291,1023,2
395,256,444,534,2
34,598,212,1023,2
6,97,395,541,2
631,1023,249,1023,2
54,367,410,107,2
275,105,25,1023,2
293,458,43,20,2
137,165,2,1008,2
20,37,1,161,2
46,25,2,645,2
231,50,2,292,2
38,30,3,230,2
118,149,2,75,2
86,87,3,769,2
5,87,2,520,2
141,46,2,592,2
44,86,2,151,2
216,264,2,496,2
351,282,2,285,2
279,11,2,753,2
320,467,3,917,2
132,18,2,475,2
266,385,621,1023,2
1,32,133,397,2
99,181,22,723,3
32,214,1,189,3
104,161,2,722,3
2,168,2,247,3
2,173,2,199,3
57,77,2,280,3
82,108,2,3,3
47,39,2,444,3
115,98,2,592,3
124,159,2,186,3
134,110,2,663,3
51,112,2,170,3
105,21,2,388,3
151,166,2,34,3
85,162,2,557,3
72,5,2,124,3
217,279,2,764,3
1,134,2,61,3
532,685,2,86,3
230,407,2,255,3
200,175,2,183,3
302,115,2,277,3
160,176,2,315,3
67,64,2,120,3
55,67,2,341,3
161,68,2,273,3
250,535,1,0,3
74,102,2,321,3
203,673,2,730,3
53,99,2,607,3
303,463,3,771,3
162,89,2,500,3
163,476,1,77,3
286,15,2,83,3
64,140,2,16,3
28,36,2,73,3
188,247,2,55,3
18,67,2,339,3
55,45,2,517,3
128,117,2,76,3
112,81,2,208,3
42,69,2,0,3
20,182,2,15,3
266,412,2,198,3
49,91,2,173,3
377,752,2,0,3
4,43,2,158,3
169,327,2,215,3
118,72,2,309,3
84,158,2,126,3
65,80,2,18,3
55,31,2,193,3
32,59,2,122,3
177,221,2,581,3
31,55,2,406,3
105,8,3,632,3
60,113,2,119,3
187,143,2,87,3
57,139,2,468,3
110,209,2,38,3
155,406,2,214,3
268,375,2,20,3
8,180,2,93,3
47,199,2,55,3
17,87,2,65,3
4,74,2,34,3
126,137,2,32,3
51,112,2,24,3
177,207,2,138,3
70,9,2,86,3
18,76,2,197,3
131,132,2,107,3
54,66,2,116,3
289,111,2,16,3
48,23,2,358,3
27,76,2,0,3
170,140,2,74,3
61,183,2,131,3
141,328,2,72,3
68,207,2,108,3
99,66,2,77,3
113,134,2,105,3
182,80,2,57,3
79,226,2,0,3
66,65,2,0,3
0,21,2,79,3
133,116,2,68,3
39,57,2,497,3
25,7,2,250,3
67,74,3,772,3
104,23,2,130,3
142,166,2,172,3
11,42,2,90,3
167,203,2,73,3
131,20,2,207,3
46,107,1,90,3
27,45,2,109,3
44,287,2,30,3
113,121,2,58,3
306,305,2,476,3
193,258,2,79,3
243,57,2,398,3
66,15,2,85,3
169,38,2,291,3
79,291,2,0,3
27,79,2,220,3
177,299,2,237,3
5,76,2,0,3
97,142,2,223,3
167,156,2,53,3
92,115,2,10,3
46,17,2,193,3
164,170,2,14,3
123,149,2,4,3
50,49,2,22,3
34,37,2,160,3
210,47,2,28,3
8,100,2,1,3
75,125,2,120,3
27,19,2,0,3
118,169,2,0,3
139,31,2,41,3
68,147,2,71,3
355,338,2,194,3
88,197,1,46,3
26,11,2,15,3
231,291,2,0,3
163,235,2,59,3
48,98,2,143,3
166,245,2,480,3
232,209,2,177,3
70,42,2,697,3
42,108,2,178,3
128,63,2,217,3
142,242,2,62,3
19,70,2,84,3
160,22,2,247,3
93,29,2,0,3
40,129,2,47,3
2,14,2,59,3
174,166,2,14,3
130,165,2,0,3
89,72,2,93,3
201,252,2,265,3
21,37,2,295,3
161,204,2,152,3
85,81,2,230,3
242,233,2,203,3
181,146,2,266,3
137,76,2,194,3
229,230,2,62,3
85,235,2,79,3
100,154,2,20,3
70,168,2,186,3
129,58,2,279,3
85,29,3,651,3
118,164,2,83,3
134,113,2,227,3
206,276,2,366,3
76,96,2,0,3
101,145,2,37,3
74,80,2,94,3
111,123,2,136,3
134,185,2,86,3
103,98,2,644,3
55,18,2,957,3
433,567,2,379,3
41,159,606,1023,3
261,407,448,652,3
53,49,138,579,3
7,31,21,260,3
97,149,1,187,3
380,672,1,0,3
92,8,2,83,3
135,184,2,89,3
11,39,2,108,3
192,252,2,1,3
38,29,2,0,3
99,116,2,82,3
79,99,2,45,3
228,285,2,140,3
103,161,2,376,3
5,80,2,499,3
206,375,2,114,3
17,45,2,362,3
88,19,3,674,3
34,20,2,517,3
125,170,2,173,3
99,167,2,91,3
183,158,2,173,3
71,28,2,86,3
18,248,2,353,3
34,56,2,212,3
254,291,2,147,3
56,17,2,189,3
148,84,2,49,3
188,194,2,16,3
8,6,2,5,3
133,197,2,68,3
121,67,2,45,3
9,106,2,17,3
124,97,2,118,3
12,45,2,0,3
198,392,2,190,3
190,121,2,86,3
366,558,2,77,3
158,64,2,32,3
143,58,2,32,3
94,191,2,106,3
159,398,2,20,3
135,281,2,100,3
54,12,2,85,3
154,241,2,25,3
197,34,2,65,3
197,69,2,90,3
49,137,2,150,3
97,126,2,0,3
36,36,2,227,3
84,40,2,412,3
259,388,2,286,3
75,170,2,100,3
336,525,1,57,3
130,294,2,409,3
108,107,2,106,3
13,25,2,109,3
151,261,2,186,3
50,42,2,45,3
23,82,2,51,3
162,117,2,186,3
81,127,2,19,3
101,137,2,25,3
230,190,2,95,3
132,85,2,42,3
127,139,2,30,3
56,127,2,101,3
19,44,2,99,3
146,148,2,113,3
161,329,2,33,3
308,505,1,41,3
142,79,2,3,3
2,38,2,0,3
221,255,2,104,3
156,213,2,22,3
77,117,2,24,3
70,34,2,36,3
0,57,2,54,3
111,99,2,3,3
34,99,2,6,3
123,131,2,3,3
123,164,2,0,3
209,381,2,53,3
10,114,2,60,3
49,164,2,56,3
178,319,2,62,3
128,119,2,31,3
16,111,2,73,3
404,556,2,60,3
143,602,1,130,3
203,209,1,37,3
290,342,2,1,3
168,235,2,29,3
136,97,2,112,3
47,121,2,46,3
228,282,2,75,3
117,133,2,12,3
104,58,2,44,3
179,260,2,61,3
89,177,2,51,3
191,233,2,72,3
145,287,2,23,3
41,50,2,170,3
81,146,2,13,3
185,99,2,0,3
3,78,2,0,3
190,184,2,51,3
63,115,2,17,3
43,22,2,5,3
58,7,2,0,3
163,157,2,66,3
120,138,2,24,3
140,122,2,79,3
171,135,2,94,3
111,91,2,6,3
135,183,2,32,3
5,78,2,56,3
62,47,2,31,3
37,10,2,77,3
179,185,2,51,3
158,266,2,0,3
151,205,2,73,3
9,34,2,92,3
191,311,2,55,3
5,95,2,74,3
178,150,2,104,3
5,37,2,206,3
99,56,2,64,3
156,203,2,3,3
86,93,2,1,3
89,59,2,61,3
123,171,2,172,3
25,50,2,301,3
87,111,2,28,3
67,48,2,432,3
126,150,2,177,3
132,135,2,21,3
152,156,2,68,3
144,158,2,19,3
5,160,2,89,3
195,194,2,131,3
212,104,2,0,3
78,82,2,41,3
165,170,2,46,3
32,84,2,108,3
122,120,2,176,3
39,17,2,26,3
76,127,2,184,3
126,90,2,373,3
154,161,2,115,3
98,144,2,295,3
92,94,2,217,3
36,44,2,243,3
3,74,2,298,3
409,465,2,110,3
29,7,2,301,3
8,40,2,215,3
28,18,2,139,3
188,210,2,48,3
100,120,2,106,3
167,209,2,294,3
30,59,2,311,3
96,91,2,110,3
5,27,2,27,3
223,330,2,102,3
105,42,2,161,3
88,86,2,53,3
388,424,2,217,3
13,45,3,545,3
203,46,2,163,3
148,73,2,356,3
10,109,2,44,3
130,58,2,4,3
258,231,2,16,3
109,114,2,55,3
295,343,2,148,3
1,75,2,435,3
50,42,2,36,3
168,127,2,5,3
153,335,2,241,3
133,89,2,33,3
458,71,2,398,3
184,159,2,311,3
296,164,2,152,3
475,224,2,20,3
71,158,2,261,3
342,262,2,155,3
137,151,2,166,3
635,570,2,510,3
260,305,1,23,3
397,597,2,334,3
162,21,2,401,3
68,264,2,476,3
20,199,2,583,3
249,52,2,0,3
234,230,2,386,3
150,80,2,249,3
62,273,2,540,3
37,266,2,34,3
53,157,2,209,3
146,7,2,351,3
340,142,2,339,3
34,231,2,53,3
291,222,2,4,3
71,68,2,16,3
231,315,2,139,3
56,35,2,13,3
77,83,2,308,3
316,247,2,0,3
1,122,2,266,3
152,44,2,224,3
120,173,2,465,3
194,516,2,759,3
324,10,1,125,3
288,16,2,633,3
9,20,2,369,3
105,165,2,186,3
146,302,2,451,3
171,77,2,865,3
115,24,2,424,3
376,33,2,493,3
125,9,2,75,3
519,297,3,574,3
104,79,2,85,3
171,141,2,226,3
96,39,2,394,3
12,207,2,473,3
160,92,2,468,3
215,626,2,195,3
36,112,2,470,3
90,217,2,144,3
373,428,2,451,3
177,99,2,35,3
466,515,2,225,3
184,148,2,617,3
66,161,2,224,3
0,60,2,106,3
72,10,2,0,3
439,297,2,101,3
14,29,2,126,3
195,174,2,165,3
253,141,2,389,3
30,213,2,287,3
133,40,2,14,3
198,436,2,429,3
19,17,2,189,3
147,56,3,1023,3
261,205,2,156,3
599,468,2,1012,3
70,103,1,303,3
669,479,1,186,3
186,126,2,646,3
755,250,2,257,3
235,45,2,610,3
279,7,2,545,3
410,249,2,47,3
196,237,2,469,3
70,30,2,550,3
479,791,2,257,3
183,181,2,306,3
332,704,2,382,3
157,562,2,96,3
24,56,2,108,3
427,777,2,228,3
352,315,2,46,3
263,369,2,35,3
6,246,2,249,3
50,84,3,360,3
29,119,2,529,3
81,27,2,102,3
5,101,2,285,3
36,53,2,63,3
108,66,2,434,3
317,237,2,403,3
192,288,2,586,3
346,270,3,906,3
215,98,2,253,3
226,248,4,1023,3
185,138,1,74,3
202,277,13,1023,3
172,350,0,309,3
117,153,543,1023,3
45,22,186,100,3
484,445,523,1023,3
75,139,300,81,3
19,71,204,1015,3
17,198,98,278,3
117,26,12,991,3
247,147,1,77,3
380,101,2,424,3
70,26,2,442,3
2,102,2,227,3
338,223,3,426,3
142,79,3,643,3
54,54,2,65,3
44,117,2,449,3
6,51,2,920,3
33,186,2,96,3
74,94,3,1023,3
200,21,2,330,3
165,141,2,695,3
396,78,2,524,3
185,21,2,818,3
229,279,2,452,3
79,72,2,182,3
12,59,2,163,3
25,8,2,45,3
112,75,2,85,3
15,85,2,148,3
371,201,2,202,3
273,216,2,58,3
119,200,2,67,3
376,91,2,434,3
497,335,2,2,3
125,105,2,191,3
121,224,2,317,3
159,142,2,19,3
6,181,2,375,3
203,177,2,51,3
7,33,2,23,3
191,174,2,132,3
221,177,2,482,3
301,202,2,578,3
201,84,2,22,3
126,188,601,1023,3
340,267,224,147,3
246,61,43,945,3
184,95,2,1023,3
101,153,1,440,3
91,103,2,742,3
6,25,2,429,3
10,63,2,467,3
124,48,2,332,3
290,420,1,64,3
122,151,2,527,3
285,488,2,145,3
162,143,2,237,3
231,428,1,193,3
57,64,2,247,3
111,13,2,481,3
173,11,2,201,3
229,34,2,442,3
152,147,2,81,3
426,288,619,1023,3
120,162,154,16,3
99,351,27,331,3
88,168,1,419,3
221,30,1,300,3
13,7,3,616,3
121,231,2,330,3
123,164,2,587,3
286,410,2,186,3
160,156,2,388,3
549,769,2,522,3
4,128,2,159,3
21,45,2,163,3
23,93,2,60,3
153,88,2,541,3
127,115,2,69,3
59,12,2,427,3
85,62,2,141,3
96,159,2,148,3
24,60,2,3,3
76,82,2,32,3
39,13,2,82,3
165,329,2,199,3
278,527,2,194,3
130,136,2,217,3
243,449,2,103,3
32,29,2,92,3
199,237,2,251,3
191,224,2,294,3
91,107,2,281,3
75,73,2,98,3
34,60,2,406,3
275,206,2,279,3
284,366,2,230,3
2,130,2,20,3
227,231,2,53,3
77,108,2,475,3
118,68,2,63,3
37,134,2,539,3
105,162,2,21,3
296,427,1,103,3
10,34,2,19,3
132,193,2,312,3
115,135,2,347,3
56,88,2,446,3
191,187,2,383,3
35,9,2,106,3
77,151,2,191,3
5,59,2,157,3
40,59,2,291,3
73,331,2,80,3
150,203,2,154,3
155,271,2,136,3
233,326,2,291,3
55,25,2,474,3
2,150,2,456,3
46,51,2,74,3
97,8,2,80,3
4,39,2,333,3
31,117,2,102,3
245,267,2,265,3
61,63,2,178,3
168,316,2,70,3
27,43,2,124,3
25,81,2,43,3
0,68,2,24,3
21,137,2,92,3
110,151,2,514,3
307,442,2,138,3
188,62,3,682,3
159,139,1,17,3
10,7,2,320,3
180,162,2,418,3
128,33,2,393,3
139,124,2,297,3
9,234,2,125,3
266,435,2,125,3
15,11,2,528,3
97,122,2,10,3
200,329,2,303,3
112,116,2,116,3
72,145,2,42,3
180,195,2,61,3
59,72,2,24,3
17,42,2,0,3
276,307,2,203,3
107,31,2,107,3
9,112,2,289,3
75,139,2,66,3
15,31,2,133,3
92,54,2,361,3
226,270,2,102,3
246,349,2,410,3
133,195,1,5,3
147,235,1,169,3
111,316,2,72,3
8,179,2,272,3
27,36,2,26,3
202,463,2,208,3
24,158,2,9,3
144,276,2,502,3
6,124,2,120,3
272,391,2,502,3
40,43,2,448,3
69,278,2,109,3
31,205,2,41,3
182,339,2,115,3
77,11,2,179,3
39,151,2,83,3
52,192,2,227,3
219,287,2,92,3
44,41,2,118,3
243,297,2,305,3
40,196,2,152,3
92,241,2,160,3
147,32,2,280,3
88,67,2,8,3
43,24,2,57,3
103,125,2,14,3
82,249,2,204,3
75,68,2,321,3
13,163,2,0,3
13,62,2,25,3
1,186,2,133,3
109,140,2,85,3
45,84,2,5,3
42,124,2,60,3
144,206,2,126,3
89,16,2,215,3
8,36,2,60,3
120,46,2,85,3
45,17,2,206,3
239,316,2,79,3
203,80,2,260,3
12,48,2,335,3
21,67,2,41,3
4,47,2,117,3
180,94,2,192,3
238,261,2,10,3
5,38,2,198,3
246,159,2,41,3
40,24,2,50,3
120,91,2,91,3
143,191,2,33,3
102,162,2,166,3
124,174,2,214,3
84,156,2,392,3
163,172,2,188,3
46,7,3,492,3
19,74,2,549,3
50,25,2,297,3
49,139,2,439,3
360,608,2,475,3
63,229,2,573,3
345,452,1,7,3
173,150,2,120,3
2,52,2,215,3
186,165,2,170,3
185,276,2,47,3
108,101,2,23,3
186,400,2,120,3
14,11,2,202,3
228,337,2,259,3
181,129,2,27,3
80,125,2,403,3
72,107,2,127,3
27,10,2,381,3
236,348,2,522,3
109,67,2,486,3
106,178,2,250,3
105,138,2,148,3
31,204,2,234,3
28,123,2,264,3
214,188,2,175,3
27,78,2,141,3
72,75,2,13,3
93,126,2,27,3
50,17,2,52,3
89,109,2,14,3
203,189,2,0,3
279,231,2,7,3
136,158,2,24,3
122,131,2,43,3
5,93,2,406,3
3,8,2,251,3
190,368,2,31,3
59,128,2,426,3
106,282,2,328,3
25,59,2,97,3
37,95,2,41,3
67,82,2,193,3
243,253,2,60,3
52,77,2,0,3
60,93,2,85,3
14,13,2,3,3
25,83,2,35,3
100,149,2,41,3
186,188,2,165,3
237,247,2,102,3
34,21,2,0,3
20,41,2,0,3
57,21,2,244,3
164,59,2,62,3
41,7,2,61,3
50,47,2,118,3
226,381,2,0,3
379,401,2,19,3
317,529,2,0,3
148,261,2,10,3
47,14,2,220,3
269,300,2,100,3
97,154,2,98,3
187,246,2,275,3
6,83,2,39,3
93,69,2,41,3
237,289,2,5,3
202,328,2,50,3
1,128,2,91,3
102,65,2,13,3
66,9,2,39,3
268,243,2,134,3
339,390,2,157,3
142,194,2,47,3
379,410,2,188,3
261,287,2,220,3
247,257,2,9,3
0,76,2,72,3
202,264,2,94,3
5,9,2,23,3
180,219,2,0,3
212,182,2,95,3
24,11,2,73,3
60,176,2,0,3
16,17,2,121,3
36,15,2,112,3
3,13,2,169,3
52,44,2,153,3
15,105,2,165,3
104,92,2,121,3
52,60,2,47,3
69,10,2,151,3
19,30,2,169,3
191,281,2,145,3
73,174,2,47,3
43,63,2,68,3
160,205,2,0,3
5,39,2,57,3
37,163,2,3,3
149,245,2,26,3
105,229,2,17,3
322,332,2,9,3
152,230,2,0,3
255,418,2,31,3
103,242,2,5,3
174,243,2,21,3
123,222,2,189,3
23,9,2,104,3
20,27,2,53,3
105,117,3,255,3
47,9,2,130,3
75,73,2,152,3
79,119,2,96,3
214,288,2,86,3
72,47,2,3,3
135,192,2,62,3
27,41,2,21,3
13,11,2,39,3
249,303,1,26,3
45,66,2,0,3
106,174,2,25,3
297,469,2,18,3
63,57,2,23,3
127,139,2,98,3
2,9,2,110,3
162,43,2,2,3
113,146,2,238,3
21,13,2,93,3
128,122,2,145,3
223,189,2,231,3
137,181,2,116,3
247,327,2,88,3
98,168,2,87,3
179,205,2,8,3
31,107,2,173,3
184,402,2,245,3
61,159,2,8,3
2,43,2,88,3
45,42,2,69,3
93,103,2,21,3
166,200,2,56,3
260,187,2,77,3
79,123,2,46,3
141,213,2,95,3
129,173,2,0,3
207,202,2,208,3
0,98,2,120,3
177,341,2,133,3
25,27,2,120,3
158,170,2,127,3
88,67,2,29,3
146,340,2,86,3
42,62,2,50,3
53,26,2,50,3
40,189,2,524,3
94,89,2,102,3
206,8,3,597,3
1,8,2,346,3
366,333,2,208,3
100,131,2,58,3
248,275,3,159,3
152,46,2,205,3
64,102,2,122,3
187,115,2,251,3
362,299,2,426,3
119,73,2,62,3
168,279,2,401,3
14,40,2,29,3
303,414,2,413,3
63,117,2,15,3
8,17,2,606,3
106,194,2,421,3
70,11,2,19,3
172,229,2,246,3
23,15,2,174,3
213,279,2,166,3
88,55,2,18,3
293,334,2,89,3
199,149,2,192,3
12,52,2,129,3
65,116,2,346,3
53,205,2,230,3
81,135,2,390,3
173,291,2,394,3
23,305,2,81,3
218,41,2,394,3
267,459,2,627,3
71,142,2,255,3
71,13,3,800,3
388,430,2,978,3
52,88,2,99,3
274,342,2,755,3
74,8,2,172,3
291,468,2,143,3
78,112,2,247,3
182,159,2,28,3
18,354,2,80,3
248,264,2,119,3
88,46,2,496,3
327,621,2,376,3
11,67,2,39,3
314,585,2,417,3
208,58,2,1,3
111,215,2,3,3
241,155,2,174,3
18,81,2,11,3
164,327,2,225,3
178,11,2,313,3
90,170,2,220,3
94,28,2,293,3
3,200,2,593,3
7,41,2,254,3
116,251,2,169,3
174,381,2,499,3
112,307,1,17,3
35,319,2,804,3
153,67,2,525,3
317,520,2,533,3
3,74,2,681,3
156,386,2,251,3
22,23,2,616,3
236,262,1,141,3
14,20,2,363,3
129,170,2,454,3
81,9,2,101,3
51,17,2,209,3
0,130,2,292,3
42,70,2,366,3
128,152,1,23,3
342,314,2,716,3
198,352,1,91,3
200,190,2,536,3
144,381,1,283,3
152,549,2,518,3
249,412,1,87,3
35,42,2,52,3
321,743,2,389,3
3,168,2,329,3
62,87,2,336,3
50,39,3,820,3
66,19,2,377,3
178,136,2,355,3
170,150,2,114,3
179,424,2,141,3
78,14,2,392,3
79,160,2,321,3
109,17,2,394,3
33,275,1,250,3
236,37,2,267,3
279,16,2,539,3
19,88,2,286,3
80,90,2,26,3
110,223,2,969,3
8,340,2,583,3
39,67,3,799,3
101,86,496,1023,3
358,359,95,35,3
37,19,15,877,3
414,512,1,379,3
104,8,2,744,3
393,380,2,504,3
405,403,2,101,3
294,514,2,564,3
340,471,2,366,3
2,188,2,9,3
317,614,1,488,3
279,414,2,347,3
9,88,2,788,3
263,250,20,584,3
144,406,4,586,3
157,227,1,553,3
9,6,1,236,3
465,392,2,174,3
203,267,2,689,3
232,20,2,711,3
74,119,2,807,3
165,70,2,913,3
130,35,2,537,3
129,25,507,1023,3
45,60,152,739,3
5,198,185,534,3
75,128,65,618,3
375,773,7,205,3
289,533,0,639,3
309,372,2,843,3
332,438,2,637,3
112,68,3,978,3
201,98,2,821,3
218,9,2,496,3
48,170,3,963,3
219,118,2,692,3
39,79,2,200,3
16,34,2,498,3
258,317,1,51,3
275,219,2,191,3
576,278,2,72,3
23,14,2,126,3
262,25,2,644,3
180,285,2,686,3
268,122,2,413,3
158,6,2,851,3
287,79,2,399,3
58,140,122,677,3
2,109,60,627,3
140,17,573,1023,3
276,176,121,12,3
27,118,522,1023,3
167,56,400,112,3
293,257,92,435,3
45,33,11,424,3
5,75,1,204,3
24,40,2,220,3
278,204,2,5,3
92,30,3,174,3
486,164,3,728,3
87,200,2,309,3
358,110,2,269,3
387,488,2,5,3
52,99,2,240,3
99,13,3,533,3
158,98,2,111,3
70,53,2,794,3
14,8,1,165,3
44,165,3,684,3
104,151,2,788,3
645,650,2,185,3
385,465,2,1023,3
123,172,169,91,3
20,231,38,576,3
315,406,2,221,3
323,353,1,38,3
190,286,2,221,3
159,450,2,607,3
263,47,2,113,3
320,255,43,1023,3
238,312,17,175,3
127,236,4,1023,3
142,511,1,173,3
291,67,619,1023,3
315,281,303,213,3
33,274,479,1023,3
38,108,296,12,3
161,291,60,898,3
41,70,5,971,3
43,104,1,384,3
92,79,621,1023,3
223,79,274,135,3
6,81,58,677,3
114,211,5,335,3
208,164,1,114,3
295,553,2,105,3
244,351,2,525,3
68,82,2,102,3
247,241,2,186,3
107,179,2,87,3
20,27,2,439,3
40,100,2,170,3
158,106,2,328,3
93,126,2,478,3
36,94,2,62,3
52,51,3,1023,3
73,76,14,34,3
154,379,1,598,3
175,174,1,63,3
243,519,2,323,3
137,294,2,31,3
43,31,3,721,3
177,313,2,392,3
144,59,2,559,3
123,196,2,53,3
124,116,2,194,3
118,9,2,355,3
195,55,2,473,3
157,149,2,414,3
174,28,2,501,3
26,48,3,718,3
70,175,302,1023,3
364,242,163,210,3
92,41,27,886,3
13,54,1,222,3
168,449,2,38,3
304,388,2,138,3
238,357,2,447,3
396,634,2,98,3
83,285,2,152,3
104,118,2,279,3
174,77,2,97,3
60,39,2,538,3
15,44,2,564,3
60,105,2,578,3
282,135,2,690,3
4,79,2,84,3
79,228,155,1023,3
75,130,44,101,3
270,389,5,399,3
21,42,1,255,3
226,317,2,468,3
58,234,2,356,3
52,197,2,377,3
58,143,2,0,3
183,142,2,55,3
27,86,2,213,3
278,287,2,96,3
125,245,2,108,3
147,180,2,228,3
168,403,2,5,3
73,84,2,342,3
97,332,2,9,3
222,231,3,925,3
17,249,1,62,3
65,63,2,191,3
163,107,2,324,3
27,15,2,50,3
252,336,2,172,3
57,41,2,44,3
179,255,2,6,3
54,69,2,86,3
93,82,2,34,3
13,13,2,425,3
58,217,2,92,3
72,190,2,572,3
20,309,1,20,3
274,377,2,328,3
148,87,2,219,3
11,42,2,120,3
147,345,2,407,3
123,99,2,388,3
311,382,2,3,3
142,249,2,263,3
113,201,2,150,3
97,152,2,120,3
17,50,2,22,3
62,77,2,197,3
155,211,2,33,3
122,245,2,317,3
74,347,2,15,3
88,26,2,392,3
133,243,1,142,3
138,291,2,278,3
49,6,2,72,3
127,354,2,267,3
98,145,2,126,3
6,124,2,148,3
12,69,2,201,3
30,41,3,404,3
43,7,2,392,3
125,182,2,0,3
36,111,2,191,3
98,71,2,376,3
57,127,2,89,3
72,103,2,373,3
19,103,2,0,3
84,58,2,300,3
11,12,2,320,3
26,412,2,180,3
31,13,2,212,3
289,501,2,317,3
13,79,2,39,3
177,181,2,331,3
93,123,2,126,3
102,180,2,120,3
110,69,2,71,3
130,92,2,2,3
139,211,2,48,3
1,8,2,128,3
27,68,2,54,3
215,321,2,0,3
15,120,2,370,3
293,336,1,655,3
93,121,2,337,3
61,208,3,787,3
124,145,1,45,3
9,18,2,187,3
117,142,2,75,3
2,12,2,0,3
40,12,2,72,3
237,93,2,248,3
121,26,2,0,3
273,211,2,219,3
151,219,2,80,3
75,185,2,345,3
25,46,2,61,3
235,92,2,516,3
203,171,2,139,3
113,21,2,477,3
159,367,2,434,3
187,113,2,268,3
170,504,2,469,3
186,377,2,201,3
55,60,2,17,3
90,40,2,316,3
149,37,2,431,3
206,49,2,240,3
59,12,2,507,3
24,92,2,0,3
106,153,2,235,3
189,183,2,140,3
25,127,2,249,3
136,278,2,109,3
25,153,2,92,3
417,556,2,398,3
182,260,1,48,3
87,157,2,656,3
216,371,2,199,3
1,157,2,444,3
9,199,2,663,3
158,23,2,299,3
46,105,2,318,3
114,135,2,595,3
95,152,2,8,3
13,98,2,263,3
65,121,2,0,3
7,6,2,115,3
156,186,2,252,3
98,419,2,233,3
215,26,2,124,3
137,375,2,451,3
91,210,2,176,3
291,207,2,663,3
263,283,1,252,3
200,419,2,676,3
208,468,2,550,3
11,97,2,68,3
217,203,2,463,3
12,24,2,224,3
54,57,2,400,3
158,218,2,195,3
5,107,2,119,3
197,227,2,372,3
345,595,2,275,3
17,30,2,0,3
267,707,2,88,3
34,28,2,96,3
14,19,2,17,3
170,465,2,601,3
101,54,2,242,3
170,358,2,577,3
285,452,2,465,3
26,25,2,34,3
216,230,2,138,3
28,143,2,47,3
50,96,2,155,3
80,95,2,57,3
201,230,2,11,3
67,10,2,83,3
2,24,2,288,3
340,348,1,75,3
186,348,2,98,3
159,299,2,51,3
120,104,2,744,3
221,306,2,481,3
123,129,2,462,3
167,172,3,1002,3
372,300,2,344,3
311,300,1,15,3
50,25,2,183,3
99,202,1,138,3
13,80,2,233,3
74,132,2,42,3
170,99,2,41,3
1,17,2,0,3
17,128,2,79,3
204,447,2,0,3
9,97,2,67,3
611,887,2,45,3
206,57,2,35,3
408,435,2,106,3
112,150,2,15,3
239,197,2,0,3
107,137,2,40,3
117,180,2,0,3
178,179,2,70,3
6,25,2,49,3
94,128,2,27,3
40,5,2,0,3
16,48,2,47,3
132,174,2,0,3
47,18,2,16,3
42,246,2,19,3
152,138,2,123,3
96,116,2,59,3
2,236,2,102,3
82,190,2,4,3
294,331,2,239,3
437,483,1,15,3
85,81,2,145,3
11,21,2,0,3
78,71,2,309,3
127,110,2,28,3
138,134,2,0,3
26,47,2,12,3
29,39,2,85,3
312,337,2,5,3
165,239,2,0,3
231,285,2,28,3
86,208,2,70,3
87,137,2,19,3
100,173,2,78,3
442,490,2,56,3
155,144,2,112,3
21,244,2,0,3
142,192,2,0,3
151,342,2,87,3
82,129,2,106,3
47,84,2,13,3
7,32,2,55,3
257,301,2,0,3
32,19,2,0,3
90,29,2,29,3
75,29,2,5,3
138,212,2,0,3
20,97,2,46,3
20,151,2,5,3
59,9,2,26,3
238,182,2,20,3
231,325,2,89,3
188,103,2,2,3
73,131,2,135,3
91,19,2,0,3
58,63,2,90,3
34,28,2,74,3
67,97,2,18,3
101,103,2,223,3
186,241,2,212,3
33,87,2,28,3
187,448,2,73,3
69,20,2,13,3
5,19,2,36,3
72,94,2,116,3
81,85,2,4,3
183,127,2,88,3
225,229,2,59,3
4,30,2,0,3
214,222,2,42,3
200,248,2,51,3
3,101,2,37,3
31,34,2,0,3
69,34,2,11,3
27,6,2,83,3
144,150,2,0,3
7,8,2,13,3
164,130,2,29,3
70,106,2,179,3
139,150,2,36,3
119,122,2,85,3
83,10,2,91,3
310,471,2,0,3
8,256,2,39,3
391,546,2,115,3
287,209,2,85,3
43,44,2,87,3
94,117,2,83,3
103,119,2,49,3
99,193,2,6,3
69,26,2,0,3
10,27,2,85,3
233,234,2,135,3
94,70,2,54,3
38,5,2,138,3
70,49,2,18,3
124,21,2,44,3
256,247,2,81,3
86,156,2,37,3
390,345,2,155,3
351,430,2,59,3
14,37,2,117,3
260,359,2,77,3
30,51,2,32,3
60,286,2,23,3
71,47,2,53,3
32,15,2,85,3
116,163,2,0,3
97,92,2,152,3
235,239,2,17,3
42,13,2,3,3
67,41,2,318,3
260,180,2,63,3
32,13,2,181,3
257,376,2,212,3
54,79,2,258,3
87,307,2,68,3
12,134,2,14,3
154,267,2,217,3
41,206,1,4,3
36,15,2,105,3
34,207,2,242,3
298,246,2,76,3
95,38,2,44,3
187,299,2,393,3
121,151,2,541,3
111,37,2,71,3
255,139,2,363,3
150,150,2,361,3
206,220,2,327,3
10,55,2,53,3
4,41,2,16,3
229,266,2,3,3
44,156,2,22,3
97,239,2,0,3
31,377,2,142,3
365,335,2,436,3
85,234,2,545,3
84,67,2,0,3
327,265,2,159,3
162,27,2,148,3
68,76,2,279,3
8,74,2,27,3
126,67,2,585,3
141,84,2,743,3
226,147,1,561,3
103,92,2,688,3
509,108,1,136,3
47,192,3,963,3
404,259,7,580,3
488,393,1,200,3
124,271,1,143,3
134,52,2,86,3
61,413,2,217,3
153,214,2,354,3
49,57,2,322,3
167,328,2,588,3
47,67,2,322,3
69,200,2,474,3
174,332,2,96,3
76,145,2,329,3
170,19,2,107,3
316,114,16,1023,3
33,119,1,536,3
93,13,1,242,3
4,248,2,706,3
676,736,2,297,3
623,599,2,220,3
449,571,1,312,3
110,203,1,154,3
300,476,2,425,3
27,56,2,17,3
15,15,2,298,3
368,37,2,600,3
77,87,2,375,3
8,84,2,338,3
37,8,2,321,3
411,102,2,294,3
31,63,2,234,3
455,252,2,11,3
94,140,2,61,3
204,82,2,268,3
197,212,2,472,3
128,304,2,118,3
15,13,2,125,3
129,491,2,312,3
249,475,2,377,3
196,315,2,258,3
42,95,2,650,3
86,39,2,292,3
49,386,2,339,3
354,327,2,828,3
12,13,2,50,3
103,20,2,185,3
219,258,2,468,3
125,232,2,675,3
337,259,2,3,3
484,394,2,584,3
104,21,2,547,3
588,419,2,39,3
320,19,2,386,3
126,147,2,53,3
67,59,2,380,3
156,487,2,337,3
242,293,1,275,3
88,623,2,312,3
495,151,2,870,3
34,151,2,709,3
118,113,350,1023,3
130,233,389,90,3
104,139,409,1023,3
1,47,133,43,3
231,285,19,1000,3
51,57,1,297,3
119,69,2,468,3
408,550,2,105,3
363,152,2,138,3
680,645,2,18,3
73,461,2,366,3
73,224,1,76,3
246,264,2,457,3
118,207,2,8,3
263,135,2,240,3
16,446,2,198,3
427,667,2,424,3
174,116,2,770,3
164,173,2,191,3
117,60,2,456,3
27,10,2,97,3
358,257,2,297,3
5,57,2,792,3
177,11,2,743,3
723,939,2,14,3
43,79,2,330,3
503,697,2,483,3
55,295,2,1023,3
25,273,2,988,3
31,28,195,774,3
55,648,46,85,3
174,498,3,140,3
3,278,1,33,3
468,65,2,381,3
310,341,2,610,3
21,142,2,104,3
262,252,470,1023,3
73,173,203,208,3
32,155,36,902,3
85,101,2,190,3
118,49,2,995,3
627,757,2,88,3
416,121,581,1023,3
257,851,342,360,3
305,462,83,1023,3
295,37,91,1023,3
155,46,415,1023,3
429,277,461,640,3
83,85,119,325,3
155,101,16,489,3
123,15,1,310,3
272,178,3,845,3
250,46,3,935,3
251,108,2,531,3
169,251,3,775,3
369,666,2,461,3
428,328,2,413,3
224,383,2,669,3
11,276,2,44,3
135,147,2,330,3
209,243,2,403,3
148,156,2,361,3
581,192,2,153,3
473,239,2,52,3
90,321,2,660,3
98,230,2,755,3
302,276,2,940,3
458,132,2,346,3
79,150,2,195,3
125,42,2,146,3
299,235,2,184,3
317,159,2,138,3
9,305,2,422,3
37,115,2,0,3
577,370,3,776,3
256,191,1,263,3
233,24,2,611,3
756,407,2,858,3
182,140,234,694,3
94,40,78,700,3
167,204,10,48,3
204,290,1,62,3
52,12,2,85,3
358,226,2,333,3
124,71,2,331,3
351,135,3,723,3
536,160,2,303,3
219,207,2,576,3
253,82,2,328,3
789,641,2,442,3
107,93,2,652,3
460,420,2,203,3
312,7,2,218,3
239,387,2,198,3
126,122,2,498,3
205,247,2,713,3
348,88,2,1023,3
150,26,12,5,3
191,135,1,19,3
489,262,1,261,3
291,128,2,2,3
7,141,2,221,3
4,72,2,37,3
112,24,2,672,3
140,121,2,563,3
293,218,3,1023,3
196,226,176,180,3
61,223,38,316,3
345,38,2,235,3
448,120,1,344,3
251,244,2,671,3
312,197,2,362,3
364,313,2,840,3
11,42,2,361,3
175,111,1,545,3
45,18,1,690,3
97,24,2,131,3
196,96,2,57,3
133,55,2,525,3
178,14,2,395,3
301,146,2,591,3
69,121,2,201,3
24,125,2,403,3
4,261,1,15,3
56,106,3,983,3
30,78,2,107,3
169,35,2,47,3
47,71,2,117,3
6,27,2,108,3
28,26,2,2,3
5,25,2,156,3
241,345,2,0,3
41,17,2,114,3
91,163,2,304,3
144,92,2,80,3
81,200,2,366,3
126,52,2,217,3
94,215,2,85,3
98,225,2,17,3
413,691,2,153,3
185,259,2,2,3
2,174,2,257,3
127,66,2,165,3
135,113,2,227,3
141,98,2,320,3
131,25,2,17,3
11,51,2,4,3
75,33,2,9,3
29,104,2,23,3
60,177,2,467,3
103,212,2,0,3
2,70,2,476,3
187,145,2,29,3
9,86,2,11,3
120,10,2,0,3
235,402,2,413,3
197,248,1,22,3
125,226,2,369,3
106,59,2,98,3
40,11,2,675,3
97,108,2,0,3
269,176,2,395,3
14,62,2,105,3
229,151,2,178,3
72,19,2,349,3
105,167,2,72,3
89,209,2,219,3
158,64,2,80,3
35,16,2,30,3
146,18,2,240,3
176,89,2,218,3
184,8,2,173,3
86,130,2,217,3
105,193,2,516,3
167,206,2,183,3
35,23,2,519,3
109,149,2,99,3
20,30,2,435,3
168,179,2,193,3
107,10,2,307,3
8,120,2,327,3
1,39,2,94,3
40,24,2,47,3
96,118,2,32,3
122,339,2,105,3
11,53,2,24,3
179,226,2,250,3
63,209,2,192,3
191,183,2,153,3
261,391,2,111,3
143,209,2,269,3
203,47,2,162,3
331,341,2,161,3
28,119,2,208,3
297,334,2,176,3
29,42,2,136,3
2,7,2,425,3
144,151,2,167,3
8,119,2,286,3
50,33,2,152,3
68,61,2,27,3
135,216,2,76,3
1,41,2,13,3
249,427,1,10,3
218,296,2,62,3
59,34,2,118,3
160,31,2,457,3
195,106,2,138,3
105,80,2,502,3
81,149,2,120,3
115,93,2,592,3
220,284,2,22,3
24,6,2,262,3
115,45,2,200,3
75,229,2,358,3
26,51,2,85,3
72,157,2,72,3
13,98,2,48,3
113,125,2,108,3
51,40,2,126,3
182,443,2,0,3
6,86,2,0,3
327,536,2,100,3
51,317,2,356,3
16,46,2,12,3
140,226,2,356,3
15,125,2,275,3
53,177,2,124,3
71,62,2,673,3
0,15,2,60,3
183,148,2,525,3
126,109,2,506,3
15,30,2,108,3
180,73,2,199,3
124,169,2,251,3
122,242,2,19,3
24,92,2,92,3
37,364,2,61,3
10,164,2,0,3
91,153,2,134,3
241,601,2,162,3
11,172,2,53,3
88,160,2,0,3
2,35,2,115,3
247,188,2,400,3
3,114,2,93,3
180,101,2,633,3
138,128,2,489,3
14,118,2,344,3
110,27,2,192,3
14,282,2,159,3
28,190,2,45,3
151,222,2,14,3
3,139,2,5,3
10,183,2,6,3
113,160,2,172,3
68,229,2,493,3
202,430,2,427,3
173,42,2,0,3
237,402,2,493,3
123,144,2,462,3
205,278,2,385,3
15,194,2,428,3
38,151,2,590,3
115,36,2,528,3
213,413,2,86,3
376,415,1,109,3
137,177,2,166,3
244,517,2,217,3
15,132,2,266,3
178,450,1,86,3
73,169,2,291,3
252,277,2,43,3
24,164,2,573,3
253,462,2,127,3
17,89,2,534,3
163,391,1,379,3
0,145,2,263,3
21,176,2,456,3
255,184,2,476,3
