Ch1,Ch2,Ch3,Ch4,label
124,174,2,70,1
58,26,2,141,1
240,419,1,70,1
111,220,2,13,1
111,175,2,29,1
253,351,2,81,1
101,164,2,0,1
207,263,2,89,1
97,147,2,136,1
3,17,2,158,1
90,78,2,44,1
0,5,2,0,1
60,72,2,389,1
70,49,2,4,1
138,183,2,115,1
115,96,2,42,1
48,19,2,296,1
27,10,2,336,1
149,214,2,169,1
11,11,2,10,1
50,21,2,90,1
33,31,2,122,1
103,132,2,232,1
102,153,2,134,1
41,13,2,42,1
65,83,2,162,1
10,11,2,169,1
171,220,2,42,1
96,128,2,60,1
15,18,2,162,1
108,122,2,21,1
71,95,2,28,1
73,141,2,108,1
25,94,2,179,1
20,72,2,114,1
3,102,2,83,1
5,119,2,87,1
52,109,2,85,1
0,131,2,226,1
17,43,2,268,1
59,13,2,20,1
101,156,2,43,1
13,55,2,54,1
6,78,2,156,1
63,121,2,65,1
5,92,2,69,1
39,73,2,343,1
39,177,2,432,1
1,36,2,18,1
1,85,2,262,1
180,135,2,331,1
121,251,2,386,1
38,103,2,235,1
1,33,2,217,1
27,136,2,511,1
55,63,2,145,1
31,63,2,226,1
252,246,2,232,1
5,19,2,160,1
94,50,2,85,1
38,136,2,336,1
48,99,2,216,1
75,170,2,200,1
30,61,2,85,1
88,121,2,243,1
43,243,2,673,1
45,45,2,591,1
122,117,2,265,1
3,42,2,323,1
9,12,2,860,1
233,18,2,176,1
42,77,2,588,1
58,116,2,29,1
131,71,2,661,1
42,129,2,177,1
126,51,2,408,1
10,75,2,168,1
61,127,2,47,1
45,85,2,55,1
2,100,2,132,1
6,65,2,710,1
8,12,2,730,1
67,10,2,12,1
36,162,2,192,1
102,184,2,67,1
167,102,2,793,1
35,248,2,417,1
132,7,2,572,1
47,228,2,254,1
156,21,2,233,1
52,52,2,111,1
105,229,2,299,1
23,258,2,685,1
213,87,2,153,1
50,57,2,122,1
90,51,2,439,1
92,102,2,968,1
42,180,2,545,1
190,194,2,412,1
268,244,2,420,1
102,132,2,226,1
305,311,431,1023,1
69,114,185,451,1
299,209,36,985,1
438,356,428,1023,1
175,113,59,327,1
57,35,7,186,1
57,27,1,407,1
51,47,2,311,1
47,136,2,26,1
62,65,2,617,1
303,428,2,1023,1
310,294,224,323,1
102,94,54,935,1
125,147,412,1023,1
28,30,150,267,1
34,134,518,1023,1
112,70,348,811,1
16,102,75,401,1
16,51,450,1023,1
56,214,410,356,1
1,47,92,1023,1
189,296,82,1000,1
39,51,19,526,1
235,115,1,10,1
128,405,2,428,1
107,24,2,396,1
184,122,2,141,1
112,39,2,770,1
62,22,2,157,1
153,275,2,499,1
60,176,2,529,1
171,199,2,384,1
2,196,542,1023,1
157,197,363,390,1
72,262,79,852,1
76,118,9,236,1
369,305,1,52,1
404,428,3,396,1
264,374,2,512,1
79,67,3,454,1
339,115,2,500,1
109,305,3,979,1
396,634,204,991,1
369,744,123,967,1
619,735,274,1023,1
9,17,339,382,1
403,583,67,549,1
34,26,6,227,1
399,119,1,779,1
53,202,2,216,1
72,120,619,1023,1
225,118,192,64,1
68,8,35,1023,1
70,23,2,174,1
38,331,2,1023,1
184,238,285,721,1
311,408,74,208,1
194,836,7,1000,1
210,199,1,70,1
277,144,2,468,1
230,610,2,335,1
63,297,2,315,1
614,706,2,0,1
474,310,2,61,1
124,61,2,199,1
256,37,2,169,1
124,214,2,446,1
399,222,2,118,1
211,59,469,1023,1
273,88,280,692,1
313,251,65,537,1
310,226,6,822,1
45,16,1,106,1
385,737,2,480,1
38,39,2,547,1
10,16,2,918,1
282,160,1,18,1
255,267,2,517,1
161,6,2,245,1
161,238,2,382,1
352,12,2,455,1
112,9,2,109,1
50,75,2,382,1
438,140,2,39,1
171,38,2,426,1
383,54,3,714,1
227,304,3,910,1
47,87,2,435,1
64,91,2,676,1
288,337,114,734,1
74,483,41,164,1
360,320,3,358,1
435,89,1,949,1
199,243,2,584,1
58,73,2,403,1
171,141,455,1023,1
310,165,221,534,1
335,29,225,1023,1
20,121,162,71,1
610,172,565,1023,1
724,688,114,193,1
34,27,17,185,1
545,554,0,423,1
520,335,2,477,1
110,83,2,250,1
336,451,2,430,1
258,102,2,604,1
157,148,2,236,1
171,138,3,1023,1
463,176,2,314,1
121,65,2,603,1
243,141,273,1023,1
99,184,105,0,1
74,16,562,1023,1
552,464,213,29,1
112,99,40,0,1
178,21,2,80,1
527,491,1,884,1
163,406,2,411,1
452,439,190,1023,1
310,512,20,252,1
609,359,1,3,1
46,9,2,453,1
423,257,2,415,1
217,25,3,923,1
38,111,2,523,1
107,160,2,179,1
350,157,2,862,1
187,13,2,313,1
36,714,2,372,1
404,162,2,0,1
557,854,2,446,1
6,123,2,1023,1
153,348,2,462,1
282,73,2,791,1
263,198,2,54,1
762,224,2,217,1
44,129,1,872,1
109,131,1,416,1
79,44,2,195,1
310,129,2,542,1
258,80,2,362,1
371,142,2,966,1
22,70,2,1023,1
83,170,1,570,1
356,710,31,1023,1
430,130,88,426,1
234,263,12,42,1
171,351,1,1023,1
211,213,1,630,1
47,137,3,1014,1
286,220,166,729,1
172,53,41,176,1
59,12,3,46,1
209,147,1,3,1
76,22,2,77,1
394,273,2,50,1
393,406,2,458,1
151,197,2,685,1
272,517,403,1023,1
473,623,72,13,1
616,943,7,828,1
481,457,1,850,1
581,700,1,918,1
296,161,616,1023,1
50,270,159,1023,1
51,141,228,1023,1
102,153,192,1023,1
128,247,486,59,1
63,58,476,1023,1
90,8,81,1023,1
7,37,202,950,1
56,182,191,813,1
107,11,41,56,1
353,112,2,346,1
13,104,1,131,1
746,271,4,933,1
698,402,2,437,1
366,290,2,39,1
101,270,2,335,1
86,130,3,464,1
4,159,2,172,1
135,58,2,401,1
70,22,2,205,1
21,63,3,661,1
3,20,3,668,1
77,127,2,303,1
82,42,2,783,1
625,281,2,833,1
85,157,2,724,1
596,253,64,780,1
215,103,26,551,1
52,280,1,835,1
78,19,1,82,1
551,493,596,1023,1
543,148,114,290,1
58,148,19,161,1
178,142,1,362,1
217,23,2,905,1
113,119,248,569,1
237,334,95,669,1
211,429,11,858,1
102,100,1,141,1
420,296,2,41,1
263,44,3,429,1
95,28,2,264,1
222,254,2,148,1
132,18,2,47,1
216,46,2,457,1
57,110,2,322,1
30,36,2,804,1
291,28,2,754,1
255,580,7,568,1
391,55,236,1023,1
147,125,56,112,1
119,10,7,650,1
237,136,1,1023,1
97,246,311,769,1
53,7,99,39,1
157,178,13,335,1
7,60,1,400,1
210,22,2,697,1
189,98,2,850,1
55,110,2,307,1
38,121,3,1023,1
117,57,2,827,1
69,39,2,79,1
114,19,2,274,1
146,152,2,45,1
292,44,2,263,1
160,97,2,142,1
157,55,2,140,1
319,36,2,161,1
107,5,2,10,1
44,294,3,823,1
232,450,1,265,1
84,405,2,164,1
92,96,2,829,1
59,112,2,391,1
32,42,2,165,1
24,40,2,0,1
238,41,3,874,1
34,9,2,234,1
143,84,2,157,1
187,133,2,178,1
23,92,2,0,1
123,182,2,216,1
262,710,2,13,1
428,388,2,322,1
413,476,2,306,1
376,204,2,267,1
305,177,2,51,1
212,164,2,459,1
165,89,2,141,1
1,39,2,483,1
26,31,2,332,1
33,107,2,419,1
30,62,2,110,1
182,15,2,239,1
51,75,2,76,1
99,127,2,237,1
97,77,2,168,1
106,197,3,945,1
42,164,2,203,1
89,121,2,380,1
141,331,2,279,1
115,264,2,296,1
180,159,2,282,1
85,33,2,162,1
100,92,2,59,1
176,123,2,142,1
106,9,2,321,1
174,70,2,290,1
456,124,2,526,1
0,67,2,103,1
38,311,2,378,1
97,57,2,191,1
11,62,2,311,1
96,38,2,14,1
203,98,2,273,1
92,91,2,168,1
70,15,3,375,1
137,165,2,16,1
73,130,2,92,1
67,27,2,332,1
111,148,2,20,1
15,107,2,248,1
5,78,2,410,1
1,18,2,47,1
103,89,2,271,1
111,257,2,326,1
494,375,2,187,1
49,207,2,63,1
270,181,2,174,1
102,35,2,158,1
37,182,2,0,1
188,304,2,308,1
81,154,2,255,1
49,48,2,198,1
14,266,2,13,1
54,311,2,153,1
23,24,2,22,1
252,390,2,89,1
150,18,2,225,1
81,246,2,102,1
187,69,2,158,1
27,6,2,271,1
28,52,2,14,1
3,192,2,89,1
33,58,2,386,1
54,105,2,369,1
7,132,2,324,1
11,135,2,621,1
41,99,2,203,1
40,140,2,934,1
116,14,2,323,1
136,139,3,984,1
200,223,2,389,1
68,83,2,340,1
91,384,2,17,1
124,63,2,76,1
250,156,2,6,1
23,112,2,98,1
165,177,2,76,1
67,28,2,11,1
23,30,2,429,1
100,191,2,110,1
96,12,2,85,1
103,47,2,307,1
6,161,2,87,1
87,52,2,64,1
58,73,1,285,1
5,73,2,58,1
34,45,2,549,1
15,26,2,0,1
93,188,2,436,1
145,165,2,209,1
59,110,2,242,1
112,137,2,121,1
137,147,2,239,1
70,54,2,318,1
46,97,2,176,1
118,83,2,260,1
66,71,2,255,1
125,9,2,0,1
72,68,2,268,1
163,189,2,402,1
123,345,2,96,1
17,131,2,510,1
146,132,3,822,1
108,325,2,33,1
377,167,2,414,1
84,162,2,21,1
146,134,2,25,1
67,91,2,44,1
83,163,2,241,1
83,74,2,70,1
79,63,2,119,1
0,6,2,311,1
29,42,2,228,1
26,51,2,21,1
100,44,2,178,1
207,211,2,506,1
78,27,2,0,1
2,50,2,505,1
120,248,2,245,1
46,72,3,892,1
20,49,2,451,1
10,11,2,245,1
139,269,2,246,1
77,102,2,183,1
185,137,2,93,1
175,261,2,51,1
56,118,2,53,1
136,319,2,337,1
75,79,2,630,1
120,274,2,315,1
99,74,3,692,1
150,284,2,255,1
24,67,2,226,1
218,266,2,20,1
0,219,2,3,1
94,115,2,230,1
47,18,2,272,1
22,122,2,0,1
248,497,2,22,1
138,242,2,79,1
241,412,2,237,1
2,84,2,198,1
158,209,2,0,1
108,158,2,259,1
87,76,2,759,1
56,53,2,287,1
54,142,2,642,1
2,6,2,114,1
85,155,2,98,1
94,57,2,75,1
45,79,2,0,1
261,206,2,314,1
34,19,2,163,1
62,166,2,26,1
145,362,2,116,1
192,433,2,130,1
260,573,2,172,1
175,329,2,396,1
86,110,2,30,1
66,111,2,388,1
46,61,2,116,1
54,71,2,320,1
69,91,2,26,1
63,55,2,88,1
52,56,2,42,1
20,9,2,0,1
139,150,2,357,1
40,162,2,183,1
70,249,2,68,1
25,36,2,67,1
204,323,2,86,1
244,315,2,164,1
91,107,2,99,1
254,339,2,100,1
139,49,2,132,1
36,195,2,91,1
5,57,2,385,1
104,151,2,690,1
36,76,2,161,1
144,179,2,421,1
11,13,2,93,1
60,35,2,95,1
21,31,2,181,1
67,71,2,367,1
70,151,2,242,1
28,97,2,31,1
67,25,2,9,1
267,375,2,94,1
72,84,2,37,1
391,619,2,33,1
166,255,1,87,1
288,349,2,245,1
177,228,2,84,1
70,9,2,320,1
96,75,2,151,1
96,142,2,338,1
80,131,2,139,1
92,58,2,262,1
144,43,2,38,1
67,104,3,713,1
2,9,2,324,1
76,117,2,189,1
129,286,2,106,1
84,77,2,71,1
548,803,2,206,1
259,349,2,73,1
74,202,2,20,1
373,415,2,5,1
173,315,2,118,1
150,234,2,147,1
135,178,2,354,1
29,7,2,205,1
111,106,2,196,1
29,43,2,108,1
63,28,2,502,1
69,64,2,341,1
67,58,2,119,1
75,22,2,270,1
141,232,2,14,1
224,418,2,174,1
264,663,2,54,1
36,55,2,160,1
157,358,2,40,1
136,247,2,74,1
280,522,2,147,1
106,173,2,32,1
229,226,2,129,1
9,113,2,70,1
6,15,2,33,1
164,178,2,17,1
2,10,2,11,1
60,65,2,263,1
105,91,2,99,1
94,16,2,489,1
126,65,2,247,1
16,72,2,55,1
335,499,2,66,1
258,630,1,50,1
134,227,2,50,1
177,327,2,12,1
82,124,2,134,1
68,109,2,93,1
115,238,2,0,1
180,303,2,91,1
319,622,2,186,1
7,25,2,124,1
99,210,2,129,1
17,65,2,15,1
38,36,2,40,1
149,122,2,226,1
102,7,2,51,1
103,106,2,130,1
107,120,2,88,1
193,265,2,65,1
102,180,2,78,1
152,293,2,103,1
96,98,2,10,1
107,58,2,95,1
70,123,2,21,1
43,211,2,34,1
0,16,2,93,1
21,85,2,76,1
45,143,2,0,1
51,62,2,12,1
60,61,2,206,1
32,54,2,231,1
112,103,2,234,1
89,74,2,1,1
52,125,2,185,1
90,86,2,10,1
11,89,2,257,1
75,234,2,97,1
80,43,2,116,1
14,72,2,0,1
337,402,2,31,1
63,73,2,0,1
28,105,2,10,1
0,10,2,46,1
113,170,2,108,1
59,101,2,4,1
3,16,2,154,1
4,13,2,122,1
145,159,2,0,1
101,107,2,135,1
54,145,2,74,1
28,36,2,0,1
73,85,2,62,1
0,95,2,33,1
86,149,2,24,1
15,68,2,102,1
55,103,2,0,2
67,120,2,172,2
208,352,2,138,2
151,247,1,13,2
294,431,2,39,2
76,161,2,102,2
156,220,2,3,2
31,6,2,119,2
26,56,2,99,2
101,118,2,83,2
51,12,2,90,2
45,54,2,4,2
115,132,2,268,2
43,23,2,20,2
42,23,2,181,2
28,123,2,0,2
228,342,2,286,2
51,60,2,19,2
134,195,2,138,2
88,91,2,31,2
97,44,2,52,2
75,190,2,50,2
18,64,2,69,2
62,39,2,387,2
44,74,2,156,2
68,98,2,233,2
144,179,2,433,2
52,10,2,123,2
46,31,2,425,2
140,185,2,36,2
81,105,2,190,2
161,210,2,0,2
55,99,2,299,2
113,179,2,311,2
157,300,2,19,2
51,101,2,79,2
128,102,2,291,2
14,7,2,30,2
18,70,2,182,2
202,235,2,208,2
70,200,2,53,2
33,63,2,136,2
121,155,2,366,2
24,70,2,205,2
124,200,2,66,2
10,82,2,243,2
101,160,2,192,2
1,6,2,213,2
148,224,2,98,2
83,240,2,69,2
126,201,2,434,2
217,406,2,290,2
138,237,2,428,2
214,331,2,382,2
91,79,2,9,2
12,170,3,704,2
31,27,3,927,2
155,48,2,156,2
22,49,2,394,2
171,269,2,190,2
109,130,2,98,2
47,81,2,127,2
105,133,2,694,2
57,183,2,665,2
8,21,2,329,2
29,19,3,724,2
7,76,2,439,2
115,59,2,555,2
173,175,2,169,2
46,223,2,616,2
170,73,2,131,2
15,37,3,1023,2
47,106,2,243,2
94,30,3,828,2
180,6,2,56,2
162,117,2,271,2
37,68,2,347,2
34,184,2,445,2
93,176,2,718,2
2,12,2,758,2
232,394,1,198,2
202,541,2,862,2
68,242,1,499,2
60,178,2,616,2
105,130,2,245,2
36,18,15,1023,2
90,236,33,266,2
159,110,4,651,2
31,43,1,348,2
191,203,2,224,2
103,109,2,104,2
18,91,2,747,2
34,29,2,186,2
99,97,2,101,2
9,181,2,343,2
256,394,2,213,2
300,438,2,149,2
136,92,2,348,2
4,116,2,709,2
211,356,2,243,2
97,184,2,953,2
73,121,280,1023,2
30,108,422,59,2
1,65,403,1023,2
110,98,299,642,2
77,64,67,442,2
54,119,6,604,2
27,169,1,0,2
2,9,3,393,2
404,417,2,182,2
310,90,3,595,2
556,319,2,70,2
276,229,3,566,2
119,274,2,422,2
88,20,2,268,2
269,95,2,422,2
306,222,2,214,2
504,159,2,39,2
264,100,2,97,2
505,363,2,131,2
182,46,2,303,2
267,192,2,665,2
333,159,2,307,2
162,459,3,1023,2
154,231,59,127,2
89,49,586,1023,2
65,60,175,415,2
274,117,31,760,2
221,468,1,297,2
199,37,2,222,2
146,137,2,787,2
127,40,215,756,2
99,138,87,629,2
23,13,11,488,2
70,122,0,348,2
89,80,2,1,2
89,131,3,185,2
179,333,3,1023,2
436,170,2,666,2
330,762,3,939,2
161,370,1,475,2
354,638,1,595,2
144,23,2,347,2
122,154,2,700,2
390,190,2,62,2
230,184,2,445,2
515,311,1,202,2
280,318,2,114,2
29,25,2,249,2
217,308,3,725,2
245,177,2,162,2
16,285,2,307,2
115,182,2,520,2
20,48,2,122,2
194,63,2,474,2
16,166,2,365,2
216,6,2,388,2
267,180,3,653,2
208,8,2,447,2
274,439,1,380,2
25,390,2,507,2
22,15,2,38,2
48,381,2,216,2
207,256,2,622,2
93,357,2,359,2
195,85,2,723,2
2,158,2,669,2
259,46,2,38,2
421,127,2,689,2
15,49,2,388,2
403,92,2,36,2
190,171,2,352,2
609,565,2,80,2
123,82,2,30,2
599,423,2,214,2
133,83,2,400,2
429,635,2,272,2
88,238,3,1023,2
132,164,1,200,2
145,142,1,104,2
212,79,2,239,2
19,122,45,1023,2
512,466,1,392,2
86,23,523,1023,2
3,193,346,293,2
193,119,318,1023,2
295,479,256,827,2
678,343,224,1023,2
513,118,201,722,2
217,6,35,278,2
288,441,1,0,2
44,34,1,0,2
379,670,2,0,2
226,237,2,160,2
85,9,2,500,2
283,103,3,296,2
671,739,3,223,2
312,245,2,55,2
566,523,3,538,2
237,269,2,36,2
304,88,2,181,2
105,145,2,342,2
242,107,2,341,2
131,49,2,319,2
274,231,2,170,2
245,98,2,96,2
23,211,2,116,2
509,333,2,678,2
117,293,2,90,2
220,418,2,185,2
177,88,2,110,2
11,164,2,41,2
323,327,2,632,2
18,441,2,576,2
102,69,2,659,2
372,59,2,268,2
307,278,2,265,2
26,37,2,77,2
2,74,2,696,2
419,279,143,265,2
63,63,35,854,2
159,50,3,249,2
435,131,1,934,2
11,230,2,547,2
285,32,2,498,2
161,210,403,1023,2
84,23,29,156,2
523,662,596,1023,2
83,151,235,392,2
57,392,46,649,2
101,141,4,254,2
8,194,1,28,2
133,198,2,211,2
26,77,2,30,2
271,134,3,585,2
147,166,2,395,2
24,77,2,667,2
79,81,2,125,2
94,174,2,482,2
102,21,2,144,2
166,8,2,115,2
327,138,2,90,2
4,168,3,709,2
172,51,1,80,2
259,168,2,0,2
232,262,2,345,2
115,172,2,189,2
253,248,2,153,2
185,350,2,60,2
84,35,2,124,2
20,223,2,288,2
196,169,2,123,2
37,113,2,3,2
248,27,2,120,2
185,58,2,311,2
39,67,2,97,2
25,8,2,176,2
8,30,2,264,2
46,86,2,310,2
160,121,2,767,2
101,69,3,1023,2
247,50,184,472,2
61,98,42,175,2
2,90,3,481,2
102,162,1,281,2
6,83,2,333,2
259,329,3,557,2
211,47,2,185,2
64,171,2,211,2
93,75,2,407,2
3,37,2,0,2
140,18,2,742,2
104,122,2,206,2
305,298,2,345,2
51,56,2,78,2
21,9,2,44,2
92,174,2,69,2
38,8,2,296,2
112,97,2,182,2
36,27,2,54,2
197,71,2,0,2
2,22,2,104,2
172,164,2,290,2
125,120,2,0,2
113,194,2,132,2
98,270,2,149,2
85,253,2,0,2
129,246,2,591,2
211,197,2,637,2
118,118,533,1023,2
195,344,301,635,2
226,136,71,357,2
211,290,7,387,2
52,80,1,22,2
1,87,2,16,2
6,64,2,368,2
38,135,3,228,2
7,21,2,498,2
59,11,2,463,2
238,346,2,394,2
46,47,2,234,2
137,325,2,254,2
154,116,2,26,2
273,295,2,279,2
112,109,2,97,2
79,78,2,302,2
243,312,2,198,2
84,24,2,536,2
25,69,2,72,2
74,94,2,71,2
67,275,2,304,2
128,7,2,350,2
66,79,2,390,2
47,9,2,212,2
225,333,2,215,2
40,105,2,635,2
257,244,1,243,2
35,36,2,562,2
325,224,2,466,2
90,96,2,17,2
101,157,2,275,2
75,118,2,528,2
143,311,2,321,2
38,28,3,292,2
89,346,1,49,2
43,65,2,262,2
63,206,2,73,2
101,512,1,416,2
11,175,2,33,2
45,16,3,350,2
59,18,2,67,2
29,30,2,421,2
41,79,2,539,2
151,232,2,363,2
21,130,2,397,2
49,6,2,239,2
218,97,2,150,2
205,60,2,53,2
20,51,2,50,2
194,286,2,319,2
102,45,2,258,2
163,272,2,216,2
34,56,2,175,2
264,478,2,21,2
149,256,2,116,2
44,69,2,300,2
72,123,2,139,2
244,254,2,543,2
81,49,2,756,2
196,345,2,282,2
74,123,2,741,2
100,180,1,135,2
78,129,2,91,2
80,300,2,50,2
10,23,2,580,2
59,144,2,20,2
185,259,3,706,2
83,73,2,261,2
45,69,2,390,2
97,37,2,25,2
4,43,2,236,2
128,293,2,79,2
355,699,2,304,2
9,28,2,117,2
29,25,2,509,2
261,314,2,741,2
195,320,2,178,2
283,247,2,896,2
11,62,2,100,2
430,148,2,371,2
59,357,2,114,2
312,85,2,128,2
252,155,2,99,2
61,327,2,249,2
97,132,2,262,2
137,220,2,187,2
134,100,2,157,2
141,141,2,100,2
58,122,2,47,2
121,148,2,52,2
17,82,2,37,2
4,156,2,244,2
109,66,2,106,2
55,302,1,149,2
237,318,2,353,2
66,125,2,134,2
334,740,2,404,2
26,77,2,414,2
159,207,2,79,2
198,108,3,491,2
77,109,2,136,2
1,32,2,235,2
103,92,2,503,2
19,117,2,534,2
208,377,1,282,2
291,155,2,134,2
235,296,2,199,2
121,242,2,359,2
88,141,2,432,2
130,40,2,148,2
4,19,2,0,2
57,135,2,654,2
225,277,2,325,2
82,69,3,697,2
118,156,2,554,2
133,25,2,2,2
141,217,2,387,2
188,61,2,39,2
285,463,2,372,2
240,209,2,367,2
190,240,2,173,2
18,98,2,7,2
60,168,2,281,2
48,39,1,411,2
5,75,2,35,2
162,484,2,292,2
111,138,3,463,2
23,111,1,1023,2
42,145,336,901,2
345,438,122,902,2
326,753,547,1023,2
184,413,232,258,2
200,348,44,797,2
346,576,3,210,2
401,402,1,281,2
133,439,2,443,2
97,182,2,0,2
78,46,2,501,2
228,269,2,185,2
125,199,2,149,2
136,185,2,217,2
322,298,2,289,2
155,93,2,350,2
153,22,3,264,2
38,73,2,244,2
38,42,2,58,2
23,70,2,71,2
21,56,2,68,2
2,106,2,8,2
159,76,2,54,2
144,214,2,14,2
198,188,2,129,2
14,45,2,198,2
70,110,2,0,2
10,121,2,225,2
174,94,2,536,2
80,14,2,67,2
75,98,2,195,2
8,62,2,563,2
209,274,2,80,2
5,67,2,261,2
97,71,2,579,2
12,23,2,98,2
58,79,2,149,2
52,73,2,303,2
12,6,2,278,2
108,37,2,163,2
44,51,2,130,2
51,253,2,22,2
83,67,2,157,2
43,111,2,57,2
39,145,2,23,2
211,182,1,264,2
23,349,1,252,2
109,54,2,145,2
84,117,2,478,2
20,15,2,553,2
25,46,2,44,2
74,84,2,347,2
225,297,2,6,2
3,81,2,163,2
290,389,2,106,2
107,95,2,96,2
211,378,2,105,2
194,162,2,193,2
109,39,2,61,2
83,53,2,331,2
13,24,2,191,2
20,50,2,181,2
2,54,2,13,2
23,10,2,95,2
34,82,2,79,2
46,96,2,128,2
39,221,2,180,2
90,14,2,62,2
72,132,2,6,2
126,179,2,32,2
23,5,2,131,2
20,57,2,294,2
178,181,2,50,2
71,44,2,182,2
111,158,2,335,2
118,179,2,126,2
309,357,2,187,2
113,298,2,328,2
82,187,2,108,2
6,45,2,0,2
9,21,2,111,2
61,176,2,134,2
118,101,2,23,2
115,283,2,74,2
56,33,2,73,2
108,194,2,18,2
211,238,2,58,2
119,60,2,18,2
155,153,2,289,2
187,149,2,12,2
52,15,2,59,2
36,98,2,0,2
147,193,2,51,2
157,183,2,43,2
170,317,2,189,2
31,10,2,30,2
35,106,2,291,2
140,294,2,102,2
92,162,2,15,2
246,306,2,137,2
89,174,2,131,2
99,96,2,0,2
219,259,2,242,2
50,125,2,56,2
6,70,2,334,2
31,97,2,159,2
58,113,2,8,2
121,137,2,97,2
99,108,2,65,2
68,191,2,158,2
28,22,2,101,2
297,448,2,139,2
227,343,2,397,2
80,55,2,114,2
34,10,2,222,2
50,22,2,125,2
157,153,2,81,2
195,291,2,5,2
44,25,2,104,2
182,211,2,81,2
27,8,2,115,2
1,7,2,496,2
177,168,2,216,2
32,5,2,287,2
115,88,2,179,2
59,89,2,33,2
253,582,2,323,2
249,233,2,544,2
120,336,2,550,2
6,64,2,574,2
57,96,2,267,2
62,18,2,257,2
134,34,2,31,2
166,103,2,441,2
91,78,2,59,2
17,79,2,420,2
56,9,2,127,2
94,94,2,1003,2
72,128,1,262,2
110,150,2,434,2
125,134,2,508,2
99,20,2,127,2
114,340,2,256,2
55,173,2,36,2
299,181,2,627,2
118,9,3,786,2
123,82,2,111,2
3,148,2,686,2
41,41,2,304,2
361,385,1,129,2
123,218,2,291,2
39,279,2,154,2
220,111,2,121,2
116,54,2,679,2
80,132,2,996,2
186,136,1,51,2
148,148,3,808,2
240,112,2,504,2
113,17,2,221,2
276,6,2,62,2
3,209,2,87,2
81,17,2,45,2
320,395,2,504,2
163,282,2,0,2
402,497,2,123,2
31,84,2,285,2
656,974,2,196,2
686,843,2,453,2
273,548,1,326,2
381,425,1,1,2
142,8,2,220,2
285,131,2,202,2
30,79,2,104,2
36,25,3,639,2
180,219,2,268,2
295,116,2,510,2
492,317,2,137,2
408,216,2,319,2
551,408,2,12,2
354,151,2,483,2
76,479,2,689,2
216,120,2,97,2
171,202,3,1010,2
799,942,2,250,2
12,181,1,602,2
350,439,2,143,2
68,57,3,1023,2
20,44,124,93,2
246,83,487,1023,2
216,113,338,623,2
582,271,82,498,2
48,29,8,978,2
330,245,1,22,2
242,12,83,1023,2
349,266,31,10,2
162,843,606,1023,2
185,532,247,194,2
425,843,65,929,2
196,73,11,102,2
319,431,1,635,2
636,87,2,147,2
220,68,2,312,2
75,293,2,675,2
104,46,2,92,2
151,312,2,544,2
288,82,2,625,2
13,235,2,22,2
76,223,2,23,2
166,131,2,601,2
409,266,2,683,2
81,262,2,159,2
278,807,3,772,2
480,853,1,253,2
279,570,107,401,2
260,108,24,181,2
249,34,1,24,2
682,375,2,170,2
334,236,2,231,2
240,139,2,316,2
254,248,2,197,2
44,131,2,648,2
262,147,2,594,2
20,21,2,199,2
225,26,2,452,2
45,45,2,471,2
276,204,2,455,2
416,356,2,478,2
94,36,2,54,2
185,205,2,570,2
297,221,2,414,2
390,212,2,370,2
307,391,2,218,2
143,98,2,620,2
387,359,2,18,2
6,33,2,128,2
351,103,2,406,2
345,142,2,482,2
586,283,1,208,2
187,53,3,1023,2
65,16,2,403,2
263,203,459,1023,2
174,123,62,481,2
174,260,7,547,2
751,750,1,313,2
250,447,1,542,2
8,283,1,9,2
254,301,2,14,2
24,168,2,182,2
436,101,2,169,2
174,363,3,937,2
159,29,3,880,2
248,240,1,22,2
13,133,2,517,2
90,158,2,1,2
253,83,2,134,2
149,173,2,328,2
110,16,3,1023,2
475,217,232,695,2
146,142,62,732,2
86,122,406,1023,2
536,888,223,65,2
279,184,41,936,2
291,624,2,35,2
107,63,2,404,2
79,272,2,440,2
79,28,2,353,2
188,204,2,382,2
298,122,3,934,2
47,122,3,648,2
136,79,2,653,2
161,238,191,894,2
58,150,112,545,2
357,286,15,755,2
97,100,1,202,2
346,439,2,623,2
121,245,2,744,2
124,209,2,618,2
535,198,325,1023,2
154,106,160,4,2
284,177,31,418,2
19,189,1,187,2
61,102,2,146,2
103,67,3,965,2
127,97,2,209,2
181,31,242,1023,2
146,15,208,281,2
55,19,44,255,2
171,86,3,387,2
337,477,1,564,2
418,392,2,82,2
456,313,3,954,2
229,180,2,355,2
178,231,2,477,2
135,178,2,579,2
56,48,2,267,2
186,157,2,410,2
52,105,2,22,2
49,17,2,416,2
200,20,144,1023,2
388,36,75,564,2
164,65,8,942,2
221,230,0,283,2
159,190,2,542,2
68,15,2,465,2
1,180,592,1023,2
113,474,419,545,2
271,356,103,1023,2
611,435,66,626,2
410,605,10,171,2
101,71,1,932,2
100,89,2,179,2
136,34,2,93,2
251,300,2,194,2
2,117,3,340,2
104,296,2,869,2
266,238,2,31,2
210,6,418,1023,2
45,15,86,350,2
131,91,13,182,2
501,26,1,0,2
173,45,2,188,2
81,181,2,348,2
89,69,2,2,2
142,221,2,141,2
60,49,3,436,2
11,33,2,488,2
93,129,2,256,2
81,29,2,342,2
374,381,2,353,2
427,123,2,243,2
176,125,2,285,2
56,348,2,740,2
27,15,2,628,2
193,16,2,469,2
47,11,2,484,2
205,251,2,89,2
50,145,2,448,2
135,228,2,182,2
3,13,2,776,2
590,544,2,451,2
102,269,3,1023,2
610,939,1,994,2
56,15,1,117,2
72,121,2,628,2
239,122,2,15,2
41,66,2,226,2
60,24,2,0,2
51,39,1,548,2
157,147,2,685,2
34,149,2,571,2
111,18,2,429,2
77,140,2,41,2
77,120,2,170,2
115,154,2,30,2
162,88,2,37,2
248,401,2,102,2
71,99,2,368,2
103,111,2,396,2
159,381,2,32,2
67,36,2,322,2
101,343,2,233,2
65,119,2,36,2
81,161,2,167,2
0,61,2,281,2
15,47,2,0,2
86,221,2,203,2
66,140,2,224,2
14,21,2,52,2
159,158,2,218,2
149,234,2,405,2
188,226,2,392,2
229,367,1,172,2
145,431,1,71,2
4,21,2,49,2
210,365,2,375,2
149,129,2,8,2
179,123,2,373,2
18,35,2,42,2
114,10,2,329,2
70,172,2,160,2
101,65,2,407,2
57,108,2,176,2
55,246,2,16,2
35,38,2,107,2
3,144,2,98,2
1,62,2,31,2
78,182,2,9,2
195,283,2,233,2
5,24,2,113,2
46,12,2,144,2
16,6,2,326,2
113,207,2,223,2
187,208,2,514,2
65,170,2,47,2
86,222,2,189,2
137,147,2,381,2
39,100,2,73,2
38,16,2,416,2
101,19,1,4,2
248,191,2,491,2
9,57,2,12,2
23,60,2,442,2
2,27,2,111,2
205,174,2,222,2
148,103,2,31,2
43,46,2,54,2
101,173,2,80,2
96,166,2,199,2
26,103,2,167,2
185,55,2,119,2
44,109,2,82,2
62,13,2,227,2
62,164,2,30,2
13,6,2,428,2
64,98,2,428,2
80,96,2,384,2
16,142,2,265,2
45,107,2,273,2
189,205,2,58,2
81,98,2,107,2
214,77,2,0,2
78,285,2,228,2
72,57,2,311,2
275,422,2,165,2
27,173,2,396,2
80,298,2,0,2
51,48,2,340,2
118,38,2,61,2
441,164,2,119,2
213,251,2,53,2
577,228,2,138,2
195,27,2,382,2
120,120,2,119,2
169,58,2,28,2
36,23,2,31,2
150,98,2,365,2
83,90,2,50,2
67,303,2,241,2
20,233,2,187,2
14,222,2,442,2
23,190,2,529,2
120,533,2,497,2
10,50,2,224,2
79,154,2,755,2
66,23,2,151,2
93,149,3,881,2
315,70,2,522,2
333,262,1,267,2
36,48,2,356,2
166,289,2,480,2
123,316,2,448,2
1,227,2,296,2
111,181,1,209,2
62,68,2,162,2
119,339,2,435,2
140,453,1,0,2
183,268,2,240,2
100,120,2,290,2
17,44,2,483,2
10,199,2,237,2
114,146,2,361,2
152,116,2,590,2
156,175,2,107,2
28,7,2,195,2
10,37,2,98,2
375,561,2,90,2
14,16,2,230,2
450,461,2,192,2
31,91,2,252,2
139,91,2,43,2
78,319,2,433,2
96,280,2,183,2
75,236,2,237,2
5,18,2,345,2
311,367,2,394,2
281,176,2,122,2
95,221,3,827,2
139,67,2,367,2
19,19,2,180,2
228,460,2,251,2
106,22,2,50,2
24,248,2,14,2
96,8,2,145,2
80,82,2,37,2
0,29,2,388,2
152,197,2,160,2
44,94,2,10,2
120,14,2,131,2
94,212,2,158,2
205,413,2,349,2
252,299,2,0,2
173,184,2,557,2
171,317,2,696,2
46,142,2,377,2
88,139,2,672,2
235,193,2,179,2
155,17,2,572,2
54,118,2,182,2
39,94,2,117,2
175,281,2,59,2
0,7,2,259,2
185,125,2,80,2
52,14,2,0,2
99,86,2,82,2
159,270,2,135,2
62,167,2,224,2
37,30,2,102,2
198,88,2,2,2
62,79,2,243,2
214,250,2,141,2
70,19,2,254,2
52,18,2,108,2
168,151,2,465,2
54,115,2,250,2
14,20,2,246,2
1,25,2,102,2
6,85,2,49,2
19,56,2,113,2
13,7,2,46,2
125,23,2,0,2
40,120,2,36,2
176,165,2,90,2
33,27,2,81,2
113,134,2,0,2
117,51,2,64,2
232,332,2,0,2
120,54,2,0,2
72,44,2,12,2
10,23,2,0,2
1,99,2,47,2
27,90,2,283,2
170,78,2,16,2
147,223,2,129,2
258,252,2,22,2
272,245,2,113,2
30,94,2,0,2
95,223,2,3,2
52,12,2,16,2
184,153,2,0,2
281,556,2,12,2
182,289,2,42,2
253,328,2,60,2
242,157,2,105,2
127,97,2,40,2
41,70,2,27,2
111,119,2,120,2
100,115,2,117,2
82,77,2,0,2
14,76,2,0,2
108,166,2,75,2
42,10,2,0,2
1,83,2,45,2
124,36,2,29,2
144,307,2,4,2
237,353,2,112,2
421,435,2,66,2
184,357,2,50,2
255,381,2,124,2
64,81,2,7,2
192,286,2,130,2
45,36,2,114,2
91,94,2,224,2
132,104,2,43,2
66,22,2,209,2
104,103,2,17,2
109,93,2,135,2
161,211,2,91,2
169,381,2,0,2
64,98,2,36,2
83,326,2,88,2
116,187,2,97,2
180,269,2,234,2
68,18,2,44,2
39,173,2,54,2
37,151,1,0,2
30,130,2,425,2
44,119,2,20,2
127,71,2,191,2
53,86,2,105,2
197,223,2,36,2
96,46,2,22,2
65,90,2,27,2
82,94,2,175,2
87,69,2,48,2
117,135,2,290,2
96,261,2,61,2
49,142,2,0,2
204,337,2,219,2
190,121,2,73,2
90,143,2,30,2
19,12,2,185,2
183,231,2,0,2
120,159,2,147,2
50,26,2,138,2
25,16,2,46,2
217,159,2,127,2
82,10,2,78,2
142,159,2,481,2
41,49,2,175,2
206,243,3,702,2
12,11,3,433,2
198,44,2,166,2
193,207,2,373,2
84,347,2,315,2
47,39,2,239,2
240,343,1,313,2
161,130,2,336,2
123,22,2,337,2
260,230,2,416,2
125,131,2,207,2
225,159,2,598,2
108,27,2,239,2
95,220,2,360,2
89,54,2,400,2
71,109,2,129,2
98,19,2,606,2
1,187,2,421,2
5,124,2,68,2
48,291,3,981,2
170,187,2,968,2
276,277,1,437,2
206,192,2,836,2
247,260,2,68,2
87,214,2,551,2
6,85,2,276,2
64,192,2,696,2
212,281,1,341,2
61,142,2,52,2
216,305,2,287,2
281,322,2,530,2
35,71,2,235,2
54,10,2,247,2
278,159,2,222,2
138,7,2,202,2
103,17,2,587,2
278,275,2,164,2
327,318,2,302,2
244,420,2,386,2
30,502,2,44,2
96,57,2,164,2
57,279,2,13,2
531,658,1,657,2
315,363,2,735,2
44,192,2,576,2
43,51,2,238,2
523,353,2,209,2
3,135,2,55,2
223,173,2,72,2
3,181,2,466,2
103,315,2,339,2
87,199,2,127,2
258,272,2,260,2
9,125,3,787,2
252,23,2,544,2
291,143,2,939,2
215,136,2,106,2
70,222,2,32,2
273,52,2,565,2
122,431,2,551,2
517,132,2,385,2
320,648,2,201,2
266,125,2,461,2
61,108,2,338,2
88,67,2,344,2
268,148,2,179,2
87,29,2,185,2
533,452,2,438,2
241,250,2,193,2
116,39,2,524,2
69,627,6,765,2
5,874,35,272,2
131,83,3,551,2
140,379,1,323,2
30,493,2,493,2
17,386,1,403,2
24,381,2,490,2
400,509,2,243,2
90,96,2,513,2
490,274,2,258,2
463,339,2,486,2
519,436,2,321,2
479,512,2,1023,2
55,222,1,185,2
106,39,2,215,2
338,63,2,554,2
442,805,2,579,2
327,60,2,16,2
616,872,2,585,2
484,175,1,54,2
453,702,2,410,2
91,253,2,523,2
231,708,1,797,2
149,39,2,571,2
535,116,18,896,2
84,215,20,441,2
195,193,1,344,2
174,180,1,686,2
178,15,2,262,2
155,46,2,673,2
149,503,1,75,2
161,297,523,1023,2
517,345,336,738,2
642,970,83,829,2
206,147,459,1023,2
67,459,314,122,2
119,645,500,1023,2
14,421,387,668,2
274,441,89,280,2
232,233,437,1023,2
78,13,166,405,2
307,228,26,434,2
363,84,1,119,2
178,147,1,73,2
14,41,2,0,2
269,292,3,500,2
31,75,3,592,2
344,428,2,346,2
158,240,2,175,2
604,306,3,316,2
399,315,2,1,2
967,438,2,339,2
458,187,2,417,2
102,277,2,48,2
181,202,2,645,2
231,27,2,679,2
257,121,2,793,2
277,319,505,1023,2
110,12,136,371,2
146,52,22,35,2
290,76,1,907,2
310,108,2,594,2
43,13,2,161,2
272,262,2,0,2
132,100,2,154,2
93,172,2,398,2
324,286,2,43,2
471,46,3,135,2
515,471,2,241,2
46,166,2,469,2
38,249,2,484,2
285,328,2,307,2
27,87,2,410,2
259,121,2,415,2
199,41,2,0,2
180,61,2,415,2
43,53,3,860,2
308,260,2,12,2
146,27,2,741,2
299,716,278,570,2
472,109,98,597,2
79,446,11,973,2
199,60,1,226,2
18,55,1,562,2
518,178,1,110,2
227,14,2,563,2
772,554,2,218,2
226,252,3,946,2
165,236,2,813,2
195,89,2,239,2
517,230,83,1023,2
636,327,123,199,2
523,14,17,939,2
15,88,1,263,2
8,69,86,1023,2
359,385,2,567,2
104,75,1,484,2
43,405,2,335,2
120,253,2,108,2
219,524,615,1023,2
325,407,305,737,2
486,583,66,461,2
440,761,447,1023,2
229,465,305,398,2
95,191,334,468,2
63,30,90,637,2
330,198,18,616,2
398,251,0,930,2
71,21,2,632,2
330,104,2,34,2
10,10,3,938,2
85,326,1,123,2
137,100,2,358,2
104,155,3,514,2
32,150,2,261,2
18,40,2,404,2
166,303,2,146,2
564,275,2,209,2
345,209,2,321,2
148,158,2,488,2
3,122,2,58,2
105,107,2,146,2
197,28,4,1023,2
96,19,1,374,2
53,58,1,557,2
234,47,2,642,2
298,125,2,138,2
289,240,2,85,2
219,90,2,334,2
66,60,2,400,2
397,852,3,1022,2
176,311,1,6,2
594,1007,2,885,2
314,693,1,328,2
439,586,1,166,2
266,420,2,146,2
86,28,2,260,2
186,241,2,64,2
57,34,3,641,2
250,73,2,252,2
8,45,2,283,2
131,74,2,25,2
155,18,2,691,2
91,139,2,625,2
273,221,3,860,2
258,139,2,604,2
67,6,2,501,2
197,55,2,267,2
343,9,3,799,2
20,20,2,25,2
124,385,2,514,2
217,83,2,570,2
9,8,2,205,2
114,64,2,401,2
63,229,1,17,2
282,89,2,271,2
71,54,2,54,2
11,46,2,169,2
6,20,2,421,2
272,47,2,161,2
16,191,2,287,2
50,15,2,261,2
33,116,2,114,2
333,371,2,580,2
238,148,2,277,2
445,307,2,482,2
255,71,2,319,2
20,159,2,81,2
399,472,2,18,2
212,331,2,316,2
312,334,2,348,2
211,223,2,141,2
204,142,2,330,2
15,70,2,501,2
191,43,2,194,2
63,78,2,189,2
15,15,2,275,2
86,164,2,58,2
2,6,2,59,2
6,48,2,175,2
193,259,2,131,2
7,13,2,11,2
126,145,2,244,2
45,213,2,537,2
71,189,2,366,2
475,280,2,627,2
153,198,2,409,2
106,55,2,71,2
13,53,2,323,2
117,31,2,542,2
233,302,2,306,2
31,58,2,452,2
16,62,2,361,2
93,145,2,52,2
120,147,2,8,2
42,157,2,570,2
361,408,2,435,2
38,9,2,301,2
287,532,3,928,2
57,58,2,526,2
107,49,1,254,2
24,17,2,564,2
97,262,2,306,2
433,256,2,0,2
173,102,2,156,2
52,262,2,238,2
35,81,2,574,2
39,118,2,82,2
271,385,3,835,2
0,90,2,500,2
90,194,2,137,2
266,196,2,509,2
52,29,2,383,2
101,122,2,268,2
134,163,1,362,2
55,94,2,329,2
243,305,2,183,2
162,304,2,268,2
118,387,2,410,2
236,407,2,142,2
180,193,2,61,2
128,222,2,698,2
126,210,2,499,2
285,558,2,236,2
19,241,2,619,2
393,499,2,353,2
11,99,2,212,2
206,187,2,500,2
5,125,2,115,2
122,82,2,372,2
271,81,2,371,2
93,159,2,78,2
132,38,2,636,2
174,86,2,265,2
133,150,2,266,2
3,37,2,375,2
85,127,2,245,2
90,400,2,263,2
152,121,2,535,2
141,142,2,87,2
127,99,3,502,2
48,55,2,29,2
201,162,2,53,2
38,36,2,0,2
90,233,2,8,2
287,200,2,154,2
3,136,2,23,2
229,216,2,44,2
91,119,2,263,2
64,89,2,297,2
86,60,2,69,2
72,129,2,326,2
112,8,2,702,2
265,414,2,186,2
201,252,2,437,2
291,756,2,278,2
62,194,2,280,2
15,13,2,721,2
31,165,2,392,2
242,192,3,1023,2
193,97,77,1004,2
98,163,14,194,2
93,75,0,420,2
9,7,2,360,2
193,254,2,44,2
184,234,2,69,2
72,44,2,55,2
79,14,2,108,2
27,92,2,160,2
33,45,2,129,2
290,358,2,359,2
161,143,2,1023,2
54,38,1,385,2
10,63,3,1023,2
351,516,41,933,2
266,293,7,215,2
98,195,1,462,2
85,335,1,733,2
48,130,2,292,2
55,45,2,701,2
112,130,2,758,2
194,152,2,165,2
24,6,2,364,2
182,179,2,300,2
99,36,2,105,2
83,80,2,141,2
44,103,2,183,2
16,10,2,65,2
21,8,2,310,2
139,346,2,287,2
181,270,2,1,2
195,439,2,445,2
254,492,2,373,2
265,216,2,33,2
87,108,2,101,2
80,95,2,126,2
125,186,2,205,2
80,46,2,205,2
64,27,2,21,2
67,48,2,83,2
172,231,2,53,2
50,76,2,84,2
137,265,2,43,2
173,161,2,69,2
55,78,2,123,2
12,52,2,285,2
109,20,2,88,2
1,10,2,47,2
370,511,2,111,2
3,99,2,242,2
346,488,2,385,2
82,112,2,80,2
139,138,3,705,2
74,131,2,486,2
32,53,2,82,2
184,141,2,237,2
197,223,2,231,2
171,202,2,20,2
274,391,2,33,2
223,83,2,40,2
270,246,2,91,2
20,163,2,188,2
136,231,2,100,2
113,72,2,87,2
23,80,2,68,2
38,43,2,100,2
156,187,2,48,2
45,82,2,75,2
30,168,2,71,2
182,268,2,46,2
237,319,2,143,2
19,91,2,83,2
63,26,2,37,2
140,134,2,17,2
52,70,2,141,2
112,130,2,152,2
150,245,2,39,2
106,241,3,6,2
65,188,3,199,2
181,47,2,85,2
220,527,2,182,2
138,72,2,66,2
55,261,2,74,2
235,246,2,204,2
51,111,2,156,2
181,317,2,135,2
24,47,2,112,2
35,47,2,0,2
50,124,2,184,2
29,113,2,64,2
324,177,2,0,2
92,52,2,254,2
10,69,2,526,2
60,83,2,28,2
65,105,2,114,2
7,55,2,465,2
66,65,2,158,2
9,247,2,174,2
346,285,2,3,2
159,233,2,83,2
74,153,2,113,2
416,522,2,75,2
271,323,2,179,2
241,397,2,35,2
84,82,2,133,2
47,121,2,119,2
106,94,2,18,2
2,85,2,17,2
18,11,2,98,2
73,106,2,125,2
209,275,2,149,2
30,95,2,126,2
162,124,2,117,2
113,38,2,3,2
94,255,2,62,2
70,72,2,8,2
165,238,2,0,2
90,88,2,46,2
321,406,2,58,2
117,192,2,114,2
282,253,2,56,2
97,75,2,11,2
62,83,2,0,2
105,120,2,5,2
36,83,2,126,2
143,203,2,68,2
176,200,2,125,2
65,112,2,150,2
15,61,2,76,2
25,11,2,14,2
174,163,2,48,2
256,183,2,81,2
448,579,1,60,2
86,149,2,53,2
208,252,2,0,2
355,402,2,0,2
160,124,2,81,2
27,20,2,152,2
69,61,2,85,2
14,136,2,296,2
192,275,2,244,2
62,76,2,102,2
59,65,2,337,2
118,195,2,52,2
81,28,2,47,2
145,201,2,161,2
50,122,2,0,2
176,351,2,54,2
42,90,3,160,2
154,250,2,137,2
215,265,2,35,2
109,223,2,752,2
101,106,2,295,2
66,11,3,659,2
40,30,3,735,2
292,186,2,350,2
101,123,1,598,2
127,97,2,418,2
12,31,2,104,2
7,14,2,241,2
151,214,2,107,2
28,60,2,248,2
182,170,2,69,2
297,216,2,676,2
118,215,1,618,2
308,293,2,371,2
91,125,2,789,2
269,351,5,906,2
83,116,1,468,2
241,341,1,439,2
154,205,2,87,2
81,282,2,288,2
47,25,2,157,2
169,210,2,192,2
50,21,2,175,2
61,162,2,2,2
85,164,2,50,2
353,183,2,508,2
44,173,2,164,2
112,60,2,133,2
106,150,2,173,2
124,172,2,9,2
26,123,2,306,2
100,225,2,375,2
68,50,2,105,2
45,99,2,191,2
440,92,2,435,2
216,147,2,329,2
11,99,2,8,2
101,132,2,484,2
63,17,2,0,2
166,166,3,1023,2
170,72,1,351,2
28,109,2,60,2
486,167,4,137,2
55,11,2,255,2
187,33,1,410,2
515,412,1,148,2
166,205,2,384,2
179,226,2,589,2
420,190,3,495,2
243,416,4,638,2
342,92,1,233,2
38,303,2,682,2
156,466,1,520,2
11,205,2,889,2
143,405,3,4,2
34,216,2,899,2
72,223,2,402,2
255,79,2,263,2
504,434,2,247,2
52,247,2,678,2
210,165,2,345,2
532,86,2,608,2
123,148,2,118,2
150,192,2,65,2
0,96,3,245,2
125,168,1,218,2
225,442,1,158,2
891,592,2,1,2
281,421,4,140,2
623,489,1,156,2
3,105,1,286,2
67,34,3,662,2
316,223,2,675,2
69,38,2,124,2
105,36,2,738,2
32,85,2,749,2
72,31,2,138,2
372,146,2,44,2
652,280,4,267,2
101,9,1,316,2
267,458,2,419,2
54,285,2,423,2
604,645,4,134,2
45,144,3,518,2
877,1023,617,71,2
35,290,85,376,2
91,74,13,91,2
24,94,1,14,2
478,326,2,648,2
38,150,1,29,2
160,24,3,744,2
445,60,2,1017,2
267,272,2,623,2
461,15,3,749,2
485,8,2,252,2
677,275,2,831,2
269,82,2,111,2
489,23,3,525,2
184,239,3,880,2
118,57,3,75,2
459,555,1,885,2
225,374,1,24,2
277,121,2,301,2
40,316,2,479,2
83,101,2,361,2
120,24,2,232,2
252,180,2,40,2
40,12,2,661,2
295,552,1,432,2
368,149,1,369,2
207,576,1,105,2
141,31,2,150,2
152,261,3,618,2
64,326,4,63,2
338,76,3,40,2
587,646,1,26,2
125,147,2,0,2
90,29,2,108,2
305,159,2,147,2
382,444,4,95,2
970,886,2,653,2
287,70,1,567,2
289,14,2,765,2
100,37,2,74,2
390,264,2,553,2
259,136,2,388,2
99,102,1,896,2
225,61,1,344,2
229,252,2,220,2
260,179,2,477,2
251,43,2,622,2
107,306,1,611,2
197,480,4,449,2
704,123,183,541,2
347,775,243,584,2
433,488,56,760,2
36,364,5,331,2
388,493,1,163,2
131,197,2,207,2
81,29,2,50,2
20,167,2,142,2
586,125,3,145,2
141,39,2,61,2
101,46,2,70,2
7,67,2,232,2
51,64,2,0,2
526,8,3,13,2
213,609,2,97,2
270,184,3,88,2
900,1023,1,891,2
169,273,277,181,2
650,451,126,622,2
381,273,24,196,2
740,473,0,964,2
2,170,1,234,2
189,106,598,1023,2
285,247,309,816,2
200,143,64,1023,2
109,222,191,687,2
66,10,42,212,2
63,7,3,378,2
46,30,2,222,2
173,131,2,5,2
115,25,3,684,2
619,579,2,134,2
202,167,2,488,2
859,1023,88,253,2
39,196,45,377,2
585,367,4,607,2
573,674,1,817,2
39,332,1,429,2
297,459,2,30,2
337,130,2,218,2
154,200,2,488,2
233,47,2,1023,2
206,308,2,516,2
319,110,3,864,2
278,50,1,139,2
171,93,2,17,2
94,72,2,119,2
238,195,2,137,2
860,686,2,352,2
122,144,2,564,2
1023,1023,3,777,2
238,107,1,32,2
138,409,2,522,2
119,63,435,1023,2
91,337,234,251,2
449,489,42,1023,2
280,353,3,28,2
215,135,2,439,2
60,141,2,102,2
77,22,3,420,2
339,34,3,395,2
42,99,2,92,2
28,198,2,59,2
122,555,2,185,2
436,14,2,239,2
401,92,2,71,2
235,53,2,285,2
12,264,2,239,2
74,9,3,735,2
268,226,2,123,2
70,86,2,295,2
146,101,2,116,2
911,675,2,305,2
207,374,2,130,2
631,276,3,1023,2
122,293,355,1023,2
19,21,208,5,2
139,55,26,1023,2
65,111,3,142,2
71,55,2,161,2
64,117,2,899,2
128,424,144,1023,2
146,25,166,932,2
153,115,247,1023,2
56,115,430,307,2
183,87,93,849,2
18,71,56,678,2
294,266,21,640,2
58,122,1,78,2
181,176,2,79,2
60,22,3,10,2
196,193,3,461,2
54,265,3,156,2
23,95,3,538,2
18,195,2,185,2
118,132,2,552,2
175,335,2,126,2
200,118,2,183,2
208,266,2,111,2
2,242,3,220,2
136,353,2,339,2
111,16,3,474,2
194,196,2,0,2
105,105,2,444,2
365,71,2,84,2
216,165,2,173,2
197,63,2,68,2
113,86,2,64,2
46,49,2,78,2
74,142,2,64,2
33,10,2,419,2
82,84,2,341,2
52,21,3,593,2
23,137,2,427,2
44,14,2,339,2
238,300,2,275,2
143,141,2,207,2
92,75,2,168,2
209,58,2,375,2
42,54,2,109,2
134,203,2,26,2
258,180,2,293,2
161,100,2,157,2
106,80,2,113,2
16,33,2,92,2
85,336,2,492,2
132,240,2,43,2
82,51,2,9,2
352,199,2,350,2
200,388,2,290,2
121,329,2,260,2
395,304,2,133,2
174,490,2,239,2
17,24,2,74,2
229,197,2,211,2
197,214,2,306,2
247,59,2,383,2
37,9,2,121,2
16,126,2,377,2
324,75,2,403,2
29,88,2,136,2
10,17,2,424,2
162,292,2,116,2
28,114,2,0,2
327,29,2,173,2
133,303,2,323,2
288,259,2,172,2
18,202,2,560,2
36,24,2,272,2
31,77,2,374,2
75,138,2,12,2
112,103,1,129,2
45,165,2,199,2
38,14,2,142,2
41,34,2,168,2
122,133,2,10,2
16,27,3,561,2
156,81,2,254,2
30,149,2,92,2
96,88,2,31,2
45,173,2,207,2
84,288,2,435,2
122,27,2,113,2
90,162,2,388,2
145,157,2,76,2
353,545,2,196,2
9,130,2,381,2
350,164,2,430,2
277,486,2,62,2
419,82,2,133,2
160,285,2,92,2
353,32,2,423,2
2,122,2,168,2
32,51,2,28,2
44,141,2,212,2
116,111,2,261,2
105,57,2,444,2
200,120,2,240,2
156,259,2,381,2
431,140,4,188,2
521,93,1,413,2
260,531,1,191,2
135,337,2,1023,2
75,103,1,322,2
7,27,3,960,2
142,87,3,1001,2
36,170,1,0,2
54,30,3,1023,2
33,131,1,437,2
141,61,2,333,2
72,25,2,635,2
78,29,1,160,2
46,6,2,600,2
10,90,2,880,2
176,47,2,87,2
17,155,1,1023,2
80,220,237,991,2
101,289,78,429,2
573,326,5,1017,2
19,75,1,226,2
630,612,1,374,2
79,353,2,618,2
452,620,2,100,2
32,43,2,588,2
39,183,2,463,2
179,120,2,121,2
3,61,2,123,2
51,74,2,39,2
5,65,3,234,2
29,31,2,163,3
11,140,4,101,3
110,33,4,667,3
137,325,1,273,3
125,175,1,537,3
8,93,2,907,3
204,219,3,116,3
320,431,1,718,3
118,198,1,498,3
137,97,2,457,3
291,201,4,1023,3
134,23,1,171,3
25,144,2,919,3
138,110,2,878,3
420,480,1,91,3
61,67,2,669,3
388,461,1,382,3
113,159,2,208,3
122,79,2,383,3
63,129,2,3,3
11,18,2,189,3
42,10,2,347,3
246,165,4,48,3
20,14,2,34,3
244,526,1,248,3
5,46,1,25,3
58,158,2,96,3
247,320,4,192,3
311,395,1,27,3
48,42,2,316,3
29,99,2,167,3
389,247,2,827,3
254,253,2,278,3
29,134,2,755,3
120,34,2,826,3
45,238,2,167,3
1,15,2,482,3
18,172,2,535,3
138,184,2,97,3
55,19,2,341,3
78,181,2,263,3
216,174,2,0,3
179,174,2,190,3
233,422,2,84,3
58,61,2,73,3
171,309,2,287,3
63,8,3,917,3
91,146,2,507,3
0,81,2,366,3
24,143,583,1023,3
39,11,273,667,3
150,227,57,184,3
142,344,4,422,3
174,205,1,195,3
97,92,2,0,3
366,535,2,35,3
12,29,2,0,3
35,25,2,92,3
85,297,2,144,3
324,327,2,38,3
321,538,2,13,3
78,119,2,1,3
118,166,2,4,3
108,216,2,10,3
54,82,2,79,3
168,222,2,34,3
42,132,2,123,3
6,224,2,440,3
23,282,2,26,3
167,27,3,596,3
89,11,2,595,3
163,169,2,37,3
160,163,2,85,3
184,168,2,107,3
41,97,2,159,3
104,146,2,194,3
48,67,2,0,3
222,216,2,0,3
118,77,2,146,3
165,220,2,35,3
57,63,2,15,3
172,203,2,0,3
5,57,2,63,3
59,10,2,278,3
132,66,2,151,3
109,243,2,91,3
72,65,2,205,3
118,112,2,368,3
108,283,2,44,3
107,37,2,205,3
166,225,2,9,3
54,62,2,141,3
73,68,2,105,3
44,113,2,124,3
161,183,2,85,3
77,103,2,146,3
181,235,2,121,3
63,177,2,31,3
140,180,2,78,3
229,265,2,137,3
2,47,2,73,3
173,250,2,164,3
179,254,2,191,3
127,143,2,254,3
106,130,2,0,3
59,131,2,411,3
40,77,3,425,3
164,200,2,130,3
82,18,2,241,3
20,73,2,118,3
17,10,2,11,3
73,74,2,19,3
27,28,2,65,3
111,95,2,95,3
172,152,2,69,3
2,38,2,493,3
217,417,2,82,3
58,203,2,37,3
201,280,2,93,3
113,171,3,657,3
142,365,2,408,3
96,167,2,108,3
53,372,2,91,3
74,178,1,44,3
349,183,2,45,3
109,172,2,337,3
103,112,2,63,3
99,36,2,128,3
31,7,2,10,3
51,76,2,94,3
170,92,2,407,3
164,201,2,478,3
24,70,2,396,3
267,220,3,756,3
1,159,3,1023,3
194,270,1,348,3
144,163,2,81,3
232,210,2,489,3
23,230,2,235,3
79,171,2,325,3
257,172,2,19,3
85,213,2,490,3
38,53,2,236,3
163,412,1,262,3
17,205,2,107,3
103,38,2,516,3
276,302,2,174,3
111,63,2,498,3
62,11,2,94,3
52,262,3,620,3
483,109,2,125,3
313,223,2,406,3
18,249,2,254,3
493,462,2,32,3
157,166,2,9,3
428,446,2,165,3
40,56,2,560,3
32,20,2,727,3
227,74,2,212,3
55,179,2,666,3
194,78,2,1,3
354,350,2,174,3
181,118,2,467,3
205,100,2,0,3
234,84,3,684,3
262,222,1,34,3
759,433,2,120,3
257,8,2,369,3
574,291,2,77,3
122,61,2,62,3
62,280,2,300,3
84,22,2,576,3
402,31,2,565,3
117,42,2,723,3
87,124,1,20,3
34,34,583,1023,3
170,64,286,564,3
108,20,65,55,3
93,109,6,601,3
189,93,1,854,3
423,193,2,67,3
183,32,3,593,3
53,129,2,588,3
466,387,2,500,3
91,52,2,521,3
220,195,2,215,3
169,402,2,453,3
27,293,2,221,3
84,63,2,723,3
76,81,2,311,3
65,459,2,404,3
50,424,2,243,3
91,184,2,573,3
364,148,2,371,3
197,147,2,748,3
44,243,2,278,3
41,73,2,230,3
76,145,2,161,3
144,190,2,53,3
659,365,2,604,3
120,255,2,93,3
134,158,2,723,3
325,197,2,818,3
79,213,2,339,3
2,61,3,394,3
283,285,2,56,3
234,179,2,0,3
111,270,2,249,3
417,265,2,137,3
480,67,2,273,3
221,279,2,0,3
433,325,2,536,3
393,130,2,41,3
185,217,2,587,3
261,276,2,676,3
292,200,2,268,3
31,402,2,235,3
439,235,2,187,3
209,614,2,114,3
424,472,2,445,3
389,733,4,92,3
623,732,1,184,3
184,294,266,0,3
208,112,90,260,3
276,168,11,597,3
603,710,1,639,3
160,135,2,380,3
11,268,2,209,3
12,86,2,0,3
28,121,2,278,3
55,92,2,146,3
110,114,2,341,3
64,60,2,141,3
198,61,2,293,3
79,335,2,346,3
113,243,2,467,3
134,301,2,387,3
607,1023,5,127,3
362,734,1,650,3
125,185,106,204,3
512,681,21,919,3
387,359,1,560,3
110,136,1,313,3
93,197,1,395,3
310,257,2,320,3
9,183,2,740,3
15,317,2,247,3
41,87,2,59,3
417,101,2,45,3
158,318,2,0,3
385,193,2,356,3
191,212,2,692,3
303,341,1,776,3
110,680,2,824,3
236,185,1,197,3
195,231,2,201,3
321,217,2,217,3
161,173,2,309,3
388,322,1,184,3
357,245,2,341,3
299,299,2,112,3
117,21,3,832,3
207,301,2,545,3
424,11,2,551,3
129,368,1,344,3
423,95,2,435,3
273,245,2,793,3
293,387,2,718,3
348,558,1,482,3
466,509,1,128,3
307,282,3,807,3
82,327,2,135,3
202,159,2,21,3
169,227,3,788,3
31,53,3,1023,3
371,150,1,249,3
145,43,2,615,3
197,79,2,693,3
14,11,1,383,3
23,228,2,107,3
206,11,2,333,3
341,289,2,581,3
299,470,2,45,3
538,317,2,404,3
21,320,256,1023,3
419,484,115,372,3
92,97,17,383,3
4,302,1,243,3
137,428,1,58,3
396,49,2,472,3
119,14,2,133,3
102,180,2,302,3
123,14,2,0,3
66,28,2,55,3
156,27,2,424,3
167,47,3,444,3
20,89,3,792,3
111,43,2,39,3
737,279,2,930,3
91,52,2,13,3
599,399,3,1003,3
55,73,1,33,3
560,590,2,184,3
77,96,2,302,3
323,391,2,514,3
48,44,2,78,3
197,223,2,362,3
30,114,2,402,3
161,236,2,484,3
112,121,2,489,3
266,77,2,277,3
163,8,2,321,3
83,117,2,0,3
103,657,2,253,3
287,925,2,136,3
623,862,167,240,3
711,457,121,408,3
290,97,17,328,3
444,61,1,14,3
258,129,2,617,3
11,42,2,398,3
108,11,2,43,3
598,102,3,664,3
9,65,2,44,3
263,74,2,218,3
67,279,2,234,3
258,172,2,508,3
756,968,2,25,3
204,259,217,1023,3
321,259,71,206,3
30,115,8,840,3
192,130,1,320,3
128,45,2,921,3
117,21,2,161,3
153,93,2,766,3
210,50,2,174,3
687,427,2,532,3
21,92,2,239,3
377,255,2,469,3
171,26,2,202,3
229,101,2,344,3
79,7,11,1023,3
137,203,250,617,3
347,17,70,953,3
509,269,7,646,3
56,268,1,250,3
479,342,2,29,3
90,52,2,287,3
178,45,2,378,3
388,402,2,647,3
79,216,2,428,3
66,119,2,148,3
288,119,2,12,3
98,123,3,931,3
72,20,2,404,3
193,415,2,75,3
27,274,2,511,3
692,22,2,106,3
198,282,2,190,3
67,327,2,224,3
1,192,2,66,3
235,99,2,458,3
131,310,2,0,3
2,75,2,265,3
368,296,2,498,3
203,70,2,533,3
82,92,3,699,3
147,9,2,499,3
252,213,1,213,3
31,77,2,181,3
110,8,2,17,3
69,154,2,1023,3
81,147,2,14,3
98,31,3,773,3
200,410,2,203,3
31,42,2,150,3
261,315,2,284,3
55,116,2,161,3
7,7,2,362,3
70,95,2,171,3
236,194,2,363,3
64,21,2,17,3
58,146,3,705,3
77,97,2,523,3
2,31,2,57,3
188,73,2,421,3
188,162,2,9,3
55,29,2,166,3
135,111,2,0,3
17,105,2,92,3
159,340,2,87,3
242,407,1,245,3
330,467,1,138,3
5,45,2,49,3
146,255,1,94,3
133,62,2,254,3
119,113,2,178,3
35,11,2,495,3
192,39,2,912,3
219,156,1,238,3
283,37,3,821,3
61,94,2,437,3
19,49,2,270,3
140,121,2,398,3
22,82,2,3,3
79,133,2,215,3
181,59,2,323,3
39,29,2,76,3
261,145,2,72,3
247,43,2,150,3
125,471,2,67,3
362,293,2,40,3
49,174,2,18,3
86,126,2,182,3
31,94,2,593,3
144,113,2,50,3
126,212,2,509,3
56,46,2,235,3
134,66,2,91,3
166,56,2,83,3
158,107,2,24,3
110,92,2,54,3
94,84,2,367,3
196,285,2,422,3
114,222,2,229,3
1,158,3,655,3
43,190,2,468,3
2,163,2,144,3
115,267,2,422,3
3,22,2,825,3
198,248,2,228,3
70,28,2,404,3
0,109,2,223,3
96,86,2,269,3
193,137,2,151,3
206,31,2,182,3
208,365,2,40,3
26,17,2,145,3
10,109,2,253,3
10,76,2,85,3
116,269,2,543,3
181,167,1,315,3
184,13,2,238,3
279,816,1,339,3
268,142,2,23,3
154,142,2,203,3
20,146,2,235,3
176,350,2,67,3
5,73,2,175,3
264,29,2,515,3
145,75,2,9,3
47,31,2,132,3
106,6,2,27,3
123,161,2,226,3
26,17,2,428,3
28,101,2,228,3
156,381,3,108,3
110,83,3,669,3
167,735,1,349,3
72,17,2,42,3
2,56,2,30,3
45,90,2,194,3
132,52,2,68,3
434,458,2,96,3
123,208,2,460,3
74,114,2,592,3
133,305,1,8,3
87,39,2,131,3
0,82,2,240,3
197,84,2,82,3
154,94,2,292,3
5,90,3,628,3
26,17,2,843,3
56,84,2,104,3
87,21,3,672,3
815,1023,1,209,3
270,347,1,64,3
190,22,2,667,3
75,59,2,384,3
125,94,2,530,3
210,111,2,432,3
77,59,2,150,3
177,17,2,89,3
97,109,2,437,3
48,51,2,420,3
65,78,3,463,3
264,235,2,593,3
35,50,2,54,3
207,138,2,302,3
314,436,2,638,3
96,199,2,157,3
392,143,3,736,3
50,151,2,337,3
72,125,2,67,3
28,132,2,739,3
109,243,2,453,3
91,142,2,372,3
161,306,2,300,3
53,29,2,16,3
64,126,2,236,3
111,126,2,398,3
99,115,2,4,3
1,86,3,274,3
206,202,2,347,3
102,120,2,23,3
79,267,2,549,3
432,456,4,275,3
202,402,1,425,3
477,646,1,305,3
63,11,2,185,3
229,352,2,929,3
47,65,2,224,3
98,19,3,855,3
218,293,2,767,3
4,72,2,253,3
40,164,2,573,3
59,115,2,179,3
36,159,2,123,3
24,44,2,12,3
165,125,2,236,3
82,20,2,5,3
116,361,2,125,3
116,149,2,88,3
335,524,2,0,3
70,91,2,147,3
62,179,2,71,3
168,191,2,16,3
141,185,1,95,3
20,24,2,0,3
28,34,2,149,3
47,94,2,0,3
144,33,2,129,3
70,109,2,51,3
137,158,2,14,3
36,111,2,134,3
15,20,2,63,3
72,88,2,19,3
93,125,2,220,3
489,482,2,242,3
256,427,2,158,3
478,737,2,241,3
130,306,2,14,3
120,206,2,132,3
13,46,2,157,3
0,37,2,66,3
61,30,2,260,3
152,246,2,189,3
64,40,2,83,3
37,129,2,93,3
82,126,2,203,3
93,81,2,97,3
169,203,2,8,3
49,125,2,16,3
298,294,2,107,3
372,419,2,187,3
98,11,2,9,3
225,73,3,514,3
41,65,2,272,3
42,131,2,4,3
89,275,2,164,3
67,48,2,263,3
27,25,2,36,3
32,63,2,192,3
111,128,2,90,3
72,7,2,198,3
31,20,2,210,3
108,117,2,150,3
3,32,2,24,3
43,55,2,184,3
170,243,2,323,3
14,16,2,125,3
289,298,2,343,3
140,209,2,113,3
88,273,2,223,3
193,126,2,204,3
1,19,2,48,3
35,106,2,29,3
37,50,2,277,3
126,118,2,222,3
48,145,2,0,3
27,37,2,178,3
87,82,2,161,3
106,102,2,129,3
98,171,2,0,3
20,76,2,330,3
49,102,2,58,3
183,192,2,430,3
35,120,2,109,3
209,109,2,75,3
68,67,2,0,3
117,219,2,81,3
218,238,2,197,3
159,195,2,207,3
83,6,2,41,3
29,46,2,73,3
76,112,2,7,3
119,158,2,41,3
20,56,2,119,3
28,59,2,159,3
119,69,2,184,3
28,34,2,17,3
81,9,3,151,3
149,114,2,265,3
53,9,2,176,3
108,75,2,15,3
81,184,2,517,3
339,290,2,485,3
466,658,2,42,3
420,486,2,275,3
355,139,2,129,3
22,198,2,248,3
434,260,2,144,3
39,63,2,38,3
311,184,2,345,3
33,57,2,167,3
142,91,3,909,3
232,213,3,913,3
158,74,2,287,3
130,130,2,536,3
189,305,2,732,3
85,52,2,386,3
406,402,2,4,3
12,82,2,262,3
379,224,2,276,3
55,105,2,350,3
131,17,2,127,3
115,79,2,365,3
298,215,2,472,3
59,236,2,699,3
223,160,2,1,3
56,86,2,473,3
12,40,2,72,3
88,69,2,287,3
175,212,2,370,3
392,291,2,486,3
110,179,2,871,3
39,254,1,11,3
525,366,2,541,3
228,568,1,648,3
115,95,2,461,3
197,556,3,586,3
214,95,3,1006,3
81,157,2,355,3
296,10,2,222,3
78,303,467,1023,3
149,85,393,216,3
45,235,85,1003,3
201,309,32,1023,3
619,90,4,83,3
197,260,1,254,3
37,98,2,298,3
59,264,2,503,3
313,372,2,89,3
122,185,2,185,3
121,249,2,406,3
294,212,2,238,3
311,24,2,22,3
311,637,2,286,3
109,129,2,826,3
7,263,2,35,3
181,254,3,571,3
831,1023,2,687,3
1023,389,2,104,3
153,436,3,650,3
484,294,2,358,3
425,76,2,626,3
86,470,2,31,3
288,11,2,776,3
18,409,2,11,3
215,785,2,517,3
392,147,113,26,3
67,674,28,220,3
639,664,111,51,3
210,285,23,1023,3
470,176,26,542,3
140,293,2,484,3
47,144,2,696,3
129,225,2,397,3
208,391,2,834,3
202,351,2,127,3
246,225,2,668,3
68,21,2,895,3
142,145,2,674,3
39,91,3,752,3
157,231,113,1023,3
228,380,15,474,3
656,627,1,127,3
188,341,40,64,3
1023,1023,100,0,3
141,240,571,343,3
29,58,132,11,3
62,262,18,597,3
628,725,1,369,3
133,131,2,311,3
120,59,3,490,3
649,426,2,125,3
128,279,3,868,3
872,334,3,763,3
65,190,2,744,3
666,478,2,336,3
120,147,2,7,3
193,170,2,262,3
20,13,2,75,3
553,817,4,813,3
205,299,2,183,3
657,920,3,119,3
98,53,1,137,3
12,78,2,482,3
59,912,2,159,3
214,57,2,549,3
141,238,2,806,3
257,54,2,371,3
69,125,2,457,3
120,47,3,657,3
349,32,2,412,3
276,546,3,746,3
62,606,2,449,3
84,355,571,1023,3
153,621,368,51,3
127,59,82,1023,3
326,147,241,613,3
836,474,57,935,3
245,990,5,344,3
425,291,134,586,3
167,379,47,510,3
402,325,4,299,3
648,390,1,747,3
374,370,2,126,3
15,127,2,284,3
175,261,2,57,3
296,211,2,300,3
135,187,2,304,3
139,210,2,417,3
22,139,2,96,3
44,53,2,279,3
17,41,2,157,3
256,28,2,539,3
44,83,2,0,3
43,803,2,228,3
682,659,2,12,3
13,375,1,91,3
522,814,2,333,3
744,542,2,724,3
636,594,1,66,3
197,284,2,115,3
116,119,2,355,3
658,329,3,309,3
579,380,2,334,3
215,185,2,23,3
35,164,2,443,3
411,329,2,224,3
273,364,2,122,3
269,306,2,98,3
765,977,3,371,3
637,1023,2,292,3
212,290,461,0,3
713,574,112,118,3
495,277,14,11,3
389,222,1,184,3
32,137,2,396,3
203,9,3,425,3
273,11,3,269,3
132,40,2,283,3
271,276,2,119,3
175,76,2,28,3
19,58,2,46,3
114,129,2,68,3
441,791,3,606,3
98,83,2,172,3
338,262,2,758,3
31,261,2,550,3
454,1023,2,377,3
55,177,106,666,3
831,699,26,440,3
195,498,1,279,3
293,323,1,113,3
508,97,2,650,3
600,220,2,242,3
193,11,8,1023,3
189,291,263,548,3
306,22,63,545,3
123,158,5,641,3
400,80,1,195,3
227,26,2,397,3
237,302,2,319,3
583,464,2,138,3
140,152,2,72,3
814,872,2,391,3
76,40,3,28,3
1014,1023,582,718,3
264,447,342,466,3
107,167,74,1023,3
756,622,115,522,3
474,186,21,17,3
276,85,1,342,3
678,186,2,414,3
462,275,3,839,3
353,320,2,242,3
106,7,3,1023,3
19,388,103,408,3
21,176,17,778,3
228,105,1,396,3
226,119,2,410,3
18,427,2,913,3
118,8,2,593,3
234,20,3,693,3
158,242,2,463,3
229,213,2,50,3
99,88,2,333,3
279,19,2,612,3
6,275,2,302,3
356,145,2,498,3
60,82,2,324,3
388,6,2,8,3
70,7,2,453,3
382,127,2,89,3
46,208,2,452,3
780,374,2,243,3
290,43,2,31,3
186,104,3,550,3
142,150,2,259,3
226,356,2,330,3
513,534,2,643,3
5,395,2,241,3
1000,730,2,488,3
406,114,1,890,3
454,435,2,622,3
174,145,216,1023,3
151,75,84,495,3
482,59,11,592,3
237,85,1,550,3
99,194,3,881,3
284,166,2,556,3
81,33,2,123,3
86,92,2,855,3
553,342,402,1023,3
515,67,156,194,3
656,858,23,1023,3
118,267,1,820,3
5,139,1,236,3
476,678,2,176,3
528,389,2,829,3
30,107,2,422,3
241,229,2,820,3
611,112,2,56,3
317,35,546,1023,3
677,203,414,895,3
174,20,100,56,3
53,11,12,6,3
161,169,1,529,3
13,113,2,298,3
199,183,2,45,3
297,333,2,28,3
33,221,2,551,3
141,52,2,401,3
213,703,2,188,3
50,138,2,232,3
55,100,2,132,3
85,98,2,48,3
51,22,2,216,3
116,117,3,148,3
192,31,3,683,3
34,81,2,215,3
31,36,2,103,3
38,18,2,585,3
40,54,2,111,3
252,226,2,301,3
40,131,2,188,3
204,160,2,98,3
51,245,2,73,3
215,233,2,69,3
272,568,2,663,3
4,12,2,309,3
241,631,2,589,3
104,280,2,182,3
101,269,2,64,3
16,257,2,345,3
108,77,2,0,3
23,180,2,795,3
203,119,1,195,3
97,66,3,1023,3
85,78,115,364,3
38,18,24,124,3
229,135,1,735,3
35,115,1,72,3
98,28,2,176,3
194,226,2,245,3
86,100,2,117,3
303,477,3,740,3
85,18,2,365,3
122,57,2,475,3
244,55,2,979,3
66,532,1,52,3
99,163,3,651,3
103,30,2,308,3
80,18,2,161,3
23,104,2,354,3
91,119,2,41,3
172,188,2,173,3
33,103,2,193,3
80,114,2,372,3
152,130,2,283,3
15,159,2,412,3
242,546,2,103,3
165,284,2,7,3
114,322,2,172,3
522,521,2,397,3
21,204,2,147,3
415,795,2,113,3
18,189,2,3,3
34,233,2,538,3
180,57,2,648,3
42,73,3,634,3
45,85,2,534,3
89,39,2,724,3
70,104,2,37,3
178,182,3,581,3
38,51,2,19,3
96,149,2,867,3
398,674,2,847,3
109,249,2,626,3
408,1023,2,698,3
161,73,31,142,3
243,464,2,646,3
12,121,1,648,3
90,77,3,874,3
51,49,3,928,3
47,28,2,6,3
119,111,2,688,3
162,161,2,463,3
124,57,2,301,3
98,140,2,89,3
9,27,2,130,3
133,123,2,447,3
59,259,2,590,3
233,167,2,237,3
55,183,3,876,3
199,349,1,568,3
13,179,2,36,3
42,118,2,465,3
39,13,1,547,3
193,295,2,107,3
41,31,2,47,3
87,179,2,107,3
104,69,2,205,3
76,61,2,63,3
25,66,2,171,3
42,24,2,1,3
111,155,2,300,3
190,201,2,200,3
98,106,2,87,3
73,122,2,98,3
98,332,2,49,3
142,232,2,17,3
441,374,2,91,3
13,41,2,24,3
286,571,2,76,3
108,219,2,208,3
0,15,2,401,3
55,57,2,554,3
89,20,2,172,3
55,25,2,501,3
110,143,2,446,3
25,11,1,117,3
38,104,2,268,3
125,201,2,28,3
160,180,3,739,3
76,15,2,680,3
195,93,2,38,3
216,123,2,239,3
71,228,2,294,3
390,893,2,366,3
165,561,1,187,3
373,837,221,0,3
135,226,102,776,3
163,240,13,859,3
208,250,1,87,3
96,23,3,1005,3
25,20,2,103,3
171,92,2,405,3
49,148,2,68,3
159,237,2,454,3
26,69,3,625,3
48,21,2,112,3
99,265,2,829,3
125,354,2,623,3
338,864,1,303,3
231,465,2,384,3
53,87,2,0,3
534,910,2,251,3
144,291,39,554,3
1023,1023,551,223,3
44,150,265,446,3
308,414,52,127,3
38,38,4,619,3
13,132,1,791,3
0,5,2,2,3
62,24,3,774,3
37,93,3,850,3
132,100,2,68,3
147,268,2,543,3
67,432,2,332,3
274,379,3,462,3
375,691,2,532,3
61,187,2,70,3
82,185,2,259,3
440,528,2,152,3
1,137,2,231,3
542,933,2,156,3
3,244,1,39,3
73,112,2,50,3
148,50,2,102,3
99,161,2,113,3
99,156,2,0,3
77,49,2,85,3
4,13,2,45,3
134,199,2,4,3
0,37,2,255,3
193,426,2,188,3
91,169,2,192,3
515,918,2,292,3
151,38,2,21,3
267,616,2,118,3
121,99,2,10,3
503,828,2,96,3
18,43,2,3,3
246,297,2,73,3
106,15,2,15,3
200,193,2,65,3
88,86,2,6,3
13,33,2,14,3
134,137,2,79,3
44,61,2,0,3
90,237,2,0,3
142,149,2,25,3
143,163,2,25,3
374,536,2,4,3
32,34,2,12,3
537,839,1,14,3
422,736,2,44,3
40,6,2,54,3
510,727,2,70,3
9,88,2,33,3
135,177,2,8,3
2,6,2,0,3
56,10,2,3,3
223,267,2,17,3
30,26,2,11,3
114,118,2,22,3
94,114,2,5,3
80,112,2,0,3
51,67,2,171,3
48,216,2,47,3
49,210,2,6,3
156,317,2,72,3
30,49,2,27,3
170,318,2,267,3
3,93,2,31,3
53,22,2,170,3
25,204,2,5,3
11,11,2,51,3
155,280,2,0,3
225,216,2,53,3
59,192,2,50,3
17,10,2,39,3
23,34,2,37,3
155,205,2,134,3
94,139,2,172,3
157,36,2,196,3
237,51,2,178,3
210,280,2,248,3
181,500,2,1,3
133,306,2,96,3
96,191,2,18,3
90,121,2,0,3
25,51,2,61,3
240,326,2,7,3
19,20,2,114,3
292,488,1,185,3
113,87,2,4,3
44,77,2,139,3
131,109,2,25,3
83,105,2,174,3
232,386,2,30,3
15,27,2,38,3
298,394,2,105,3
188,138,2,105,3
163,191,2,41,3
7,31,2,179,3
243,285,2,30,3
24,31,2,7,3
299,314,2,77,3
143,108,2,23,3
203,348,2,207,3
103,164,2,316,3
172,316,2,157,3
84,76,3,576,3
10,27,2,271,3
49,104,1,307,3
207,299,2,583,3
147,324,2,85,3
283,235,2,274,3
41,307,2,334,3
70,206,2,14,3
56,7,2,190,3
2,184,1,242,3
183,286,2,33,3
190,556,2,217,3
412,557,2,249,3
143,284,2,78,3
57,211,2,39,3
29,103,2,63,3
16,35,2,102,3
0,138,2,88,3
55,23,2,90,3
108,51,2,343,3
177,218,2,190,3
27,33,2,36,3
233,74,2,94,3
168,73,2,20,3
61,109,2,105,3
183,123,2,82,3
43,29,2,119,3
88,142,61,1023,3
84,139,197,551,3
17,134,42,690,3
4,135,3,547,3
620,152,1,407,3
428,57,2,38,3
235,30,2,54,3
46,45,2,172,3
66,65,2,111,3
108,95,2,106,3
276,6,2,383,3
103,198,2,6,3
19,246,3,674,3
24,53,2,381,3
364,664,2,657,3
287,472,2,469,3
361,296,2,78,3
566,333,2,0,3
237,33,2,391,3
127,143,2,282,3
271,41,2,462,3
176,52,2,481,3
167,132,2,179,3
419,134,2,51,3
199,13,2,829,3
14,16,2,364,3
175,162,596,1023,3
20,196,410,629,3
340,29,132,342,3
5,30,19,557,3
98,278,1,295,3
384,685,2,233,3
274,289,2,391,3
316,500,3,964,3
349,248,1,432,3
62,254,19,1023,3
297,206,241,310,3
225,287,57,430,3
354,298,7,740,3
142,109,1,345,3
5,191,3,963,3
34,118,2,637,3
671,339,2,563,3
311,1012,2,104,3
774,573,2,100,3
26,362,2,0,3
347,564,3,773,3
107,144,2,232,3
213,900,2,590,3
356,1023,523,388,3
698,711,181,177,3
121,32,36,216,3
424,517,1,374,3
109,369,1,56,3
159,73,3,869,3
64,24,2,174,3
291,161,2,113,3
284,25,2,125,3
173,43,3,362,3
123,60,2,651,3
319,96,2,258,3
261,512,3,784,3
116,389,102,376,3
429,684,80,139,3
806,1023,431,26,3
296,209,218,180,3
63,291,40,144,3
135,12,2,279,3
739,843,2,228,3
311,520,2,517,3
141,72,3,607,3
109,145,2,0,3
529,140,3,430,3
127,239,2,558,3
126,207,2,452,3
44,31,2,402,3
46,454,2,555,3
357,585,2,279,3
524,753,2,24,3
396,985,57,899,3
810,1012,58,74,3
113,314,102,506,3
54,65,15,392,3
732,610,0,245,3
354,213,2,470,3
442,258,2,483,3
63,128,3,1016,3
15,196,2,540,3
44,103,2,489,3
36,54,2,173,3
8,70,2,67,3
66,159,2,260,3
38,18,2,670,3
393,586,2,170,3
50,12,2,414,3
636,842,2,537,3
257,272,2,301,3
220,150,2,545,3
82,227,2,442,3
218,23,135,643,3
37,230,72,500,3
171,211,8,202,3
404,297,1,345,3
101,186,2,277,3
107,137,2,10,3
254,35,2,18,3
217,38,3,709,3
410,351,2,140,3
543,334,2,850,3
768,1023,329,352,3
548,437,76,612,3
564,988,12,127,3
1023,708,181,75,3
696,636,210,494,3
559,859,44,1023,3
201,600,221,25,3
16,403,49,513,3
303,429,3,351,3
697,907,5,547,3
940,397,0,700,3
844,566,1,6,3
318,133,591,1023,3
36,31,119,2,3
167,237,19,228,3
114,51,1,314,3
475,462,2,306,3
497,391,132,141,3
44,350,61,579,3
1023,1023,419,366,3
402,561,204,3,3
557,769,33,693,3
299,275,65,73,3
369,83,5,481,3
8,132,4,328,3
162,135,1,142,3
329,40,2,514,3
277,531,2,306,3
175,52,3,328,3
381,21,3,996,3
274,134,30,391,3
102,409,0,957,3
645,190,2,44,3
249,589,1,146,3
73,291,2,83,3
11,886,63,191,3
339,1023,491,57,3
167,235,99,238,3
191,461,16,436,3
126,253,74,311,3
181,34,56,270,3
58,290,4,12,3
105,161,1,268,3
98,109,2,160,3
209,98,2,593,3
54,93,3,817,3
128,244,1,989,3
357,310,108,373,3
493,406,22,24,3
854,1023,530,7,3
249,1012,72,187,3
855,882,10,518,3
115,81,147,184,3
229,83,321,124,3
860,1023,245,72,3
340,569,171,517,3
152,85,113,201,3
151,68,125,169,3
373,71,29,204,3
446,186,34,42,3
99,125,2,461,3
700,260,1,614,3
277,228,2,195,3
331,231,2,373,3
98,31,2,554,3
254,115,2,23,3
160,873,2,566,3
732,876,424,643,3
851,1016,117,560,3
177,315,133,46,3
171,432,15,207,3
117,516,213,541,3
1023,961,27,27,3
418,267,2,202,3
441,227,1,519,3
41,99,2,476,3
247,193,2,208,3
454,196,2,294,3
192,74,2,526,3
376,111,60,180,3
55,100,77,921,3
17,94,10,170,3
59,338,1,335,3
753,880,258,490,3
407,196,110,89,3
89,519,19,307,3
851,1023,270,227,3
254,25,67,770,3
9,219,7,1023,3
75,214,1,452,3
497,277,1,239,3
266,104,3,1023,3
224,345,49,294,3
250,52,8,550,3
38,72,1,401,3
234,88,2,818,3
215,174,2,591,3
17,7,3,622,3
115,129,2,114,3
266,1023,2,595,3
15,811,63,79,3
312,470,105,331,3
342,170,27,225,3
1023,713,187,283,3
625,662,11,515,3
295,201,1,73,3
159,153,2,350,3
68,136,2,470,3
43,103,2,374,3
202,55,2,213,3
34,88,2,27,3
122,193,2,106,3
89,246,2,55,3
166,130,2,93,3
30,63,2,14,3
292,154,2,78,3
321,948,2,27,3
407,699,4,0,3
19,217,1,47,3
352,475,1,435,3
48,210,2,303,3
412,49,2,0,3
85,77,2,303,3
246,166,2,285,3
238,215,2,34,3
71,218,2,113,3
195,66,2,265,3
197,36,2,287,3
231,88,2,231,3
823,374,2,165,3
237,198,2,0,3
8,67,2,39,3
322,72,2,490,3
195,513,2,399,3
258,38,2,384,3
126,512,1,197,3
334,458,2,643,3
165,6,2,214,3
122,225,3,920,3
68,119,2,354,3
24,74,2,173,3
119,133,2,289,3
101,81,2,447,3
20,161,2,217,3
367,164,3,258,3
233,25,2,428,3
437,281,2,39,3
243,16,3,725,3
237,54,2,377,3
21,232,2,369,3
198,100,2,322,3
33,176,2,106,3
99,149,2,287,3
44,66,2,329,3
27,43,2,212,3
24,105,2,325,3
13,13,2,842,3
163,442,1,279,3
51,75,2,262,3
41,100,2,82,3
46,9,2,105,3
153,99,2,162,3
2,42,2,766,3
39,65,2,333,3
1,131,3,731,3
37,125,2,390,3
128,132,2,51,3
243,232,2,28,3
262,184,2,292,3
35,45,2,137,3
223,305,2,71,3
157,302,2,301,3
88,108,2,359,3
104,29,2,78,3
146,215,3,531,3
32,10,2,153,3
24,39,2,492,3
98,53,2,567,3
248,135,2,2,3
230,17,2,427,3
159,212,3,679,3
50,50,2,273,3
55,174,2,341,3
192,437,2,467,3
76,104,2,532,3
154,103,2,218,3
56,157,3,754,3
174,159,2,126,3
11,22,2,573,3
1,6,2,8,3
133,17,2,528,3
267,136,2,139,3
152,81,2,178,3
35,41,2,118,3
111,38,2,253,3
103,93,2,406,3
98,519,2,146,3
104,485,2,69,3
142,168,2,49,3
94,120,2,196,3
37,95,2,63,3
190,98,2,137,3
86,130,2,89,3
170,97,2,239,3
161,176,2,134,3
62,59,2,63,3
86,51,3,448,3
22,45,2,113,3
209,84,2,788,3
202,376,1,548,3
214,300,2,177,3
172,161,2,468,3
100,7,2,378,3
97,187,2,83,3
236,575,2,396,3
309,614,1,360,3
271,416,1,222,3
169,162,2,129,3
110,110,2,22,3
36,62,2,189,3
167,161,2,116,3
244,170,3,656,3
152,44,2,447,3
306,179,2,39,3
48,6,2,242,3
220,232,2,340,3
16,277,2,27,3
69,428,2,95,3
52,393,2,408,3
46,109,2,510,3
166,65,2,205,3
68,209,2,754,3
77,26,1,61,3
30,7,2,519,3
16,234,2,191,3
129,18,3,783,3
52,149,2,326,3
18,17,2,185,3
0,31,2,598,3
165,86,2,262,3
0,7,2,233,3
150,188,2,343,3
78,187,2,58,3
204,257,2,203,3
105,302,2,554,3
245,165,2,496,3
100,165,2,54,3
279,58,2,654,3
156,28,2,300,3
5,7,2,449,3
242,267,2,809,3
70,136,2,123,3
16,11,3,694,3
9,98,3,752,3
16,11,2,147,3
31,39,2,1023,3
200,531,24,744,3
144,443,3,577,3
161,425,1,922,3
122,208,1,285,3
6,78,2,77,4
354,661,2,346,4
283,87,2,397,4
350,637,2,25,4
113,64,2,32,4
6,85,2,572,4
3,113,61,1023,4
77,147,97,218,4
152,174,11,1023,4
38,59,252,1023,4
9,149,266,352,4
26,15,50,260,4
112,155,3,613,4
176,483,1,29,4
77,376,3,439,4
530,657,2,269,4
149,582,2,217,4
508,798,2,392,4
202,422,2,313,4
339,572,2,321,4
14,41,2,82,4
311,365,2,17,4
69,111,2,335,4
7,52,2,220,4
67,135,2,99,4
28,68,2,222,4
101,71,2,429,4
280,319,3,954,4
40,135,35,1023,4
48,14,46,218,4
39,224,4,278,4
248,680,1,441,4
81,825,1,493,4
382,880,247,200,4
244,356,129,6,4
182,298,19,107,4
163,304,1,77,4
131,180,2,9,4
7,33,2,19,4
104,142,2,109,4
107,84,2,99,4
43,136,2,29,4
53,117,2,10,4
33,123,2,20,4
283,342,2,70,4
107,219,2,631,4
86,134,141,734,4
180,487,99,142,4
44,368,12,563,4
84,218,0,729,4
118,192,1,431,4
219,363,1,0,4
94,51,2,177,4
60,127,2,141,4
91,24,2,31,4
56,92,2,88,4
183,149,2,103,4
133,239,2,11,4
178,286,2,19,4
24,88,2,93,4
181,272,2,9,4
84,235,2,32,4
117,156,2,12,4
163,507,2,100,4
122,183,2,247,4
461,548,2,36,4
93,131,2,43,4
184,261,2,0,4
17,32,2,12,4
96,47,2,87,4
75,100,2,0,4
70,141,2,48,4
33,9,2,15,4
80,130,2,11,4
73,87,2,47,4
2,23,2,45,4
50,34,2,34,4
70,20,2,6,4
202,147,2,2,4
147,118,2,80,4
100,191,2,21,4
115,118,2,56,4
9,109,2,27,4
113,31,2,6,4
220,145,2,63,4
96,73,2,0,4
12,23,2,53,4
107,130,2,41,4
20,106,2,79,4
170,171,2,58,4
145,226,2,0,4
183,225,2,9,4
102,93,2,14,4
0,70,2,0,4
105,330,2,100,4
112,165,2,16,4
0,10,2,57,4
59,111,2,0,4
219,342,2,2,4
227,326,2,76,4
63,193,2,35,4
54,97,2,43,4
67,23,2,28,4
25,60,2,10,4
141,178,2,40,4
25,12,2,43,4
29,78,2,35,4
160,161,2,19,4
38,144,2,21,4
198,297,2,141,4
124,225,2,49,4
20,59,2,96,4
318,462,2,69,4
53,87,2,28,4
205,258,2,0,4
43,64,2,83,4
10,20,2,168,4
115,148,2,16,4
11,7,2,40,4
100,177,2,75,4
65,117,2,56,4
109,167,2,28,4
65,138,2,0,4
111,124,2,19,4
175,174,2,45,4
137,143,2,224,4
116,448,2,101,4
5,15,2,394,4
120,145,2,79,4
82,51,2,78,4
44,64,2,69,4
85,119,2,95,4
102,89,2,124,4
50,66,2,83,4
116,184,2,0,4
88,65,2,122,4
11,6,2,203,4
262,270,2,158,4
20,61,2,289,4
182,297,2,58,4
126,86,2,129,4
10,33,2,115,4
20,9,2,90,4
69,15,2,176,4
56,41,2,108,4
180,272,2,139,4
47,63,2,192,4
174,198,2,23,4
42,91,2,35,4
89,88,2,85,4
147,94,2,4,4
21,84,2,40,4
56,40,2,0,4
68,35,2,0,4
126,157,2,29,4
6,61,2,33,4
206,257,1,76,4
49,55,2,49,4
6,98,2,0,4
238,330,2,44,4
43,46,2,0,4
108,92,2,19,4
183,255,2,43,4
17,138,2,0,4
281,274,2,121,4
103,199,2,24,4
186,169,2,85,4
194,111,2,5,4
0,8,2,0,4
25,110,2,64,4
61,38,2,0,4
205,317,2,9,4
36,15,2,75,4
100,180,2,14,4
14,32,2,50,4
26,86,2,29,4
141,261,2,22,4
31,31,2,48,4
0,71,2,0,4
215,231,2,17,4
19,168,2,0,4
42,24,2,20,4
51,10,2,65,4
38,38,2,39,4
177,191,2,33,4
2,10,2,20,4
44,37,2,0,4
88,149,2,0,4
23,52,2,30,4
209,153,2,169,4
15,12,2,0,4
50,57,2,99,4
198,305,2,48,4
18,41,2,54,4
35,52,2,96,4
99,30,2,293,4
14,37,2,51,4
123,137,2,274,4
52,55,2,424,4
72,117,2,37,4
1,12,2,127,4
14,102,2,95,4
29,34,2,97,4
6,30,2,0,4
78,54,2,60,4
132,76,2,182,4
52,8,2,376,4
330,414,2,83,4
11,39,2,245,4
51,318,2,485,4
188,339,2,0,4
148,123,2,473,4
85,101,2,191,4
50,49,3,423,4
197,226,2,236,4
0,75,2,87,4
25,34,2,0,4
56,124,2,172,4
26,45,2,307,4
56,15,2,303,4
98,108,2,95,4
31,185,2,260,4
204,203,2,165,4
6,71,2,119,4
26,116,2,429,4
256,319,2,7,4
21,26,2,378,4
224,356,2,55,4
89,139,2,63,4
85,14,2,195,4
6,97,3,852,4
324,149,2,501,4
165,95,2,297,4
196,58,2,539,4
152,296,2,308,4
41,133,2,22,4
1,88,2,363,4
216,91,2,1023,4
173,139,1,417,4
229,493,2,788,4
342,361,542,1023,4
539,783,441,1016,4
77,63,164,352,4
33,126,26,558,4
66,146,1,198,4
10,86,2,182,4
69,43,2,424,4
373,150,2,815,4
49,42,2,0,4
65,168,3,833,4
206,95,3,1023,4
61,55,2,596,4
144,73,2,339,4
8,297,2,429,4
166,48,2,462,4
259,268,2,326,4
48,123,2,491,4
234,340,2,61,4
37,174,3,252,4
14,49,2,48,4
121,63,2,243,4
37,54,2,9,4
116,137,2,112,4
87,95,3,754,4
207,201,2,110,4
58,24,2,118,4
10,18,2,246,4
6,23,2,117,4
3,36,2,75,4
12,133,2,59,4
19,60,2,9,4
174,253,2,5,4
79,11,2,4,4
16,82,2,68,4
337,551,2,38,4
41,85,2,60,4
360,548,2,90,4
136,208,2,4,4
57,127,2,51,4
44,11,2,132,4
93,148,2,30,4
14,69,2,28,4
55,52,2,31,4
5,79,2,108,4
102,119,2,76,4
15,74,2,171,4
19,7,2,52,4
103,93,2,55,4
205,90,2,107,4
186,105,2,62,4
113,254,2,63,4
93,230,2,6,4
187,336,2,237,4
75,148,2,149,4
275,398,2,183,4
22,70,2,206,4
44,49,2,77,4
240,252,2,28,4
231,363,2,388,4
95,71,2,275,4
166,147,2,124,4
1,32,2,413,4
16,42,2,22,4
27,13,2,0,4
119,81,2,31,4
70,63,2,44,4
79,77,2,58,4
217,321,2,0,4
304,469,1,91,4
231,412,2,148,4
107,89,2,381,4
262,380,1,82,4
20,10,2,280,4
99,266,2,357,4
92,75,2,111,4
0,45,2,121,4
113,218,2,90,4
6,84,2,3,4
86,157,2,53,4
62,57,2,80,4
71,109,2,13,4
102,159,2,0,4
53,65,2,41,4
28,116,2,15,4
233,335,2,47,4
119,149,2,65,4
78,20,2,62,4
62,89,2,89,4
77,173,2,59,4
81,34,2,22,4
72,153,2,182,4
79,59,2,30,4
63,58,2,0,4
83,140,2,51,4
154,195,2,7,4
22,35,2,31,4
52,39,2,32,4
86,131,2,9,4
46,28,2,0,4
62,37,2,161,4
17,39,2,195,4
70,226,2,86,4
33,53,2,3,4
83,203,2,289,4
43,140,2,417,4
141,152,2,26,4
9,69,2,0,4
133,160,2,46,4
57,40,2,19,4
176,189,1,142,4
7,49,2,16,4
77,56,2,138,4
66,56,2,245,4
51,60,2,47,4
217,274,2,317,4
19,87,2,270,4
132,148,2,59,4
20,60,2,102,4
16,11,2,360,4
30,7,2,167,4
80,233,2,233,4
309,598,2,266,4
149,168,2,8,4
70,188,2,120,4
162,257,2,56,4
83,115,2,50,4
1,19,2,0,4
65,77,2,74,4
0,9,2,29,4
83,79,2,222,4
110,189,2,250,4
220,201,2,88,4
41,32,2,39,4
13,113,2,268,4
109,106,2,193,4
68,63,2,0,4
230,260,2,0,4
3,154,2,123,4
4,46,2,86,4
82,58,2,57,4
102,133,2,39,4
135,168,2,12,4
55,36,2,83,4
56,66,2,42,4
136,151,2,40,4
115,118,2,19,4
42,126,2,123,4
202,265,2,7,4
110,305,2,0,4
290,407,2,47,4
54,140,2,75,4
21,16,2,55,4
30,12,2,22,4
93,115,2,28,4
33,50,2,13,4
141,180,2,39,4
72,105,2,177,4
96,107,2,26,4
18,19,2,0,4
24,55,2,12,4
142,164,2,117,4
118,114,2,92,4
176,196,2,17,4
23,11,2,57,4
99,158,2,22,4
52,141,2,55,4
136,241,2,46,4
9,157,2,3,4
141,236,2,62,4
133,253,2,105,4
33,95,2,19,4
78,126,2,44,4
5,28,2,2,4
2,8,2,0,4
138,168,2,80,4
56,46,2,20,4
40,27,3,111,4
136,86,2,5,4
32,7,2,0,4
129,116,2,66,4
42,82,2,7,4
136,208,2,27,4
2,10,2,13,4
68,13,2,13,4
26,20,2,24,4
159,241,2,8,4
7,24,2,96,4
186,248,2,59,4
56,19,2,11,4
120,93,2,154,4
43,43,2,145,4
24,6,2,154,4
61,29,2,150,4
14,45,2,128,4
187,217,2,209,4
69,26,2,68,4
5,9,2,131,4
106,128,2,11,4
20,63,2,0,4
119,202,2,85,4
148,290,2,20,4
263,356,2,0,4
245,364,2,38,4
155,154,2,0,4
171,212,2,43,4
132,154,2,21,4
103,162,2,14,4
100,170,2,51,4
23,95,2,1,4
228,384,2,38,4
31,11,2,0,4
83,131,2,21,4
35,13,2,40,4
44,114,2,16,4
112,173,2,47,4
24,72,2,3,4
52,110,2,7,4
58,7,2,18,4
43,58,2,0,4
143,164,2,83,4
31,41,2,9,4
136,127,2,58,4
28,34,2,5,4
30,62,2,52,4
184,170,2,183,4
38,64,2,69,4
65,65,2,48,4
92,95,2,0,4
14,11,2,2,4
124,123,2,99,4
69,98,2,4,4
131,159,2,0,4
23,19,2,55,4
14,46,2,74,4
41,66,2,78,4
234,317,1,80,4
114,175,2,101,4
176,168,2,132,4
5,36,2,172,4
51,79,2,47,4
36,110,2,80,4
15,124,2,0,4
69,34,2,0,4
7,14,2,6,4
146,113,2,0,4
58,48,2,187,4
84,38,2,183,4
133,162,2,107,4
57,67,2,309,4
58,52,2,39,4
75,49,2,0,4
106,56,2,27,4
148,159,2,0,4
35,95,2,23,4
263,261,2,6,4
18,25,2,37,4
73,133,2,57,4
83,15,2,0,4
49,53,2,0,4
183,160,2,82,4
153,268,2,0,4
124,155,2,8,4
161,281,1,0,4
13,11,2,22,4
181,277,2,118,4
82,63,2,21,4
9,72,2,59,4
90,117,2,0,4
94,99,2,4,4
44,81,2,55,4
61,30,2,11,4
35,73,2,25,4
243,159,2,127,4
143,119,2,0,4
110,73,2,149,4
88,156,2,146,4
17,84,2,0,4
106,115,2,0,4
10,66,2,0,4
11,87,2,5,4
87,78,2,28,4
25,95,2,273,4
22,57,2,166,4
67,111,2,28,4
0,6,2,306,4
54,87,2,21,4
21,21,2,94,4
116,70,2,82,4
80,76,2,28,4
231,233,2,129,4
66,20,2,318,4
111,202,2,309,4
28,119,2,0,4
26,49,3,564,4
33,98,2,497,4
58,114,2,8,4
36,105,2,171,4
57,39,2,56,4
267,505,2,107,4
206,164,2,139,4
156,168,2,17,4
173,187,2,0,4
119,133,2,73,4
53,122,2,0,4
130,151,2,55,4
18,25,2,5,4
164,190,2,0,4
17,36,2,27,4
71,216,2,0,4
204,253,2,25,4
125,175,2,0,4
140,223,2,19,4
117,75,2,93,4
116,121,2,82,4
77,31,2,0,4
166,181,2,206,4
16,18,2,149,4
214,260,2,124,4
101,118,2,209,4
129,207,2,143,4
28,17,2,181,4
41,93,2,217,4
71,106,2,32,4
80,117,2,78,4
114,214,2,6,4
46,16,2,50,4
74,131,2,94,4
72,82,2,213,4
105,129,2,179,4
160,144,2,183,4
149,105,2,0,4
44,185,2,222,4
19,35,2,154,4
86,197,2,318,4
117,137,2,111,4
67,77,2,31,4
2,26,2,117,4
130,141,2,0,4
44,125,2,221,4
261,237,2,381,4
171,223,2,92,4
75,157,2,95,4
23,10,2,343,4
194,300,2,126,4
138,127,2,350,4
12,118,3,513,4
115,111,2,240,4
148,7,2,92,4
43,107,2,70,4
4,103,2,361,4
22,17,2,128,4
94,135,2,0,4
87,140,2,125,4
2,27,2,344,4
289,446,2,1,4
86,110,2,74,4
143,92,2,0,4
3,65,2,174,4
14,82,2,521,4
59,186,2,330,4
105,94,2,295,4
54,142,2,165,4
8,6,2,347,4
108,100,2,461,4
28,167,2,414,4
197,329,2,312,4
210,15,2,61,4
74,227,2,630,4
195,201,1,59,4
288,29,3,715,4
64,23,2,886,4
144,149,2,457,4
147,35,2,662,4
186,172,1,29,4
238,157,2,184,4
229,46,2,488,4
9,49,2,236,4
142,165,1,44,4
2,144,3,853,4
63,38,2,451,4
83,26,2,178,4
233,153,2,146,4
75,237,2,279,4
88,157,2,1023,4
416,26,1,594,4
196,36,2,480,4
209,28,2,750,4
93,77,2,480,4
73,342,2,161,4
260,316,2,382,4
34,420,2,373,4
280,121,2,182,4
492,214,2,132,4
69,44,2,71,4
480,368,2,525,4
89,83,2,614,4
135,213,2,279,4
64,146,2,256,4
118,130,2,799,4
193,264,2,70,4
231,679,2,148,4
89,689,2,331,4
379,372,1,232,4
98,244,2,507,4
139,86,5,1023,4
471,381,4,371,4
379,290,1,139,4
286,101,2,907,4
100,70,1,421,4
313,39,2,449,4
358,197,2,520,4
584,350,2,127,4
203,352,2,433,4
231,285,2,0,4
344,167,2,137,4
179,261,2,229,4
256,18,2,999,4
110,151,2,149,4
112,263,2,419,4
303,26,2,242,4
271,80,2,69,4
203,12,2,296,4
479,272,2,573,4
32,121,2,88,4
169,313,2,438,4
11,212,2,778,4
725,203,2,574,4
60,265,2,603,4
533,144,2,0,4
609,566,2,247,4
521,346,130,379,4
796,660,35,418,4
357,542,3,15,4
501,346,1,404,4
130,15,2,1023,4
28,40,1,56,4
308,317,2,630,4
415,383,2,974,4
193,244,2,580,4
417,185,2,336,4
610,442,3,414,4
31,104,1,55,4
438,134,2,109,4
391,229,2,367,4
59,60,2,18,4
177,253,2,413,4
240,588,2,489,4
384,743,2,371,4
448,824,2,364,4
272,132,2,118,4
406,507,2,91,4
78,444,2,186,4
32,195,2,192,4
290,99,3,666,4
199,113,2,276,4
161,28,2,631,4
722,330,2,87,4
684,210,2,483,4
155,198,1,503,4
39,87,2,311,4
17,117,2,548,4
59,533,2,734,4
177,475,2,13,4
310,670,22,110,4
92,139,11,195,4
12,60,1,108,4
351,628,2,308,4
397,755,2,126,4
110,255,2,69,4
19,46,2,416,4
664,835,2,420,4
50,295,2,299,4
306,525,2,405,4
64,11,2,485,4
458,828,2,26,4
289,160,2,324,4
213,344,2,401,4
302,695,2,357,4
297,60,2,485,4
84,131,2,315,4
44,253,2,1023,4
200,539,2,417,4
487,314,1,59,4
145,159,2,6,4
1013,265,3,70,4
670,894,2,41,4
723,109,2,200,4
499,937,1,362,4
222,92,118,262,4
357,163,57,1013,4
142,48,6,804,4
573,596,1,884,4
323,288,1,192,4
46,38,2,79,4
23,218,2,331,4
354,268,2,0,4
592,505,1,537,4
83,63,2,485,4
225,159,2,3,4
191,56,3,534,4
32,268,2,293,4
713,49,2,458,4
410,575,2,128,4
143,115,2,110,4
179,1023,2,606,4
60,179,90,140,4
24,531,21,29,4
90,825,0,474,4
592,223,1,432,4
306,426,1,40,4
236,85,2,204,4
205,327,2,173,4
615,223,2,21,4
400,33,2,304,4
681,202,3,732,4
306,19,1,326,4
528,578,599,1023,4
717,182,224,120,4
231,69,46,750,4
33,288,4,106,4
1023,1023,97,205,4
55,84,275,131,4
412,69,258,477,4
952,470,78,0,4
767,612,63,109,4
66,168,6,994,4
100,293,0,66,4
260,288,2,322,4
378,836,2,207,4
384,102,2,423,4
455,560,2,86,4
672,128,2,434,4
176,220,2,67,4
451,99,2,41,4
274,147,2,454,4
508,316,2,742,4
291,142,2,195,4
24,108,2,438,4
538,136,0,935,4
158,548,1,187,4
103,79,2,388,4
169,405,2,50,4
800,1023,613,590,4
360,310,152,623,4
273,212,27,706,4
26,15,170,1023,4
283,111,50,605,4
119,177,4,453,4
302,348,1,208,4
134,20,2,0,4
126,149,2,499,4
783,402,2,95,4
11,52,2,275,4
595,272,2,693,4
296,533,2,203,4
112,533,140,160,4
496,794,110,220,4
170,283,23,14,4
116,420,1,365,4
75,302,62,475,4
77,218,19,301,4
110,368,1,353,4
214,242,1,122,4
561,604,2,63,4
114,191,2,239,4
8,409,2,94,4
399,645,2,0,4
295,285,2,217,4
2,25,2,0,4
510,483,2,294,4
71,763,2,193,4
233,331,64,295,4
586,363,115,440,4
459,266,60,102,4
1023,1023,784,14,4
534,157,558,220,4
18,211,121,103,4
153,19,14,956,4
238,282,1,1023,4
1023,199,3,301,4
171,127,2,101,4
599,111,3,78,4
38,100,3,534,4
58,106,3,48,4
86,116,3,263,4
341,215,2,154,4
21,560,2,242,4
59,795,92,470,4
997,1023,569,212,4
512,662,372,709,4
80,220,202,332,4
565,892,230,297,4
136,27,134,1023,4
308,350,193,1023,4
308,588,433,278,4
265,229,84,559,4
261,64,8,457,4
535,26,1,628,4
141,99,3,566,4
274,222,2,156,4
3,37,3,690,4
250,430,3,633,4
96,104,3,376,4
48,414,2,494,4
175,153,2,417,4
664,594,53,109,4
208,534,11,52,4
541,191,1,470,4
139,190,2,555,4
160,246,2,909,4
25,44,2,350,4
204,203,3,739,4
28,87,2,199,4
4,46,2,41,4
531,696,2,314,4
168,618,3,982,4
212,127,1,119,4
216,84,2,964,4
237,120,2,17,4
39,593,2,478,4
9,181,2,132,4
77,276,2,22,4
16,647,2,625,4
78,241,2,169,4
176,149,2,47,4
67,49,2,559,4
68,68,2,147,4
452,20,2,153,4
35,131,2,37,4
116,195,2,59,4
17,128,2,225,4
130,224,3,799,4
487,241,2,808,4
409,165,2,222,4
660,438,2,936,4
200,179,1,231,4
380,650,2,105,4
180,194,2,141,4
130,213,2,106,4
280,94,2,39,4
150,172,2,635,4
241,258,2,982,4
384,229,1,260,4
419,247,2,1023,4
39,120,1,762,4
23,27,1,98,4
127,309,2,859,4
174,63,1,401,4
298,116,3,921,4
130,19,2,770,4
4,131,2,396,4
10,79,2,31,4
297,375,2,889,4
97,371,73,748,4
321,351,26,451,4
561,784,4,510,4
233,221,1,498,4
195,325,2,500,4
89,120,2,172,4
343,193,2,204,4
289,8,2,339,4
227,126,519,1023,4
167,117,197,450,4
119,10,36,155,4
59,62,2,1,4
296,61,2,242,4
92,95,2,731,4
17,79,2,618,4
36,7,2,35,4
55,84,2,501,4
69,245,2,267,4
75,189,2,1023,4
651,395,2,467,4
98,151,2,826,4
86,339,1,954,4
49,79,1,386,4
47,142,2,105,4
70,54,2,442,4
1,9,2,771,4
141,55,2,201,4
42,118,2,394,4
85,248,3,687,4
40,166,2,326,4
79,190,2,479,4
190,253,2,753,4
116,35,1,120,4
368,724,2,772,4
81,42,2,264,4
39,102,2,650,4
156,63,2,722,4
121,15,2,326,4
146,267,2,611,4
50,19,3,1023,4
41,95,2,562,4
117,83,2,69,4
78,6,2,949,4
206,292,1,565,4
64,31,1,495,4
66,136,2,716,4
163,69,2,27,4
191,533,2,435,4
211,288,2,262,4
405,477,2,157,4
268,586,2,255,4
76,186,1,27,4
176,241,3,946,4
0,82,2,271,4
12,214,2,620,4
63,84,8,857,4
2,31,1,253,4
56,99,1,934,4
27,39,2,302,4
332,203,2,133,4
83,12,3,590,4
184,87,2,100,4
6,8,2,204,4
307,870,2,335,4
202,265,2,260,4
57,377,2,334,4
59,11,2,55,4
125,348,2,715,4
5,30,8,1023,4
123,313,1,146,4
61,248,3,1023,4
274,224,261,925,4
43,48,78,335,4
361,282,9,750,4
122,168,1,166,4
305,224,2,560,4
524,482,3,732,4
118,48,2,463,4
83,69,2,396,4
258,481,2,960,4
82,148,1,209,4
360,591,2,632,4
283,410,2,290,4
14,331,2,256,4
390,667,2,683,4
208,30,2,105,4
622,870,1,329,4
74,22,1,576,4
154,154,2,71,4
26,88,2,791,4
154,164,2,474,4
71,148,2,280,4
67,21,3,840,4
45,8,2,201,4
62,96,2,189,4
109,227,2,458,4
66,150,2,61,4
161,238,2,291,4
56,56,2,194,4
16,262,614,1023,4
624,532,420,944,4
549,1023,129,545,4
235,495,381,1023,4
67,18,323,885,4
119,104,67,110,4
60,7,6,1001,4
184,63,1,516,4
62,69,2,198,4
89,37,3,597,4
137,86,2,359,4
70,121,2,335,4
228,478,2,336,4
421,581,2,124,4
33,184,2,44,4
58,15,2,136,4
402,706,2,503,4
527,428,2,484,4
779,1023,537,366,4
410,706,142,805,4
9,36,24,79,4
164,259,1,306,4
302,404,1,509,4
117,310,2,218,4
193,261,2,70,4
165,105,3,658,4
14,20,2,181,4
50,42,2,162,4
333,433,2,108,4
172,221,2,133,4
159,406,2,16,4
90,315,2,5,4
163,301,2,62,4
1023,1023,563,45,4
166,21,255,12,4
1023,1023,264,76,4
78,119,350,0,4
150,130,71,160,4
245,354,6,7,4
175,414,1,97,4
33,216,2,13,4
66,144,3,0,4
53,103,3,0,4
12,5,3,61,4
35,7,2,50,4
117,188,2,70,4
66,25,3,61,4
76,36,2,87,4
308,535,2,0,4
98,410,2,32,4
342,476,2,74,4
144,125,2,8,4
5,97,2,54,4
1,142,2,36,4
85,44,2,42,4
3,80,2,38,4
103,262,2,0,4
235,348,2,59,4
140,225,2,40,4
112,191,2,72,4
30,10,2,27,4
11,115,2,24,4
91,101,2,8,4
91,100,2,15,4
15,55,2,33,4
54,109,2,56,4
9,100,2,9,4
145,160,2,39,4
45,269,2,13,4
372,560,2,30,4
87,172,2,61,4
96,157,2,4,4
164,100,2,52,4
154,150,2,2,4
19,8,2,98,4
51,98,2,2,4
6,73,2,11,4
84,85,2,35,4
26,78,2,0,4
72,109,2,22,4
19,41,2,54,4
191,209,2,3,4
33,57,2,90,4
164,329,2,33,4
50,53,2,4,4
40,107,2,37,4
39,98,2,0,4
24,6,2,68,4
172,156,2,0,4
55,111,2,21,4
55,37,2,35,4
68,131,2,0,4
117,170,2,26,4
6,71,2,32,4
39,31,2,10,4
135,149,2,21,4
21,46,2,14,4
181,260,2,59,4
39,40,2,0,4
80,169,2,0,4
36,151,2,27,4
70,97,2,17,4
44,73,2,94,4
147,131,2,27,4
5,8,2,44,4
43,29,2,12,4
78,57,2,25,4
50,68,2,89,4
59,80,2,0,4
31,41,2,18,4
45,13,2,52,4
98,123,2,5,4
85,179,2,54,4
165,207,2,18,4
33,122,2,71,4
1,59,2,26,4
150,138,2,0,4
8,99,2,76,4
63,207,2,0,4
0,144,2,21,4
301,409,2,54,4
178,296,2,2,4
81,77,2,88,4
67,180,2,7,4
27,16,2,27,4
124,167,2,25,4
61,23,2,0,4
106,78,2,96,4
199,261,2,68,4
12,8,2,14,4
132,127,2,106,4
24,24,2,48,4
122,159,2,23,4
17,173,2,40,4
78,66,2,30,4
189,291,2,35,4
18,115,2,8,4
120,218,2,36,4
50,56,2,8,4
0,8,2,23,4
9,7,3,66,4
42,21,2,0,4
118,153,2,53,4
29,5,2,31,4
11,7,2,59,4
101,79,2,56,4
132,195,2,22,4
103,122,2,69,4
54,99,2,0,4
82,132,2,0,4
217,286,2,67,4
1,9,34,0,4
84,104,62,71,4
90,108,134,0,4
66,78,118,0,4
79,132,56,69,4
50,57,208,90,4
43,105,380,94,4
17,70,261,0,4
87,115,209,39,4
22,29,225,18,4
24,71,171,0,4
109,96,117,53,4
92,92,202,46,4
57,133,177,44,4
53,58,103,9,4
14,19,171,32,4
90,90,173,78,4
92,115,82,7,4
48,77,43,46,4
66,40,134,46,4
17,53,102,15,4
119,172,20,89,4
17,58,132,38,4
44,84,90,0,4
131,149,28,28,4
74,63,86,24,4
114,61,138,105,4
83,231,39,7,4
4,39,22,23,4
59,28,118,72,4
11,125,29,0,4
157,89,28,80,4
119,107,40,14,4
15,7,60,47,4
84,82,22,34,4
0,7,17,0,4
19,11,86,92,4
109,108,1,3,4
63,99,17,50,4
110,138,71,61,4
87,117,8,3,4
145,134,19,31,4
91,175,58,41,4
47,84,44,17,4
154,254,59,53,4
49,34,34,20,4
130,157,34,41,4
42,38,1,0,4
43,16,16,12,4
48,5,73,85,4
192,259,14,23,4
35,6,73,78,4
128,218,7,6,4
1,35,35,48,4
146,178,47,37,4
17,43,8,4,4
85,74,67,90,4
80,24,22,1,4
35,63,31,32,4
68,54,66,64,4
3,82,2,0,4
167,217,75,64,4
150,213,24,24,4
24,38,26,32,4
91,154,34,30,4
97,176,1,0,4
57,20,112,109,4
185,214,83,52,4
11,83,37,8,4
103,65,52,64,4
73,101,6,0,4
132,117,99,97,4
44,41,1,5,4
6,10,7,22,4
174,218,93,75,4
6,52,32,0,4
158,206,45,60,4
50,79,33,26,4
107,150,70,85,4
175,201,31,42,4
0,52,20,0,4
141,184,53,49,4
93,94,55,28,4
4,11,15,39,4
147,157,98,53,4
66,62,3,0,4
95,105,54,92,4
139,125,43,21,4
3,13,45,21,4
111,109,45,84,4
44,55,32,0,4
115,158,112,79,4
8,47,2,23,4
100,166,26,54,4
103,103,79,68,4
9,95,3,3,4
135,223,69,89,4
16,6,31,30,4
100,48,14,8,4
111,104,27,59,5
33,9,65,38,5
61,14,155,137,5
53,46,11,42,5
22,29,43,68,5
131,128,66,46,5
25,18,9,15,5
45,26,87,109,5
119,190,23,11,5
5,33,7,17,5
163,228,82,98,5
19,61,14,4,5
173,178,62,61,5
156,147,52,47,5
24,87,21,36,5
158,167,59,46,5
8,18,21,35,5
115,187,79,102,5
70,92,32,0,5
39,76,41,26,5
73,72,73,90,5
60,82,10,6,5
143,169,99,79,5
81,60,46,93,5
1,96,41,74,5
192,199,85,85,5
162,123,6,22,5
46,176,88,84,5
11,7,53,2,5
18,9,25,0,5
30,53,76,71,5
30,19,1,0,5
193,185,84,53,5
126,82,30,27,5
92,87,24,36,5
193,124,75,80,5
1,5,2,1,5
80,86,88,116,5
132,188,33,2,5
94,140,45,40,5
201,194,72,64,5
13,43,20,0,5
91,211,83,77,5
103,234,8,19,5
4,66,37,69,5
156,119,92,4,5
4,21,11,0,5
107,132,60,127,5
129,118,33,2,5
44,114,19,18,5
13,186,62,101,5
85,109,6,0,5
85,121,71,71,5
99,91,29,33,5
27,28,48,65,5
164,195,59,42,5
3,34,21,12,5
126,191,81,90,5
56,106,16,2,5
55,59,24,11,5
119,220,77,53,5
39,62,11,0,5
121,166,72,109,5
45,84,53,13,5
19,25,38,27,5
178,223,32,36,5
92,63,2,0,5
165,226,75,85,5
127,155,15,18,5
3,24,19,7,5
85,81,58,57,5
51,79,22,2,5
154,228,60,51,5
110,74,27,27,5
2,31,27,28,5
84,175,36,40,5
34,23,1,14,5
180,284,46,63,5
7,8,10,0,5
55,90,36,16,5
135,119,59,77,5
31,70,41,0,5
108,157,85,52,5
79,53,16,38,5
46,40,21,50,5
77,138,59,39,5
9,6,6,6,5
204,206,52,91,5
60,105,22,0,5
31,116,23,13,5
84,61,35,59,5
70,35,15,13,5
29,47,66,52,5
152,131,6,10,5
1,5,29,26,5
138,173,92,41,5
29,11,3,9,5
54,107,59,73,5
35,43,29,14,5
24,65,18,1,5
54,57,23,77,5
29,66,24,0,5
101,182,69,49,5
54,50,15,25,5
35,13,29,36,5
140,151,61,44,5
85,39,15,11,5
21,54,61,60,5
96,110,30,2,5
1,115,10,7,5
137,191,63,70,5
87,121,10,11,5
53,153,56,51,5
14,6,1,24,5
