Ch1,Ch2,Ch3,Ch4,label
44,6,165,2,1
38,6,15,2,1
98,6,65,2,1
114,6,106,2,1
100,6,0,2,1
112,6,65,2,1
131,6,0,2,1
167,6,6,2,1
26,6,0,2,1
55,6,31,2,1
148,6,4,2,1
31,6,51,2,1
98,6,0,2,1
54,6,88,2,1
40,6,20,2,1
135,6,23,2,1
177,6,41,2,1
12,6,11,2,1
73,6,0,2,1
32,6,0,2,1
81,6,10,2,1
150,6,26,2,1
94,6,0,2,1
48,6,12,2,1
100,6,61,2,1
1,6,54,2,1
0,6,0,2,1
150,6,42,2,1
44,7,85,2,1
37,6,34,2,1
100,6,122,2,1
39,6,25,2,1
83,6,75,2,1
23,6,15,2,1
58,6,11,2,1
37,6,0,2,1
10,6,2,2,1
13,6,67,2,1
0,6,99,2,1
30,6,3,2,1
25,6,25,2,1
151,6,0,2,1
4,6,133,2,1
59,6,49,2,1
3,6,87,2,1
137,6,14,2,1
67,6,0,2,1
30,6,9,2,1
69,6,0,2,1
115,6,33,2,1
54,6,132,2,1
2,6,62,2,1
106,6,64,2,1
1,6,68,2,1
34,6,0,2,1
23,6,72,2,1
105,6,47,2,1
43,6,179,2,1
7,6,37,2,1
33,6,0,2,1
2,6,42,2,1
16,6,0,2,1
91,6,10,2,1
66,6,44,2,1
27,6,99,2,1
10,6,159,2,1
16,6,190,2,1
6,6,30,2,1
6,6,22,2,1
8,6,0,2,1
143,6,94,2,1
105,6,64,2,1
72,6,222,1,1
11,6,143,2,1
46,6,54,2,1
96,6,130,2,1
70,6,75,2,1
28,6,41,2,1
143,6,40,2,1
20,6,0,2,1
107,6,0,2,1
39,6,98,2,1
291,6,13,2,1
122,7,131,2,1
4,6,180,2,1
47,6,31,2,1
53,6,0,2,1
51,6,62,2,1
11,6,0,2,1
38,6,296,2,1
61,6,82,2,1
127,6,87,2,1
52,6,80,2,1
101,6,0,2,1
116,6,104,2,1
19,6,16,2,1
35,6,64,2,1
1,6,24,2,1
63,6,0,2,1
44,6,113,2,1
58,6,17,2,1
2,6,56,2,1
9,6,47,2,1
7,6,11,2,1
116,6,148,2,1
194,6,14,2,1
218,6,107,2,1
44,6,0,2,1
14,6,90,2,1
118,6,0,2,1
32,6,94,2,1
24,6,26,2,1
1,6,14,2,1
22,6,16,2,1
27,6,108,2,1
60,6,57,2,1
79,6,5,2,1
17,6,134,2,1
1,6,35,2,1
41,6,50,2,1
17,6,301,2,1
97,6,0,2,1
13,6,237,2,1
156,6,33,2,1
1,6,0,2,1
112,6,48,2,1
17,6,0,2,1
64,6,78,2,1
1,6,67,2,1
92,6,37,2,1
3,6,10,2,1
43,6,15,2,1
11,6,3,2,1
120,6,95,2,1
100,6,150,2,1
39,6,75,2,1
92,6,1,2,1
137,6,158,2,1
11,6,120,2,1
92,6,118,2,1
60,6,110,2,1
14,6,55,2,1
84,6,67,2,1
53,6,0,2,1
50,6,48,2,1
22,6,1,2,1
16,6,168,2,1
63,6,0,2,1
11,6,40,2,1
3,6,94,2,1
2,6,157,2,1
19,6,145,2,1
83,6,184,2,1
31,6,101,2,1
54,6,13,2,1
4,6,35,2,1
61,6,76,2,1
42,6,3,2,1
29,6,40,2,1
35,6,102,2,1
94,6,61,2,1
22,6,8,2,1
37,6,107,2,1
21,6,11,2,1
11,6,0,2,1
33,6,33,2,1
3,6,25,2,1
34,6,59,2,1
1,6,21,2,1
19,6,76,2,1
20,6,0,2,1
186,6,0,2,1
3,6,107,2,1
104,6,70,2,1
21,6,12,2,1
56,6,1,2,1
88,6,137,2,1
121,6,69,2,1
27,6,138,2,1
8,6,81,2,1
88,6,0,2,1
22,6,154,2,1
31,6,103,2,1
78,6,172,2,1
1,6,0,2,1
9,6,108,2,1
37,7,214,2,1
159,6,35,2,1
2,6,53,2,1
20,6,0,2,1
77,6,53,2,1
60,6,3,2,1
53,6,26,2,1
20,6,0,2,1
63,6,28,2,1
57,6,0,2,1
103,6,81,2,1
2,6,153,2,1
78,6,84,2,1
11,6,257,2,1
42,6,54,2,1
77,6,11,2,1
22,6,91,2,1
38,6,69,2,1
39,6,50,2,1
65,6,0,2,1
51,6,75,2,1
42,6,18,2,1
68,6,28,2,1
75,6,36,2,1
84,6,25,2,1
38,6,31,2,1
29,6,57,2,1
0,6,23,2,1
154,6,70,2,1
104,6,18,2,1
50,6,0,2,1
36,6,32,2,1
40,6,25,2,1
45,6,20,2,1
30,6,0,2,1
38,7,178,2,1
2,6,2,2,1
5,6,92,2,1
47,6,77,2,1
14,6,4,2,1
13,6,15,2,1
3,6,0,2,1
77,6,13,2,1
7,6,7,2,1
3,6,0,2,1
59,6,47,2,1
67,6,0,2,1
48,6,34,2,1
36,6,46,2,1
99,6,66,2,1
16,6,46,2,1
6,6,44,2,1
69,6,7,2,1
35,6,39,2,1
4,6,10,2,1
36,6,35,2,1
95,6,3,2,1
53,6,123,2,1
23,6,79,2,1
10,7,65,2,1
41,6,36,2,1
40,6,70,2,1
67,6,0,2,1
60,6,11,2,1
3,6,55,2,1
114,6,106,2,1
0,6,70,2,1
6,6,43,2,1
31,6,14,2,1
63,6,0,2,1
9,6,20,2,1
17,6,0,2,1
40,6,1,2,1
23,6,4,2,1
4,6,25,2,1
9,6,0,2,1
25,6,52,2,1
5,6,60,2,1
8,6,0,2,1
0,6,23,2,1
6,6,5,2,1
44,6,0,2,1
28,6,4,2,1
13,6,50,2,1
31,6,0,2,1
46,6,2,2,1
31,6,0,2,1
27,6,56,2,1
39,6,0,2,1
99,6,0,2,1
45,6,46,2,1
7,6,128,2,1
210,6,10,2,1
71,6,168,2,1
18,6,123,2,1
129,6,39,2,1
66,6,20,2,1
52,6,0,2,1
84,6,20,2,1
79,6,16,2,1
50,6,14,2,1
45,6,100,2,1
34,6,0,2,1
73,6,10,2,1
51,6,0,2,1
27,6,2,2,1
87,6,0,2,1
25,6,13,2,1
110,6,0,2,1
4,6,15,2,1
7,6,25,2,1
31,6,86,2,1
39,6,18,2,1
7,6,0,2,1
19,6,0,2,1
33,6,67,2,1
21,6,34,2,1
19,6,0,2,1
83,6,92,2,1
120,6,0,2,1
10,6,79,2,1
207,6,44,2,1
42,6,85,2,1
46,6,11,2,1
67,6,0,2,1
82,6,95,2,1
33,6,89,2,1
27,6,141,2,1
98,6,57,2,1
103,6,114,2,1
86,6,38,2,1
91,6,10,2,1
1,6,80,2,1
25,6,0,2,1
12,6,50,2,1
7,6,45,2,1
41,6,31,2,1
85,6,31,2,1
118,6,40,2,1
19,6,23,2,1
27,6,55,2,1
39,6,103,2,1
93,6,23,2,1
7,6,0,2,1
30,6,0,2,1
36,6,30,2,1
27,6,46,2,1
44,6,56,2,1
6,6,47,2,1
26,6,110,2,1
248,6,0,2,1
2,6,93,2,1
73,6,41,2,1
59,6,0,2,1
7,6,72,2,1
82,6,16,2,1
15,6,99,2,1
38,6,86,2,1
51,6,50,2,1
12,6,4,2,1
70,6,0,2,1
3,6,46,2,1
49,6,129,2,1
55,6,89,2,1
12,6,68,2,1
19,6,17,2,1
80,6,73,2,1
46,6,18,2,1
49,6,0,2,1
11,6,74,2,1
71,6,38,2,1
9,6,83,2,1
26,6,50,2,1
35,6,18,2,1
37,6,42,2,1
8,6,91,2,1
20,6,29,2,1
34,6,51,2,1
24,6,33,2,1
23,6,64,2,1
52,6,114,2,1
77,6,158,2,1
13,6,81,2,1
8,6,1,2,1
3,6,23,2,1
21,6,7,2,1
1,6,0,2,1
23,6,28,2,1
3,6,7,2,1
110,6,49,2,1
27,6,37,2,1
8,6,4,2,1
16,6,6,2,1
72,6,36,2,1
77,6,25,2,1
55,6,35,2,1
8,6,0,2,1
24,6,72,2,1
18,6,52,2,1
2,6,20,2,1
0,6,31,2,1
24,6,10,2,1
98,6,2,2,1
4,6,25,2,1
3,6,8,2,1
99,6,0,2,1
49,6,30,2,1
0,6,4,2,1
43,6,38,2,1
2,6,0,2,1
9,6,15,2,1
7,6,0,2,1
24,6,22,2,1
39,6,33,2,1
49,6,0,2,1
114,6,67,2,1
61,6,12,2,1
121,6,40,2,1
4,6,75,2,1
52,6,112,2,1
10,6,0,2,1
8,6,106,2,1
95,6,8,2,1
50,6,0,2,1
29,6,0,2,1
6,6,16,2,1
34,6,2,2,1
44,6,139,2,1
87,6,149,2,1
103,6,0,2,1
20,6,11,2,1
8,6,0,2,1
126,6,70,2,1
53,6,0,2,1
1,6,49,2,1
2,6,17,2,1
3,6,40,2,1
41,6,0,2,1
30,6,0,2,1
22,6,13,2,1
4,6,20,2,1
21,6,0,2,1
40,6,23,2,1
99,6,24,2,1
11,6,55,2,1
32,6,0,2,1
23,6,35,2,1
1,6,12,2,1
1,6,40,2,1
82,6,27,2,1
13,6,0,2,1
85,6,0,2,1
35,6,0,2,1
11,6,1,2,1
2,6,9,2,1
0,6,0,2,1
15,6,49,2,1
40,6,84,2,1
37,6,2,2,1
18,6,45,2,1
17,6,70,2,1
53,6,0,2,1
57,6,56,2,1
25,6,17,2,1
0,6,21,2,1
5,6,33,2,1
6,6,39,2,1
24,6,74,2,1
6,6,35,2,1
86,6,17,2,1
99,6,17,2,1
111,6,30,2,1
63,6,30,2,1
40,6,0,2,1
34,6,11,2,1
38,6,32,2,1
6,6,105,2,1
69,6,0,2,1
76,6,0,2,1
107,6,5,2,1
26,6,0,2,1
87,6,19,2,1
92,6,109,2,1
80,6,43,2,1
72,6,81,2,1
22,6,48,2,1
93,6,15,2,1
26,6,0,2,1
44,6,0,2,1
17,6,24,2,1
44,6,28,2,1
1,6,0,2,1
79,6,61,2,1
64,6,22,2,1
11,6,9,2,1
53,6,77,2,1
44,6,17,2,1
16,6,0,2,1
16,6,18,2,1
62,6,10,2,1
4,6,39,2,1
21,6,44,2,1
16,6,82,2,1
23,6,121,2,1
73,6,55,2,1
51,6,85,2,1
16,6,38,2,1
11,6,108,2,1
15,6,51,2,1
27,6,2,2,1
39,6,13,2,1
14,6,0,2,1
45,6,12,2,1
7,6,0,2,1
37,6,0,2,1
3,6,0,2,1
7,6,0,2,1
135,6,31,2,1
23,6,0,2,1
104,6,33,2,1
2,6,55,2,1
0,6,52,2,1
74,6,10,2,1
166,6,28,2,1
14,6,0,2,1
2,6,0,2,1
45,6,0,2,1
3,6,4,2,1
1,6,0,2,1
144,6,138,2,1
55,6,0,2,1
30,6,140,2,1
44,6,128,2,1
3,6,118,2,1
64,6,102,2,1
38,6,95,2,1
24,6,22,2,1
24,6,29,2,1
6,6,13,2,1
57,6,129,2,1
8,6,66,2,1
28,6,120,2,1
59,6,76,2,1
45,6,101,2,1
2,6,77,2,1
28,6,128,2,1
56,6,0,2,1
93,6,85,2,1
44,6,88,2,1
102,6,73,2,1
53,6,0,2,1
23,6,21,2,1
3,6,0,2,1
8,6,1,2,1
20,6,99,2,1
61,6,6,2,1
7,6,57,2,1
43,6,141,2,1
65,6,86,2,1
48,6,35,2,1
15,6,0,2,1
0,6,9,2,1
1,6,29,2,1
9,6,8,2,1
11,6,27,2,1
14,6,0,2,1
0,6,3,2,1
21,6,75,2,1
59,6,110,2,1
31,6,156,2,1
61,6,95,2,1
120,6,77,2,1
0,6,93,2,1
24,6,126,2,1
35,6,6,2,1
42,6,53,2,1
14,6,84,2,1
3,6,0,2,1
3,6,0,2,1
129,6,0,2,1
0,6,35,2,1
21,6,30,2,1
23,6,11,2,1
10,6,6,2,1
110,6,26,2,1
17,6,64,2,1
89,6,37,2,1
45,6,26,2,1
0,6,21,2,1
36,6,3,2,1
163,6,38,2,1
57,6,0,2,1
5,6,95,2,1
72,6,7,2,1
96,6,13,2,1
49,6,21,2,1
89,6,10,2,1
24,6,0,2,1
0,6,129,2,1
6,6,50,2,1
173,6,159,2,1
2,6,46,2,1
109,6,35,2,1
25,6,82,2,1
86,6,1,2,1
7,6,135,2,1
61,6,8,2,1
39,6,23,2,1
56,6,94,2,1
26,6,3,2,1
38,6,87,2,1
12,6,53,2,1
138,6,7,2,1
128,6,0,2,1
15,6,44,2,1
154,6,7,2,1
170,6,76,2,1
111,6,27,2,1
47,6,71,2,1
18,6,0,2,1
3,6,69,2,1
92,6,80,2,1
131,6,14,2,1
25,6,84,2,1
100,6,11,2,1
25,6,123,2,1
226,6,111,2,1
212,6,0,2,1
50,6,0,2,1
94,6,81,2,1
59,6,17,2,1
10,6,146,2,1
0,6,15,2,1
62,6,8,2,1
4,6,237,2,1
407,6,0,2,1
68,6,161,2,1
117,6,0,2,1
56,7,206,2,1
10,6,217,2,1
36,6,138,2,1
32,6,90,2,1
2,6,81,2,1
25,6,21,2,1
33,6,103,2,1
255,6,80,2,1
59,6,209,2,1
214,6,0,2,1
203,6,16,2,1
59,6,17,2,1
161,6,145,2,1
73,6,27,2,1
22,6,78,2,1
94,6,18,2,1
247,6,55,2,1
142,6,376,2,1
114,6,195,2,1
11,6,160,2,1
51,6,185,2,1
133,6,6,2,1
15,6,0,2,1
33,6,74,2,1
10,6,36,2,1
49,7,364,2,1
78,6,6,2,1
126,6,373,2,1
42,6,291,2,1
122,6,52,2,1
48,6,197,2,1
172,6,191,2,1
48,6,73,2,1
172,6,41,2,1
190,6,107,2,1
23,6,208,2,1
7,6,0,2,1
193,6,81,2,1
14,6,176,2,1
23,6,258,2,1
59,7,555,2,1
176,6,1,2,1
99,6,84,2,1
57,6,0,2,1
136,6,248,2,1
319,6,232,2,1
1,6,118,2,1
56,6,174,2,1
50,6,81,2,1
62,6,0,2,1
15,6,5,2,1
62,6,205,2,1
163,6,63,2,1
307,6,66,2,1
464,6,143,2,1
413,6,45,2,1
94,6,72,2,1
236,6,132,2,1
44,6,95,2,1
283,6,168,2,1
156,6,178,2,1
73,6,37,2,1
78,6,36,2,1
42,6,53,2,1
172,6,0,2,1
46,6,41,2,1
103,6,109,2,1
150,6,43,2,1
125,6,55,2,1
150,7,310,2,1
49,6,36,2,1
79,6,184,2,1
79,6,160,2,1
9,6,0,2,1
6,6,121,2,1
132,6,32,2,1
68,6,140,2,1
208,6,187,2,1
413,6,190,2,1
64,7,436,2,1
38,6,46,2,1
58,6,217,2,1
408,6,273,2,1
261,7,483,1,1
80,6,209,2,1
196,6,332,1,1
146,6,162,2,1
250,6,18,2,1
126,6,101,2,1
11,6,316,2,1
185,6,0,2,1
208,6,377,2,1
4,6,61,2,1
15,6,354,2,1
142,6,134,2,1
26,6,146,2,1
239,6,120,2,1
197,7,329,2,1
35,6,139,2,1
31,6,354,2,1
3,6,43,2,1
1,6,53,2,1
33,6,169,2,1
567,7,222,2,1
470,7,461,2,1
48,6,13,2,1
73,6,323,2,1
93,6,50,2,1
11,6,317,2,1
71,6,46,2,1
166,6,229,2,1
56,6,0,2,1
45,6,222,2,1
137,6,338,2,1
21,6,87,2,1
320,6,81,2,1
163,6,88,2,1
45,6,12,2,1
172,6,118,2,1
211,6,141,2,1
80,6,0,2,1
13,6,81,2,1
34,6,242,2,1
384,6,124,2,1
360,6,43,2,1
147,6,13,2,1
231,6,153,2,1
12,6,332,1,1
84,6,247,2,1
120,6,0,2,1
49,6,1,2,1
189,6,243,2,1
268,6,44,2,1
138,6,209,2,1
67,6,172,2,1
76,6,0,2,1
28,7,428,2,1
30,6,164,2,1
85,6,83,2,1
233,6,262,2,1
95,6,156,2,1
72,6,361,2,1
120,6,51,2,1
63,6,32,2,1
73,6,19,2,1
47,6,354,2,1
9,6,130,2,1
91,7,315,2,1
102,8,1023,2,1
411,5,61,2,1
13,6,471,2,1
465,6,94,2,1
74,6,144,2,1
130,6,239,2,1
13,6,123,2,1
32,6,94,2,1
335,7,353,2,1
266,6,129,2,1
156,6,257,2,1
78,6,59,2,1
77,6,123,2,1
66,6,150,2,1
302,6,171,2,1
108,6,15,2,1
237,6,112,2,1
64,6,46,2,1
87,6,2,2,1
218,7,95,2,1
19,6,147,2,1
200,6,203,2,1
85,6,158,2,1
54,6,201,2,1
82,6,47,2,1
9,6,126,2,1
8,6,0,2,1
14,6,174,2,1
157,7,581,2,1
104,7,846,2,1
267,6,267,2,1
153,6,145,2,1
66,6,459,2,1
412,6,29,2,1
343,6,547,2,1
286,5,173,2,1
154,6,148,2,1
169,6,123,2,1
221,6,7,2,1
45,6,47,2,1
283,6,53,2,1
233,6,462,2,1
323,6,11,2,1
15,6,170,2,1
21,6,162,2,1
153,6,19,2,1
46,6,359,2,1
12,6,30,2,1
178,6,42,2,1
67,6,96,2,1
94,6,128,2,1
424,6,334,2,1
309,6,0,2,1
168,6,115,2,1
85,6,66,2,1
125,7,500,2,1
243,6,370,2,1
7,6,165,2,1
191,6,261,2,1
169,6,142,2,1
214,6,0,2,1
62,6,1,2,1
62,6,22,2,1
15,6,7,2,1
90,7,241,2,1
9,6,209,2,1
139,6,401,2,1
2,6,99,2,1
71,6,286,2,1
78,6,265,2,1
204,6,232,2,1
58,6,51,2,1
236,6,6,2,1
171,6,164,2,1
131,6,143,2,1
4,6,23,2,1
93,6,0,2,1
153,6,157,2,1
135,6,74,2,1
156,7,603,2,1
46,6,336,2,1
424,6,75,2,1
265,6,347,2,1
23,6,355,2,1
85,6,59,2,1
80,7,755,1,1
139,6,633,2,1
202,6,85,2,1
94,6,35,2,1
7,6,46,2,1
249,6,379,2,1
290,6,300,2,1
305,6,5,2,1
291,6,180,2,1
148,6,229,2,1
432,6,101,2,1
239,6,163,2,1
12,6,216,2,1
4,6,7,2,1
210,6,118,2,1
217,6,143,2,1
185,6,243,2,1
367,6,286,2,1
2,6,304,2,1
192,6,275,2,1
289,6,99,2,1
8,6,19,2,1
59,6,33,2,1
251,6,105,2,1
65,6,300,2,1
275,6,56,2,1
78,6,161,2,1
327,6,113,2,1
185,6,34,2,1
58,6,15,2,1
60,7,589,2,1
345,7,572,2,1
404,6,0,2,1
129,6,250,2,1
104,6,102,2,1
176,6,53,2,1
4,6,0,2,1
225,6,45,2,1
141,6,2,2,1
321,6,0,2,1
1,6,58,2,1
27,6,42,2,1
87,6,219,2,1
74,7,248,2,1
0,6,84,2,1
21,6,212,2,1
83,6,206,2,1
4,6,144,2,1
245,6,0,2,1
194,6,46,2,1
132,6,286,1,1
18,6,64,2,1
112,6,145,2,1
40,6,0,2,1
83,6,161,2,1
173,6,168,2,1
198,6,0,2,1
3,6,118,2,1
18,6,54,2,1
76,6,32,2,1
8,6,180,2,1
78,6,123,2,1
95,6,0,2,1
115,6,119,2,1
86,6,35,2,1
111,6,159,2,1
90,6,215,2,1
181,6,18,2,1
27,6,231,2,1
223,6,66,2,1
19,6,263,2,1
11,6,114,2,1
80,6,64,2,1
103,6,299,2,1
218,6,13,2,1
178,6,107,2,1
131,6,164,2,1
90,6,296,2,1
159,6,150,2,1
39,6,0,2,1
46,6,274,2,1
148,6,196,2,1
15,6,188,2,1
178,6,251,2,1
188,6,153,2,1
20,6,44,2,1
264,6,239,2,1
299,6,94,2,1
146,6,182,2,1
137,6,153,2,1
115,6,110,2,1
19,6,91,2,1
243,6,17,2,1
109,6,278,2,1
297,7,436,2,1
301,6,0,2,1
82,6,47,2,1
54,6,49,2,1
24,6,59,2,1
3,6,163,2,1
31,6,162,2,1
8,6,165,2,1
32,6,21,2,1
115,6,20,2,1
20,6,37,2,1
54,6,224,2,1
87,6,353,2,1
52,6,177,2,1
132,6,97,2,1
223,6,95,2,1
8,6,183,2,1
97,6,69,2,1
6,6,16,2,1
81,6,3,2,1
39,6,187,2,1
1,6,284,2,1
12,7,460,2,1
141,6,66,2,1
86,6,273,2,1
249,6,0,2,1
15,6,294,2,1
16,6,277,2,1
200,6,128,2,1
219,6,23,2,1
154,7,432,2,1
148,6,73,2,1
146,6,0,2,1
248,6,277,2,1
49,6,92,2,1
44,6,0,2,1
32,6,179,2,1
102,6,159,2,1
3,6,176,2,1
28,6,211,2,1
91,6,359,2,1
124,6,140,2,1
94,6,100,2,1
317,6,66,2,1
29,6,167,2,1
33,6,0,2,1
9,6,79,2,1
44,6,27,2,1
225,6,23,2,1
50,6,225,2,1
59,6,121,2,1
9,6,25,2,1
17,6,111,2,1
116,6,0,2,1
41,6,51,2,1
124,6,38,2,1
22,6,108,2,1
157,6,102,2,1
58,6,208,2,1
44,6,14,2,1
310,6,39,2,1
70,6,26,2,1
214,6,70,2,1
129,6,136,2,1
73,6,51,2,1
0,6,148,2,1
3,6,60,2,1
59,6,160,2,1
67,6,7,2,1
7,6,49,2,1
126,6,84,2,1
18,6,90,2,1
200,6,130,2,1
68,6,222,2,1
200,6,228,2,1
1,6,2,2,1
42,6,177,2,1
102,6,153,2,1
33,6,261,2,1
114,6,241,2,1
102,6,332,2,1
7,6,95,2,1
43,6,43,2,1
14,6,240,2,1
81,6,10,2,1
10,6,17,2,1
55,6,181,2,1
39,6,47,2,1
73,6,62,2,1
34,6,74,2,1
43,6,72,2,1
145,6,284,2,1
400,6,107,2,1
11,6,119,2,1
95,6,0,2,1
76,6,11,2,1
39,7,398,2,1
61,6,116,2,1
130,6,247,2,1
38,6,70,2,1
121,6,51,2,1
123,6,21,2,1
249,6,185,2,1
109,6,330,2,1
4,6,57,2,1
129,6,150,2,1
147,6,63,2,1
143,6,283,2,1
0,6,18,2,1
1,6,304,2,1
49,6,33,2,1
64,6,0,2,1
1,6,118,2,1
78,6,3,2,1
12,6,292,2,1
179,6,200,2,1
109,6,22,2,1
114,6,85,2,1
45,6,42,2,1
8,6,8,2,1
160,6,0,2,1
9,6,204,2,1
63,6,147,2,1
19,6,193,2,1
16,6,9,2,1
3,6,426,2,1
7,6,391,2,1
44,6,277,2,1
22,6,41,2,1
123,6,287,2,1
125,6,251,2,1
212,6,428,2,1
3,6,10,2,1
97,6,153,2,1
77,6,83,2,1
59,6,389,2,1
7,6,216,2,1
102,6,167,2,1
51,6,65,2,1
83,6,25,2,1
0,6,138,2,1
89,6,27,2,1
140,6,15,2,1
6,6,184,2,1
118,6,70,2,1
74,6,203,2,1
0,6,64,2,1
28,6,198,2,1
78,6,40,2,1
165,7,272,2,1
270,6,478,2,1
47,6,17,2,1
224,6,244,2,1
72,6,82,2,1
39,6,59,2,1
222,6,154,2,1
12,6,40,2,1
52,6,133,2,1
111,6,25,2,1
174,6,69,2,1
5,6,126,2,1
40,6,0,2,1
63,6,19,2,1
31,6,63,2,1
194,6,125,2,1
127,6,140,2,1
104,6,100,2,1
180,6,121,2,1
131,6,454,2,1
4,6,268,2,1
68,6,9,2,1
187,6,60,2,1
315,6,157,2,1
66,6,314,2,1
77,6,168,2,1
85,6,141,2,1
152,6,95,2,1
21,6,96,2,1
25,6,91,2,1
176,6,133,2,1
154,6,268,2,1
0,6,120,2,1
38,6,57,2,1
33,6,207,2,1
8,6,43,2,1
57,6,39,2,1
128,6,353,2,1
6,6,89,2,1
266,6,62,2,1
305,6,1,2,1
155,6,123,2,1
60,6,86,2,1
29,6,25,2,1
91,6,0,2,1
15,6,91,2,1
9,7,85,2,1
78,6,22,2,1
32,6,57,2,1
133,6,11,2,1
137,6,21,2,1
102,6,273,2,1
96,6,43,2,1
42,6,194,2,1
180,6,170,2,1
75,6,181,2,1
69,6,7,2,1
183,6,307,2,1
169,6,262,2,1
84,7,506,2,1
14,6,34,2,1
90,6,342,2,1
265,6,114,2,1
254,6,319,2,1
103,6,88,2,1
14,6,56,2,1
49,6,114,2,1
72,6,202,2,1
51,6,78,2,1
68,6,144,2,1
152,6,65,2,1
80,6,34,2,1
132,6,121,2,1
67,6,39,2,1
100,6,10,2,1
14,6,102,2,1
6,6,22,2,1
166,7,335,2,1
78,6,15,2,1
38,6,211,2,1
321,6,59,2,1
18,6,171,2,1
46,6,11,2,1
375,6,207,2,1
25,6,283,2,1
12,6,220,2,1
33,6,274,2,1
135,6,440,2,1
118,6,21,2,1
41,6,155,2,1
95,6,16,2,1
218,6,0,2,1
57,6,9,2,1
135,6,12,2,1
2,6,157,2,1
220,6,35,2,1
53,6,71,2,1
121,6,130,2,1
61,6,115,2,1
154,6,256,2,1
330,7,468,2,1
37,6,156,2,1
25,6,41,2,1
74,6,34,2,1
93,6,23,2,1
3,6,0,2,1
161,6,23,2,1
4,6,132,2,1
32,6,150,2,1
285,6,0,2,1
165,6,196,2,1
0,6,89,2,1
105,6,114,2,1
117,6,72,2,1
150,6,174,2,1
48,6,121,2,1
110,6,57,2,1
12,6,261,2,1
36,6,114,2,1
101,7,421,2,1
171,6,126,2,1
18,6,120,2,1
193,6,124,2,1
71,6,49,2,1
20,6,55,2,1
46,6,194,2,1
48,6,146,2,1
337,6,48,2,1
161,6,12,2,1
276,6,85,2,1
297,6,0,2,1
113,6,0,2,1
86,6,0,2,1
96,6,184,2,1
202,6,22,2,1
36,7,281,2,1
8,6,227,2,1
6,6,0,2,1
303,6,49,2,1
69,6,40,2,1
188,6,313,2,1
133,6,30,2,1
33,6,275,2,1
181,6,93,2,1
188,6,115,2,1
85,6,59,2,1
51,6,85,2,1
60,6,219,2,1
284,6,17,2,1
65,6,230,2,1
1,6,25,2,1
65,6,7,2,1
42,7,374,2,1
26,6,322,2,1
201,6,20,2,1
18,6,271,2,1
167,6,23,2,1
171,7,474,2,1
304,6,331,2,1
63,7,531,2,1
210,6,96,2,1
277,6,151,2,1
113,6,462,2,1
30,6,45,2,1
205,6,432,2,1
585,6,314,2,1
379,6,451,2,1
212,6,271,2,1
33,6,52,2,1
12,6,58,2,1
214,7,746,2,1
116,6,220,2,1
88,7,900,1,1
5,5,0,2,1
278,7,829,2,1
253,6,366,2,1
325,6,372,2,1
184,6,407,2,1
122,6,371,2,1
88,6,95,2,1
275,6,29,2,1
8,6,22,2,1
144,6,2,2,1
23,6,447,2,1
56,6,129,2,1
156,6,441,2,1
250,6,82,2,1
3,6,450,2,1
190,6,6,2,1
257,6,352,2,1
19,6,190,2,1
30,6,47,2,1
261,6,146,2,1
24,6,110,2,1
267,6,307,2,1
78,7,760,2,1
391,6,187,2,1
132,6,583,2,1
117,6,2,2,1
222,7,495,1,1
266,6,163,2,1
20,6,139,2,1
17,6,207,2,1
15,6,151,2,1
107,6,275,2,1
157,6,365,2,1
138,6,1,2,1
110,6,131,2,1
156,6,131,2,1
94,6,341,2,1
100,6,43,2,1
223,6,342,2,1
483,6,270,2,1
0,7,544,2,1
61,6,113,2,1
163,7,598,1,1
141,6,245,2,1
222,6,0,2,1
52,6,86,2,1
53,6,233,2,1
10,6,249,2,1
183,6,296,2,1
260,6,0,2,1
26,7,639,2,1
335,7,752,2,1
393,5,157,2,1
79,6,369,2,1
119,6,396,2,1
156,6,513,2,1
203,6,10,2,1
268,7,428,2,1
172,7,982,2,1
449,5,315,2,1
135,6,622,2,1
82,6,194,2,1
16,6,247,2,1
76,6,260,2,1
215,6,326,2,1
53,6,61,2,1
105,6,69,2,1
8,6,67,2,1
264,6,85,2,1
117,6,104,2,1
60,7,314,2,1
223,6,456,1,1
186,6,145,2,1
277,7,460,2,1
125,6,95,2,1
61,6,34,2,1
247,7,430,2,1
231,6,10,2,1
64,6,149,2,1
162,7,486,2,1
20,6,108,2,1
6,7,512,2,1
252,6,221,2,1
120,7,439,1,1
5,6,70,2,1
14,6,170,2,1
65,6,310,2,1
33,6,141,2,1
127,7,648,2,1
5,6,0,2,1
213,6,425,1,1
110,6,362,2,1
16,7,645,2,1
445,6,6,2,1
40,6,29,2,1
126,6,117,2,1
64,6,166,2,1
7,6,52,2,1
51,6,179,2,1
98,6,0,2,1
34,6,79,2,1
22,6,355,2,1
18,6,70,2,1
195,6,41,2,1
139,6,110,2,1
148,6,98,2,1
154,6,158,2,1
68,6,276,2,1
124,6,4,2,1
441,6,301,2,1
190,6,49,2,1
337,6,271,2,1
174,6,332,1,1
279,7,415,2,1
3,6,289,2,1
310,6,58,2,1
24,7,278,2,1
78,6,167,2,1
47,6,35,2,1
60,6,51,2,1
31,6,22,2,1
446,7,750,1,1
344,7,1013,2,1
203,5,271,2,1
67,6,310,2,1
28,6,201,2,1
222,6,0,2,1
34,6,0,2,1
480,6,200,2,1
22,6,521,2,1
458,6,335,2,1
16,6,86,2,1
0,6,399,2,1
109,6,58,2,1
43,7,237,1,1
14,7,484,1,1
111,6,239,2,1
0,6,115,2,1
101,6,188,2,1
11,6,111,2,1
389,6,28,2,1
563,6,0,2,1
2,6,269,2,1
104,6,74,2,1
7,6,418,2,1
403,6,10,2,1
441,7,488,2,1
4,6,247,2,1
3,6,58,2,1
55,7,553,2,1
407,6,145,2,1
375,6,42,2,1
183,6,371,1,1
245,6,203,2,1
60,6,149,2,1
104,6,293,2,1
178,6,300,2,1
512,6,11,2,1
401,6,339,2,1
134,6,444,2,1
5,7,573,2,1
30,6,23,2,1
125,7,341,1,1
300,6,374,2,1
241,6,220,2,1
272,6,27,2,1
179,7,296,2,1
112,6,262,2,1
178,6,422,2,1
461,6,120,2,1
18,6,99,2,1
289,6,52,2,1
240,6,362,2,1
48,6,5,2,1
153,6,29,2,1
387,6,84,2,1
46,6,134,2,1
136,6,94,2,1
22,6,193,2,1
120,6,247,2,1
217,6,131,2,1
484,6,318,2,1
187,6,92,2,1
145,6,189,2,1
336,6,327,2,1
116,6,261,2,1
123,6,0,2,1
126,6,386,2,1
205,6,256,2,1
200,6,515,2,1
75,6,132,2,1
226,6,442,2,1
195,6,571,2,1
452,6,212,2,1
32,6,353,2,1
367,6,74,2,1
53,6,94,2,1
77,6,265,2,1
112,6,539,2,1
128,6,0,2,1
18,6,26,2,1
61,6,162,2,1
53,7,351,2,1
138,6,193,2,1
10,6,177,2,1
2,6,323,2,1
38,6,235,2,1
16,6,6,2,1
28,6,27,2,1
126,6,71,2,1
54,6,0,2,1
7,7,418,2,1
312,6,288,2,1
255,7,373,1,1
76,6,48,2,1
31,6,95,2,1
16,6,21,2,1
247,6,0,2,1
127,6,186,2,1
104,6,59,2,1
70,6,48,2,1
68,6,76,2,1
120,6,41,2,1
251,6,81,2,1
192,6,15,2,1
59,6,47,2,1
236,6,211,2,1
254,6,42,2,1
79,6,0,2,1
74,6,0,2,1
92,6,118,2,1
34,6,135,2,1
11,6,133,2,1
3,6,26,2,1
132,6,96,2,1
85,6,157,2,1
298,6,58,2,1
39,6,115,2,1
90,6,239,2,1
206,6,265,2,1
45,6,16,2,1
33,6,94,2,1
194,6,97,2,1
28,6,173,2,1
135,6,67,2,1
115,6,0,2,1
8,6,120,2,1
238,6,0,2,1
99,6,103,2,1
1,6,342,1,1
48,6,53,2,1
57,6,13,2,1
74,6,245,2,1
49,6,196,2,1
71,6,270,2,1
30,6,54,2,1
183,6,155,2,1
73,6,0,2,1
110,6,130,2,1
167,6,65,2,1
71,6,192,2,1
120,6,11,2,1
10,6,131,2,1
208,6,117,2,1
100,6,111,2,1
132,6,121,2,1
131,6,54,2,1
12,6,45,2,1
69,6,304,2,1
225,6,70,2,1
148,6,276,2,1
37,6,49,2,1
183,6,113,2,1
102,6,160,2,1
82,6,106,2,1
1,6,9,2,1
15,6,31,2,1
253,6,101,2,1
34,6,58,2,1
141,6,293,2,1
8,6,96,2,1
104,6,73,2,1
88,6,45,2,1
219,6,99,2,1
208,6,195,2,1
102,6,78,2,1
26,6,73,2,1
193,6,0,2,1
47,6,0,2,1
73,6,158,2,1
85,6,145,2,1
84,6,14,2,1
81,6,38,2,1
124,6,44,2,1
35,7,132,2,1
354,6,194,2,1
443,6,173,2,1
71,6,486,2,1
161,6,112,2,1
213,6,0,2,1
184,6,72,2,1
10,6,129,2,1
15,6,72,2,1
64,6,120,2,1
4,6,333,2,1
171,6,283,2,1
145,6,56,2,1
76,6,89,2,1
37,6,18,2,1
7,6,0,2,1
134,6,0,2,1
52,6,4,2,1
148,6,23,2,1
174,6,52,2,1
178,6,91,2,1
128,6,22,2,1
112,6,195,2,1
56,6,0,2,1
167,6,50,2,1
164,6,2,2,1
64,6,0,2,1
4,6,201,2,1
142,6,38,2,1
126,6,0,2,1
60,6,12,2,1
116,6,183,2,1
156,7,615,2,1
61,6,71,2,1
59,7,650,1,1
241,5,19,2,1
147,7,374,2,1
152,6,192,2,1
72,6,7,2,1
228,6,165,2,1
151,6,93,2,1
235,6,157,2,1
205,7,313,2,1
23,6,47,2,1
1,6,62,2,1
208,6,93,2,1
15,6,0,2,1
2,6,127,2,1
67,6,36,2,1
40,6,299,2,1
1,6,65,2,1
58,6,319,2,1
83,6,184,2,1
114,6,193,2,1
162,6,0,2,1
137,6,37,2,1
7,6,94,2,1
102,6,195,2,1
15,6,106,2,1
69,6,85,2,1
80,6,188,2,1
27,6,60,2,1
101,6,185,2,1
64,6,329,2,1
74,6,556,2,1
184,6,126,2,1
152,6,141,2,1
79,6,37,2,1
78,6,285,2,1
99,6,251,2,1
36,6,135,2,1
234,6,23,2,1
55,6,26,2,1
69,6,168,2,1
68,7,394,1,1
264,6,326,2,1
88,6,15,2,1
4,6,57,2,1
90,6,151,2,1
51,6,104,2,1
6,6,257,2,1
77,6,253,2,1
7,6,128,2,1
34,6,116,2,1
179,6,66,2,1
59,6,25,2,1
63,6,181,2,1
188,6,115,2,1
59,6,54,2,1
116,6,25,2,1
170,6,76,2,1
110,6,38,2,1
237,6,106,2,1
138,6,167,2,1
53,6,84,2,1
101,6,146,2,1
146,6,246,2,1
61,6,187,2,1
160,6,135,2,1
44,6,107,2,1
3,6,161,2,1
299,6,274,2,1
64,6,129,2,1
20,6,22,2,1
46,6,134,2,1
5,6,98,2,1
38,6,50,2,1
5,6,41,2,1
28,6,36,2,1
136,6,106,2,1
8,6,115,2,1
107,6,327,2,1
99,6,142,2,1
14,6,328,2,1
61,6,124,2,1
227,7,358,2,1
181,6,222,2,1
76,6,18,2,1
183,6,343,2,1
309,6,90,2,1
184,6,322,2,1
152,6,0,2,1
10,6,109,2,1
36,6,206,2,1
121,6,242,2,1
30,6,107,2,1
45,6,176,2,1
133,6,10,2,1
127,6,49,2,1
69,6,122,2,1
215,6,0,2,1
169,6,199,2,1
307,6,200,2,1
179,6,204,2,1
90,6,8,2,1
48,6,134,2,1
69,6,113,2,1
2,6,110,2,1
88,6,62,2,1
154,6,69,2,1
108,6,14,2,1
1,6,161,2,1
100,6,15,2,1
8,6,108,2,1
105,6,123,2,1
140,6,286,2,1
141,6,32,2,1
207,6,86,2,1
179,7,294,2,1
184,6,0,2,1
84,6,98,2,1
81,6,48,2,1
238,6,316,2,1
133,6,174,2,1
152,6,9,2,1
10,6,23,2,1
6,6,147,2,1
8,6,62,2,1
134,6,181,2,1
94,6,59,2,1
6,6,0,2,1
35,6,93,2,1
59,6,12,2,1
228,6,20,2,1
32,6,79,2,1
172,6,77,2,1
50,6,0,2,1
36,6,150,2,1
6,6,134,2,1
54,7,328,2,1
144,6,159,2,1
191,6,295,1,1
67,6,44,2,1
50,7,627,2,1
22,6,93,2,1
43,6,324,2,1
96,6,26,2,1
57,6,287,2,1
46,6,97,2,1
78,6,112,2,1
39,6,43,2,1
9,6,290,2,1
196,6,178,2,1
26,6,254,2,1
226,6,238,2,1
357,6,144,2,1
70,6,254,2,1
29,6,226,2,1
193,6,209,2,1
140,6,75,2,1
58,6,207,2,1
172,6,137,2,1
29,6,271,2,1
57,6,110,2,1
72,6,3,2,1
170,6,61,2,1
39,7,195,2,1
71,6,141,2,1
56,6,2,2,1
39,6,88,2,1
33,6,211,2,1
45,6,43,2,1
38,6,192,2,1
20,6,69,2,1
17,6,117,2,1
369,6,247,2,1
59,6,170,2,1
55,6,226,2,1
194,6,116,2,1
58,6,34,2,1
109,6,79,2,1
235,6,16,2,1
129,6,10,2,1
272,6,43,2,1
6,6,19,2,1
80,6,206,2,1
18,6,0,2,1
171,7,271,2,1
82,6,109,2,1
11,6,195,2,1
138,6,42,2,1
69,6,314,2,1
92,6,11,2,1
14,6,134,2,1
189,6,49,2,1
174,6,204,2,1
57,6,69,2,1
9,6,0,2,1
101,6,74,2,1
124,6,87,2,1
23,6,27,2,1
28,6,183,2,1
35,6,170,2,1
9,6,0,2,1
201,6,68,2,1
268,6,48,2,1
29,6,0,2,1
99,6,3,2,1
67,6,86,2,1
151,6,206,2,1
29,6,125,2,1
16,6,45,2,1
107,6,151,2,1
91,6,86,2,1
125,6,9,2,1
47,6,83,2,1
13,6,83,2,1
65,6,8,2,1
3,6,112,2,1
8,6,167,2,1
97,6,66,2,1
132,6,93,2,1
6,6,64,2,1
9,6,34,2,1
0,6,11,2,1
108,6,179,2,1
23,6,75,2,1
209,6,107,2,1
43,6,86,2,1
153,6,81,2,1
71,6,13,2,1
202,6,138,2,1
63,6,333,2,1
131,6,21,2,1
20,6,0,2,1
76,6,38,2,1
28,6,47,2,1
132,6,244,2,1
165,6,257,2,1
126,6,0,2,1
40,6,36,2,1
13,6,308,2,1
47,6,166,2,1
345,6,153,2,1
58,6,122,2,1
65,6,50,2,1
207,6,61,2,1
16,6,124,2,1
141,6,181,2,1
112,6,233,2,1
31,6,0,2,1
219,6,77,2,1
1,6,59,2,1
174,6,81,2,1
45,6,44,2,1
234,6,204,2,1
202,6,211,2,1
134,6,89,2,1
43,6,29,2,1
221,6,177,2,1
189,6,25,2,1
41,6,179,2,1
86,6,149,2,1
265,6,8,2,1
2,6,351,2,1
190,6,27,2,1
193,6,19,2,1
336,6,0,2,1
62,6,190,2,1
160,6,327,2,1
113,6,122,2,1
81,6,89,2,1
132,6,127,2,1
170,6,117,2,1
217,6,95,2,1
63,7,381,2,1
154,6,224,2,1
203,6,77,2,1
447,6,58,2,1
43,6,0,2,1
13,6,279,2,1
255,6,88,2,1
293,6,191,2,1
29,6,0,2,1
2,6,72,2,1
118,6,0,2,1
182,6,137,2,1
133,6,403,2,1
143,7,648,2,1
93,6,81,2,1
75,6,134,2,1
192,6,58,2,1
11,6,177,2,1
243,6,214,2,1
388,6,250,2,1
54,6,129,2,1
111,6,519,2,1
186,6,48,2,1
57,6,303,2,1
475,6,236,2,1
103,6,83,2,1
129,7,506,2,1
148,6,242,2,1
264,6,246,2,1
384,6,291,2,1
137,6,28,2,1
90,6,291,2,1
215,6,32,2,1
45,6,121,2,1
262,6,359,1,1
71,6,220,2,1
118,6,129,2,1
166,7,483,2,1
5,6,75,2,1
6,6,264,2,1
104,7,572,2,1
375,7,921,2,1
300,5,242,2,1
53,6,129,2,1
23,6,440,2,1
127,6,26,2,1
410,6,145,2,1
181,6,237,2,1
66,6,161,2,1
140,6,73,2,1
26,6,260,2,1
121,6,372,2,1
142,7,722,2,1
140,6,41,2,1
76,6,461,2,1
159,7,783,2,1
59,6,246,2,1
151,6,336,2,1
490,6,141,2,1
129,6,218,2,1
74,6,243,2,1
191,7,174,2,1
62,7,440,2,1
249,6,311,2,1
195,6,1,2,1
209,7,492,2,1
91,6,0,2,1
227,6,0,2,1
25,6,263,2,1
7,6,9,2,1
267,6,448,2,1
165,6,29,2,1
122,6,327,2,1
111,6,200,2,1
252,6,62,2,1
201,6,84,2,1
35,6,23,2,1
111,6,308,2,1
491,7,633,2,1
358,6,308,2,1
86,6,42,2,1
173,7,951,2,1
115,5,48,2,1
6,6,362,2,1
308,6,238,2,1
40,6,120,2,1
70,7,502,2,1
155,6,220,2,1
220,6,477,2,1
159,6,116,2,1
165,6,270,2,1
168,6,291,2,1
42,6,271,2,1
396,6,120,2,1
129,6,344,2,1
73,6,419,1,1
552,6,64,2,1
106,6,40,2,1
52,6,338,2,1
100,6,37,2,1
2,6,511,2,1
53,6,61,2,1
61,6,54,2,1
92,6,75,2,1
495,6,42,2,1
201,6,157,2,1
379,6,76,2,1
196,6,235,2,1
320,6,261,2,1
110,6,329,2,1
21,6,235,2,1
292,6,301,2,1
310,7,717,1,1
553,5,0,2,1
253,6,713,2,1
60,5,174,2,1
170,7,950,1,1
5,5,260,2,1
224,6,31,2,1
166,7,631,2,1
467,6,62,2,1
660,7,493,2,1
206,6,73,2,1
106,6,13,2,1
244,6,260,2,1
345,7,898,2,1
904,6,244,2,1
1020,7,479,2,1
158,6,136,2,1
70,6,62,2,1
128,6,0,2,1
396,7,761,2,1
392,7,932,1,1
5,5,12,2,1
321,5,167,2,1
140,6,164,2,1
455,6,0,2,1
10,6,336,2,1
17,6,411,2,1
214,6,0,2,1
25,6,22,2,1
3,6,411,2,1
382,6,225,2,1
425,6,235,2,1
238,6,144,2,1
110,6,160,2,1
219,6,39,2,1
119,6,300,2,1
201,6,225,2,1
206,6,116,2,1
454,7,397,2,1
357,6,129,2,1
159,6,68,2,1
155,6,2,2,1
372,6,82,2,1
418,7,157,2,1
531,6,103,2,1
43,6,286,2,1
455,6,108,2,1
1,6,35,2,1
91,6,76,2,1
150,6,0,2,1
158,6,312,2,1
285,6,433,2,1
199,6,638,2,1
95,6,58,2,1
147,7,642,2,1
43,6,80,2,1
17,21,98,2,1
289,5,228,2,1
82,6,898,2,1
270,5,524,2,1
59,6,533,2,1
23,6,130,2,1
111,6,351,2,1
267,6,43,2,1
108,6,167,2,1
35,6,1,2,1
82,6,275,2,1
8,6,246,2,1
374,7,588,2,1
17,6,398,2,1
207,7,647,2,1
270,6,166,2,1
265,6,64,2,1
70,6,0,2,1
356,7,691,2,1
83,6,318,2,1
16,6,20,2,1
23,7,740,2,1
583,5,616,2,1
822,648,344,2,1
91,382,159,2,1
51,74,316,2,1
220,10,172,2,1
11,5,361,2,1
135,6,323,2,1
322,6,126,2,1
98,6,25,2,1
360,6,72,2,1
111,6,252,2,1
56,6,38,2,1
307,6,233,2,1
431,6,184,2,1
90,6,0,2,1
14,6,220,2,1
114,6,170,2,1
147,6,329,2,1
5,6,27,2,1
178,6,127,2,1
154,6,53,2,1
31,7,429,2,1
17,6,351,2,1
26,6,70,2,1
97,6,163,2,1
302,6,1,2,1
259,6,194,2,1
251,7,467,2,1
33,6,169,2,1
296,6,201,2,1
177,6,75,2,1
379,6,14,2,1
59,6,63,2,1
28,6,344,2,1
324,6,10,2,1
282,6,571,2,1
69,6,141,2,1
7,6,303,2,1
22,6,144,2,1
103,6,181,2,1
192,6,49,2,1
78,6,132,2,1
17,6,23,2,1
124,7,354,2,1
43,6,60,2,1
15,7,380,2,1
58,6,205,2,1
68,6,250,2,1
11,6,12,2,1
9,6,0,2,1
139,6,80,2,1
67,6,228,2,1
9,6,5,2,1
4,6,187,2,1
31,6,28,2,1
124,6,40,2,1
47,6,96,2,1
147,6,14,2,1
52,6,101,2,1
120,6,44,2,1
14,6,129,2,1
193,6,30,2,1
266,6,152,2,1
56,6,40,2,1
124,6,127,2,1
44,6,176,2,1
34,6,191,2,1
75,6,172,2,1
7,6,58,2,1
90,6,311,2,1
130,6,37,2,1
214,6,8,2,1
73,6,156,2,1
36,6,0,2,1
27,6,184,2,1
61,6,15,2,1
38,6,45,2,1
2,6,132,2,1
55,6,106,2,1
142,6,164,2,1
14,6,136,2,1
231,6,20,2,1
445,6,55,2,1
221,6,15,2,1
14,6,81,2,1
9,6,24,2,1
99,6,328,2,1
201,6,44,2,1
8,6,73,2,1
287,6,61,2,1
39,6,0,2,1
232,6,0,2,1
36,6,159,2,1
71,6,47,2,1
166,6,49,2,1
135,6,245,2,1
42,6,2,2,1
2,6,80,2,1
50,6,308,2,1
60,6,144,2,1
12,6,299,2,1
118,6,0,2,1
315,6,0,2,1
76,6,96,2,1
8,6,210,2,1
212,6,0,2,1
61,6,20,2,1
171,6,63,2,1
117,6,216,2,1
122,6,6,2,1
43,6,0,2,1
2,6,273,2,1
250,6,111,2,1
229,6,134,2,1
46,6,77,2,1
235,6,137,2,1
207,6,201,2,1
11,6,286,2,1
171,6,73,2,1
162,6,219,2,1
27,6,0,2,1
11,6,73,2,1
13,6,16,2,1
54,6,133,2,1
86,6,231,2,1
201,6,15,2,1
129,6,176,2,1
5,6,129,2,1
17,6,14,2,1
117,6,111,2,1
80,6,0,2,1
127,6,128,2,1
4,6,0,2,1
93,6,91,2,1
13,6,103,2,1
39,6,206,2,1
158,6,50,2,1
29,6,150,2,1
198,6,121,2,1
49,6,74,2,1
77,6,47,2,1
15,6,15,2,1
61,6,52,2,1
211,6,275,2,1
49,6,107,2,1
29,6,59,2,1
2,6,200,2,1
22,6,26,2,1
44,6,41,2,1
85,6,52,2,1
86,6,15,2,1
281,6,169,2,1
56,6,70,2,1
255,6,246,2,1
48,6,195,2,1
84,6,76,2,1
72,6,131,2,1
322,6,91,2,1
114,6,187,2,1
2,6,214,2,1
68,6,213,2,1
171,6,175,2,1
228,6,9,2,1
47,6,77,2,1
246,6,29,2,1
55,6,185,2,1
71,6,238,2,1
131,6,265,2,1
71,6,32,2,1
6,6,29,2,1
177,6,141,2,1
75,6,0,2,1
219,6,171,2,1
231,6,276,2,1
112,6,16,2,1
95,6,157,2,1
212,6,63,2,1
31,6,230,2,1
76,7,440,2,1
93,6,314,2,1
69,6,53,2,1
11,6,161,2,1
317,7,524,2,1
211,6,89,2,1
164,6,0,2,1
235,6,152,2,1
8,6,59,2,1
20,6,0,2,1
19,6,6,2,1
33,6,30,2,1
62,6,81,2,1
64,7,386,2,1
68,6,17,2,1
78,6,135,2,1
34,6,35,2,1
24,6,158,2,1
282,6,19,2,1
22,6,31,2,1
96,6,16,2,1
33,6,189,2,1
77,6,201,2,1
17,6,88,2,1
83,6,1,2,1
18,6,130,2,1
15,6,343,2,1
106,6,376,2,1
157,6,138,2,1
17,6,308,2,1
115,6,121,2,1
72,6,191,2,1
188,6,168,2,1
183,6,139,2,1
71,6,87,2,1
50,6,146,2,1
61,6,65,2,1
71,6,175,2,1
201,6,88,2,1
25,6,154,2,1
0,6,117,2,1
126,6,4,2,1
36,6,3,2,1
80,6,11,2,1
72,6,301,2,1
178,7,300,2,1
99,6,25,2,1
124,6,330,2,1
17,6,172,2,1
5,6,183,2,1
14,6,91,2,1
8,7,72,2,1
37,6,76,2,1
144,6,6,2,1
92,6,169,2,1
34,6,109,2,1
192,6,68,2,1
283,6,199,2,1
11,6,160,2,1
15,6,154,2,1
179,6,84,2,1
9,6,122,2,1
96,6,117,2,1
331,6,55,2,1
322,6,179,2,1
47,6,34,2,1
4,6,41,2,1
47,6,376,2,1
382,6,48,2,1
11,6,56,2,1
32,6,101,2,1
199,6,131,2,1
117,6,181,2,1
16,6,135,2,1
550,6,309,2,1
2,6,253,2,1
93,6,39,2,1
158,6,320,2,1
142,6,41,2,1
37,7,385,2,1
34,6,47,2,1
102,6,138,2,1
72,6,161,2,1
179,6,68,2,1
155,6,190,2,1
38,7,148,2,1
6,6,156,2,1
408,6,165,2,1
35,6,219,2,1
265,6,69,2,1
78,6,96,2,1
8,6,115,2,1
78,6,330,2,1
168,6,92,2,1
180,6,293,2,1
45,6,166,2,1
4,6,92,2,1
62,6,163,2,1
40,6,176,2,1
212,6,5,2,1
278,6,274,2,1
41,6,127,2,1
75,6,195,2,1
491,6,198,2,1
142,7,562,1,1
31,6,42,2,1
32,6,107,2,1
46,6,161,2,1
129,6,50,2,1
245,6,39,2,1
262,6,64,2,1
112,6,354,2,1
10,6,109,2,1
2,6,176,2,1
158,6,34,2,1
93,6,16,2,1
34,6,38,2,1
182,7,178,2,1
12,6,106,2,1
398,6,93,2,1
266,6,0,2,1
21,6,259,2,1
311,6,104,2,1
219,6,279,2,1
110,6,69,2,1
35,6,168,2,1
91,6,8,2,1
83,6,113,2,1
51,6,91,2,1
97,6,51,2,1
9,6,18,2,1
9,6,301,2,1
314,6,119,2,1
10,6,236,2,1
103,6,123,2,1
30,6,0,2,1
56,6,56,2,1
120,6,137,2,1
186,6,25,2,1
16,6,190,2,1
10,6,84,2,1
122,6,169,2,1
18,6,367,2,1
222,6,327,2,1
60,6,54,2,1
3,6,136,2,1
126,5,13,2,1
98,6,144,2,1
279,6,103,2,1
1,6,28,2,1
135,6,53,2,1
0,6,158,2,1
35,6,64,2,1
35,6,92,2,1
48,6,50,2,1
40,6,164,2,1
14,6,179,2,1
23,6,32,2,1
640,6,203,2,1
111,6,100,2,1
6,6,148,2,1
20,6,195,2,1
215,6,317,2,1
129,6,141,2,1
350,6,110,2,1
109,6,10,2,1
12,6,10,2,1
73,6,122,2,1
164,6,163,2,1
127,6,196,2,1
25,6,127,2,1
113,6,229,2,1
144,6,114,2,1
218,6,90,2,1
77,6,62,2,1
94,6,155,2,1
143,6,116,2,1
76,6,41,2,1
356,6,193,2,1
74,6,26,2,1
117,6,61,2,1
85,6,100,2,1
71,6,140,2,1
85,6,124,2,1
232,6,119,2,1
106,6,78,2,1
78,6,297,2,1
130,6,286,2,1
46,6,13,2,1
113,6,3,2,1
88,6,17,2,1
133,6,53,2,1
169,6,104,2,1
110,6,68,2,1
41,6,148,2,1
71,6,90,2,1
35,6,15,2,1
170,6,0,2,1
213,6,160,2,1
118,7,242,2,1
6,6,182,2,1
78,6,156,2,1
493,6,21,2,1
96,6,165,2,1
341,6,220,2,1
94,6,97,2,1
95,6,20,2,1
338,6,136,2,1
108,6,91,2,1
103,6,248,2,1
81,6,160,2,1
17,6,164,2,1
239,6,110,2,1
163,6,88,2,1
196,6,264,2,1
55,6,151,2,1
47,6,233,2,1
213,6,199,2,1
292,6,82,2,1
121,6,412,2,1
154,6,143,2,1
122,6,350,2,1
28,6,3,2,1
182,6,199,2,1
127,6,65,2,1
144,6,56,2,1
124,6,86,2,1
244,6,291,2,1
104,6,158,2,1
22,6,138,2,1
184,6,177,2,1
34,6,136,2,1
138,7,494,2,1
35,7,578,2,1
79,6,370,2,1
157,6,140,2,1
520,6,276,2,1
171,6,357,2,1
270,6,346,2,1
134,6,476,1,1
271,6,236,2,1
302,6,113,2,1
67,7,501,2,1
140,6,331,1,1
342,6,73,2,1
69,6,273,2,1
12,6,414,2,1
0,6,149,2,1
17,6,382,2,1
328,6,137,2,1
187,6,82,2,1
140,6,292,2,1
29,6,70,2,1
77,6,493,2,1
237,6,265,2,1
157,6,163,2,1
63,6,17,2,1
88,6,190,2,1
321,6,456,2,1
52,6,12,2,1
126,6,309,2,1
285,6,49,2,1
234,6,259,2,1
121,6,5,2,1
138,6,377,2,1
80,6,67,2,1
182,6,430,2,1
18,6,313,2,1
686,6,54,2,1
304,6,183,2,1
551,6,31,2,1
21,6,188,2,1
224,6,88,2,1
122,6,276,2,1
31,6,273,2,1
528,6,39,2,1
65,7,760,2,1
157,5,296,2,1
68,6,221,2,1
258,6,0,2,1
101,6,159,2,1
119,6,263,2,1
113,6,315,2,1
104,6,137,2,1
178,6,152,2,1
86,6,138,2,1
431,6,9,2,1
211,6,174,2,1
442,6,41,2,1
169,6,492,1,1
135,6,268,2,1
147,6,163,2,1
560,6,63,2,1
899,7,123,2,1
46,6,94,2,1
5,6,118,2,1
113,6,19,2,1
49,6,43,2,1
130,6,307,2,1
7,6,276,2,1
116,6,175,2,1
444,6,478,2,1
410,6,249,2,1
85,6,141,2,1
47,6,513,1,1
23,6,309,2,1
46,6,9,2,1
62,6,24,2,1
297,6,318,2,1
183,6,65,2,1
60,7,617,2,1
141,6,252,2,1
307,7,720,2,1
99,7,659,2,1
394,5,18,2,1
30,6,126,2,1
240,6,50,2,1
135,6,290,2,1
260,6,120,2,1
26,6,70,2,1
252,6,31,2,1
206,6,129,2,1
199,6,137,2,1
76,6,205,2,1
102,6,23,2,1
87,6,435,2,1
237,6,134,2,1
177,6,409,2,1
226,6,140,2,1
256,6,365,2,1
233,6,173,2,1
214,6,428,2,1
124,6,80,2,1
142,7,677,2,1
146,6,460,2,1
200,6,119,2,1
113,6,405,2,1
339,6,216,2,1
5,6,66,2,1
67,7,654,2,1
200,7,608,2,1
371,5,0,2,1
282,6,54,2,1
39,6,90,2,1
123,7,453,1,1
82,6,282,2,1
215,6,53,2,1
327,6,50,2,1
127,6,278,2,1
1,6,150,2,1
225,8,899,2,1
1,6,261,2,1
3,6,24,2,1
172,6,167,2,1
32,7,584,2,1
222,6,490,1,1
89,6,395,2,1
311,6,78,2,1
153,6,577,1,1
577,6,122,2,1
191,6,391,2,1
3,6,193,1,1
112,6,139,2,1
273,6,285,2,1
139,6,228,2,1
7,7,582,2,1
217,6,101,2,1
258,6,295,2,1
353,6,496,2,1
824,7,617,2,1
262,6,161,2,1
265,6,0,2,1
69,6,204,2,1
124,6,291,2,1
646,6,25,2,1
373,6,560,1,1
23,6,283,2,1
167,6,129,2,1
13,7,746,1,1
389,6,386,2,1
172,6,519,2,1
105,6,202,2,1
30,7,614,2,1
58,6,135,2,1
5,6,83,2,1
299,6,40,2,1
296,6,0,2,1
171,6,79,2,1
47,6,108,2,1
35,6,132,2,1
165,6,227,2,1
298,6,411,2,1
336,6,373,2,1
134,6,437,2,1
37,6,183,2,1
30,6,444,2,1
285,6,213,2,1
477,6,172,2,1
154,6,103,2,1
585,7,103,2,1
51,7,791,2,1
356,6,681,1,1
23,6,54,2,1
168,6,162,2,1
463,6,309,2,1
417,6,327,2,1
14,6,254,2,1
214,6,288,2,1
62,6,40,2,1
144,6,370,2,1
388,6,0,2,1
20,6,179,2,1
37,6,397,2,1
221,6,159,2,1
16,6,121,2,1
245,6,51,2,1
311,6,200,2,1
287,6,118,2,1
21,6,105,2,1
152,7,591,2,1
196,7,675,2,1
412,6,213,2,1
199,6,281,2,1
11,6,75,2,1
62,6,13,2,1
59,7,497,2,1
330,6,290,2,1
187,6,156,2,1
73,7,530,1,1
91,6,56,2,1
15,6,473,2,1
152,6,213,2,1
43,6,335,2,1
196,6,226,2,1
249,6,290,2,1
91,6,41,2,1
127,7,598,2,1
285,6,54,2,1
150,6,455,2,1
304,6,0,2,1
32,6,0,2,1
242,6,76,2,1
115,6,147,2,1
185,6,49,2,1
172,6,82,2,1
116,6,40,2,1
224,6,91,2,1
36,6,268,2,1
93,6,91,2,1
97,6,156,2,1
246,6,17,2,1
75,6,38,2,1
226,6,70,2,1
115,6,10,2,1
75,7,531,2,1
168,6,177,2,1
243,6,41,2,1
227,6,68,2,1
134,6,4,2,1
62,6,47,2,1
37,6,259,2,1
19,6,75,2,1
324,6,47,2,1
48,6,177,2,1
359,6,92,2,1
10,6,377,2,1
474,6,292,2,1
206,6,121,2,1
23,6,55,2,1
13,6,32,2,1
7,6,0,2,1
145,6,215,2,1
262,6,106,2,1
214,6,138,2,1
114,6,95,2,1
63,6,56,2,1
171,6,348,2,1
19,6,114,2,1
94,6,20,2,1
78,6,109,2,1
46,6,240,2,1
10,6,71,2,1
77,6,262,2,1
157,6,385,2,1
131,6,19,2,1
42,6,78,2,1
88,6,27,2,1
1,6,243,2,1
72,6,75,2,1
155,6,212,2,1
62,6,92,2,1
55,6,12,2,1
23,6,13,2,1
45,6,175,2,1
10,6,13,2,1
33,6,71,2,1
57,6,180,2,1
266,6,183,2,1
308,6,88,2,1
117,6,30,2,1
140,6,102,2,1
52,6,81,2,1
181,6,90,2,1
214,6,74,2,1
129,6,38,2,1
28,7,296,2,1
170,6,50,2,1
196,6,233,2,1
246,6,246,2,1
12,6,241,2,1
99,7,203,2,1
181,6,189,2,1
250,6,195,2,1
10,6,33,2,1
0,6,125,2,1
9,6,12,2,1
38,6,241,2,1
95,6,0,2,1
36,6,0,2,1
323,6,21,2,1
198,6,108,2,1
125,6,166,2,1
40,6,100,2,1
57,6,238,2,1
103,6,65,2,1
226,6,9,2,1
98,6,0,2,1
32,6,177,2,1
14,6,240,2,1
116,6,290,2,1
60,6,40,2,1
6,6,131,2,1
29,6,34,2,1
106,6,203,2,1
1,6,208,2,1
216,6,0,2,1
120,6,191,2,1
114,6,39,2,1
96,6,283,2,1
18,6,0,2,1
203,6,0,2,1
42,6,111,2,1
18,6,70,2,1
11,6,56,2,1
4,6,114,2,1
24,6,136,2,1
18,6,0,2,1
16,6,27,2,1
222,6,31,2,1
160,6,234,2,1
157,6,79,2,1
135,6,33,2,1
79,6,122,2,1
15,6,98,2,1
163,6,215,2,1
122,6,0,2,1
62,6,49,2,1
151,6,138,2,1
167,6,4,2,1
95,6,148,2,1
63,6,90,2,1
37,6,166,2,1
216,6,216,2,1
146,6,142,2,1
34,6,33,2,1
107,6,119,2,1
84,6,11,2,1
4,6,59,2,1
177,6,98,2,1
163,7,330,2,1
41,6,56,2,1
69,6,112,2,1
68,6,11,2,1
20,6,116,2,1
82,6,0,2,1
0,6,5,2,1
162,6,15,2,1
63,6,32,2,1
119,6,50,2,1
14,6,0,2,1
20,6,45,2,1
166,6,329,2,1
163,6,342,2,1
66,6,148,2,1
129,6,133,2,1
215,6,15,2,1
14,6,25,2,1
125,6,323,2,1
214,6,214,2,1
9,6,85,2,1
84,6,18,2,1
1,6,170,2,1
117,6,236,2,1
26,6,23,2,1
77,6,45,2,1
71,6,290,2,1
73,6,137,2,1
136,6,71,2,1
94,6,186,2,1
185,6,191,2,1
217,6,0,2,1
18,6,0,2,1
164,6,43,2,1
47,6,165,2,1
222,6,338,2,1
174,6,268,2,1
25,6,236,2,1
57,6,0,2,1
123,6,204,2,1
46,6,16,2,1
13,6,236,2,1
52,6,95,2,1
1,6,190,2,1
34,6,101,2,1
1,6,182,2,1
35,6,333,2,1
141,6,34,2,1
14,6,199,2,1
125,6,67,2,1
58,6,195,2,1
1,6,192,2,1
30,6,5,2,1
87,6,180,2,1
27,6,142,2,1
298,6,164,2,1
1,6,87,2,1
243,6,129,2,1
144,6,262,2,1
127,6,146,2,1
72,6,0,2,1
176,6,325,2,1
47,6,274,2,1
96,6,16,2,1
2,6,224,2,1
85,6,39,2,1
8,6,95,2,1
93,6,298,2,1
2,6,99,2,1
86,6,1,2,1
47,6,12,2,1
3,6,119,2,1
47,6,60,2,1
65,6,94,2,1
13,6,6,2,1
1,6,34,2,1
3,6,176,2,1
149,6,154,2,1
162,6,165,2,1
47,6,169,2,1
81,6,51,2,1
220,6,85,2,1
0,6,43,2,1
191,6,81,2,1
240,6,415,2,1
177,6,220,2,1
218,6,76,2,1
143,6,88,2,1
128,6,0,2,1
119,6,10,2,1
75,6,111,2,1
54,6,117,2,1
70,6,172,2,1
51,6,72,2,1
141,6,172,2,1
41,6,139,2,1
11,6,49,2,1
0,6,0,2,1
8,6,287,2,1
37,7,395,2,1
1,6,59,2,1
11,6,0,2,1
148,6,285,2,1
48,6,263,2,1
280,6,0,2,1
73,6,68,2,1
38,6,36,2,1
105,6,331,2,1
120,6,178,2,1
131,6,168,2,1
82,6,0,2,1
48,6,0,2,1
2,7,308,2,1
3,6,176,2,1
95,6,207,2,1
56,6,51,2,1
3,6,106,2,1
136,6,145,2,1
151,6,172,2,1
17,6,248,2,1
10,6,92,2,1
188,6,231,2,1
11,6,169,2,1
117,6,6,2,1
15,6,59,2,1
5,6,51,2,1
4,6,0,2,1
40,6,47,2,1
10,6,0,2,1
93,6,266,2,1
9,6,94,2,1
82,6,52,2,1
1,6,0,2,1
2,6,15,2,1
68,6,17,2,1
59,6,151,2,1
164,6,27,2,1
18,6,6,2,1
35,6,129,2,1
24,6,14,2,1
259,6,98,2,1
66,6,114,2,1
123,6,7,2,1
40,6,40,2,1
164,6,34,2,1
131,6,0,2,1
151,6,0,2,1
224,6,70,2,1
50,6,23,2,1
25,6,111,2,1
10,6,176,2,1
50,6,178,2,1
66,6,89,2,1
108,6,0,2,1
29,6,48,2,1
126,6,364,2,1
84,6,81,2,1
37,6,0,2,1
146,6,25,2,1
28,6,11,2,1
285,6,380,2,1
133,6,84,2,1
84,6,211,2,1
69,6,263,2,1
157,6,158,2,1
331,6,352,2,1
333,6,0,2,1
106,6,101,2,1
80,6,42,2,1
14,6,104,2,1
110,7,241,2,1
61,6,75,2,1
91,6,86,2,1
250,6,0,2,1
43,6,0,2,1
28,6,117,2,1
44,7,359,2,1
10,6,213,2,1
31,6,106,2,1
21,6,110,2,1
332,6,2,2,1
4,6,94,2,1
42,6,0,2,1
113,6,168,1,1
13,6,31,2,1
19,6,79,2,1
202,6,82,2,1
20,6,154,2,1
28,6,158,2,1
25,6,34,2,1
29,6,4,2,1
59,6,224,2,1
35,6,24,2,1
134,6,172,2,1
148,6,166,2,1
5,6,47,2,1
119,6,74,2,1
58,6,32,2,1
198,6,133,2,1
31,6,17,2,1
27,6,43,2,1
15,6,171,2,1
44,6,51,2,1
83,6,68,2,1
13,6,0,2,1
78,6,93,2,1
178,6,0,2,1
47,6,154,2,1
32,6,150,2,1
64,6,32,2,1
138,6,156,2,1
130,6,240,2,1
88,6,93,2,1
118,6,452,2,1
88,6,26,2,1
59,6,406,2,1
4,6,138,2,1
1,6,162,2,1
76,6,39,2,1
3,6,222,2,1
98,6,71,2,1
348,6,236,2,1
31,6,352,2,1
197,6,226,2,1
207,6,0,2,1
19,6,175,2,1
118,6,89,2,1
137,6,122,2,1
229,6,7,2,1
15,6,42,2,1
81,6,39,2,1
41,6,26,2,1
62,6,40,2,1
8,6,50,2,1
83,6,243,2,1
6,6,204,2,1
126,6,244,2,1
51,6,69,2,1
79,6,0,2,1
0,6,17,2,1
21,6,165,2,1
92,6,355,2,1
66,6,73,2,1
6,6,7,2,1
11,6,0,2,1
0,6,7,2,1
45,6,7,2,1
109,6,18,2,1
13,6,105,2,1
106,6,7,2,1
50,6,1,2,1
210,6,84,2,1
11,6,0,2,1
85,6,152,2,1
30,6,56,2,1
9,6,33,2,1
83,6,34,2,1
103,6,59,2,1
220,6,67,2,1
19,6,51,2,1
151,6,94,2,1
153,6,148,2,1
32,6,38,2,1
195,6,233,2,1
45,6,167,2,1
10,6,0,2,1
21,6,17,2,1
153,6,226,2,1
0,6,319,2,1
39,6,11,2,1
126,6,82,2,1
136,6,138,2,1
98,6,64,2,1
67,6,180,2,1
82,6,31,2,1
197,6,0,2,1
6,6,209,2,1
29,6,35,2,1
40,6,0,2,1
28,6,215,2,1
86,6,144,2,1
16,6,243,2,1
249,6,107,2,1
166,6,79,2,1
57,6,35,2,1
176,6,52,2,1
121,6,112,2,1
155,6,38,2,1
373,6,83,2,1
160,6,256,2,1
11,5,9,2,1
67,6,74,2,1
21,6,0,2,1
236,6,113,2,1
55,6,23,2,1
135,6,309,2,1
199,6,9,2,1
110,6,193,2,1
142,6,33,2,1
387,6,266,2,1
30,6,9,2,1
149,6,188,2,1
32,6,297,2,1
218,6,126,2,1
13,6,149,2,1
11,6,54,2,1
149,6,75,2,1
227,6,29,2,1
394,6,91,2,1
201,6,181,2,1
410,6,0,2,1
462,7,156,2,1
215,6,246,2,1
107,6,161,2,1
111,6,252,2,1
55,6,186,2,1
282,6,173,2,1
107,6,501,2,1
194,6,137,2,1
22,6,137,2,1
4,6,0,2,1
66,6,0,2,1
127,6,101,2,1
46,6,97,2,1
84,6,187,2,1
73,6,2,2,1
94,6,0,2,1
67,6,122,2,1
4,6,187,2,1
427,6,92,2,1
240,6,36,2,1
58,6,155,2,1
16,6,254,2,1
239,6,153,2,1
148,6,133,2,1
90,6,146,2,1
487,6,224,2,1
326,6,179,2,1
232,6,302,2,1
446,6,0,2,1
138,6,228,2,1
370,6,230,2,1
109,7,545,1,1
26,6,82,2,1
9,8,888,2,1
398,6,633,2,1
4,5,98,2,1
81,6,28,2,1
111,7,464,2,1
179,6,267,2,1
224,6,109,2,1
128,6,127,2,1
76,6,352,2,1
116,6,16,2,1
176,6,199,2,1
147,6,176,2,1
45,6,96,2,1
39,6,65,2,1
41,7,444,2,1
221,6,61,2,1
97,6,424,2,1
255,6,11,2,1
296,6,374,2,1
84,6,552,2,1
164,6,33,2,1
7,6,328,2,1
144,6,197,2,1
74,6,110,2,1
163,6,295,2,1
31,6,157,2,1
319,7,679,1,1
234,5,0,2,1
153,6,364,2,1
172,6,48,2,1
36,6,120,2,1
277,6,446,2,1
18,6,5,2,1
165,6,56,2,1
239,6,209,2,1
297,6,20,2,1
191,6,308,2,1
70,6,183,2,1
91,6,285,2,1
184,7,696,1,1
328,7,874,2,1
276,5,24,2,1
64,6,227,2,1
257,6,144,2,1
28,6,325,2,1
118,6,369,2,1
268,6,3,2,1
50,6,119,2,1
519,6,122,2,1
273,6,39,2,1
76,7,639,2,1
338,6,14,2,1
30,7,653,2,1
206,5,81,2,1
30,90,348,2,1
332,442,121,2,1
91,88,426,1,1
205,12,301,2,1
162,5,197,2,1
54,5,209,2,1
208,6,282,2,1
147,6,156,2,1
263,6,520,1,1
41,6,45,2,1
101,6,325,2,1
5,7,744,2,1
218,7,999,1,1
238,6,177,2,1
296,6,427,2,1
659,6,224,2,1
515,6,66,2,1
463,6,111,2,1
69,6,486,1,1
9,6,163,2,1
316,7,730,1,1
607,6,425,2,1
167,7,679,1,1
422,6,291,2,1
22,6,319,2,1
13,6,46,2,1
65,6,235,2,1
24,6,59,2,1
112,6,210,2,1
157,6,31,2,1
11,7,667,2,1
256,7,711,1,1
416,6,124,2,1
315,6,47,2,1
26,6,10,2,1
117,7,607,2,1
146,7,683,1,1
201,6,535,2,1
204,6,77,2,1
374,6,404,2,1
245,6,48,2,1
93,6,407,2,1
5,6,469,2,1
364,6,193,2,1
0,6,57,2,1
203,7,463,2,1
53,6,232,2,1
188,6,140,2,1
189,6,211,2,1
243,6,62,2,1
105,7,247,2,1
349,6,550,1,1
81,6,18,2,1
273,7,590,2,1
20,6,194,2,1
167,6,316,2,1
131,6,365,2,1
553,7,452,2,1
80,6,260,2,1
499,6,161,2,1
218,6,313,2,1
206,7,689,2,1
373,6,652,1,1
629,6,289,2,1
347,6,114,2,1
180,6,312,2,1
66,6,61,2,1
261,6,276,2,1
15,6,67,2,1
36,6,434,2,1
120,6,62,2,1
148,6,69,2,1
55,6,299,1,1
157,6,256,2,1
408,6,364,2,1
633,6,8,2,1
211,6,579,1,1
317,7,567,2,1
168,6,396,2,1
409,6,92,2,1
516,6,52,2,1
141,6,23,2,1
55,6,263,2,1
19,6,25,2,1
57,6,194,2,1
40,6,148,2,1
182,6,146,2,1
194,6,212,2,1
21,6,57,2,1
13,6,126,2,1
112,6,102,2,1
147,6,211,2,1
120,7,471,2,1
111,6,150,2,1
18,6,264,2,1
398,6,51,2,1
238,7,590,1,1
30,6,309,2,1
225,6,161,2,1
130,6,47,2,1
251,7,552,2,1
23,6,190,2,1
96,7,384,1,1
147,6,141,2,1
127,6,576,2,1
409,6,185,2,1
366,6,302,2,1
103,6,121,2,1
101,6,138,2,1
316,7,388,2,1
470,6,109,2,1
120,6,361,2,1
94,7,894,1,1
489,13,1023,0,1
880,866,250,2,1
9,284,451,2,1
269,52,301,2,1
25,7,481,2,1
441,5,4,2,1
19,6,383,2,1
356,6,48,2,1
31,6,131,2,1
90,6,69,2,1
71,6,266,2,1
521,6,43,2,1
156,6,211,2,1
228,6,452,2,1
141,7,678,2,1
92,5,19,2,1
106,6,301,2,1
0,6,158,2,1
171,6,201,2,1
498,6,48,2,1
81,6,25,2,1
118,6,68,2,1
65,6,20,2,1
104,6,184,2,1
39,6,87,2,1
181,6,0,2,1
196,6,60,2,1
126,6,48,2,1
1,6,175,2,1
169,6,48,2,1
39,6,135,2,1
351,6,31,2,1
50,6,77,2,1
181,6,174,2,1
69,6,135,2,1
104,7,168,2,1
318,6,196,2,1
393,6,43,2,1
51,6,0,2,1
129,6,0,2,1
34,6,98,2,1
54,6,321,2,1
142,6,325,2,1
3,6,66,2,1
78,6,20,2,1
45,6,115,2,1
295,6,85,2,1
205,6,87,2,1
15,6,31,2,1
97,6,56,2,1
221,6,133,2,1
297,6,13,2,1
79,6,105,2,1
155,6,7,2,1
5,6,146,2,1
250,6,0,2,1
8,6,193,2,1
195,7,159,2,1
97,6,131,2,1
24,6,358,2,1
35,6,467,2,1
23,6,9,2,1
9,6,112,2,1
0,6,69,2,1
40,6,325,2,1
291,6,317,2,1
5,6,49,2,1
213,6,29,2,1
44,6,38,2,1
142,6,165,2,1
17,6,94,2,1
80,6,68,2,1
25,6,2,2,1
7,6,3,2,1
42,6,128,2,1
178,6,79,2,1
71,6,178,2,1
152,6,223,2,1
68,6,7,2,1
85,6,30,2,1
100,6,33,2,1
123,6,71,2,1
165,6,239,2,1
120,6,81,2,1
13,6,36,2,1
155,6,63,2,1
16,6,75,2,1
94,6,4,2,1
11,6,86,2,1
55,6,159,2,1
230,6,58,2,1
131,6,86,2,1
16,6,45,2,1
69,6,180,2,1
2,6,21,2,1
4,6,0,2,1
11,6,220,2,1
130,6,49,2,1
289,6,23,2,1
214,6,61,2,1
45,6,265,1,1
38,6,217,2,1
39,6,43,2,1
6,6,80,2,1
128,6,42,2,1
33,6,63,2,1
107,6,204,2,1
34,6,0,2,1
1,6,101,2,1
199,6,212,2,1
210,6,139,2,1
271,6,215,2,1
410,6,0,2,1
6,6,91,2,1
196,6,267,2,1
43,6,367,2,1
256,6,0,2,1
64,6,248,2,1
98,6,10,2,1
40,6,323,2,1
258,6,2,2,1
244,6,10,2,1
156,6,45,2,1
58,6,0,2,1
20,6,113,2,1
5,6,303,2,1
53,6,14,2,1
57,6,15,2,1
112,6,367,2,1
247,6,175,2,1
199,6,39,2,1
184,6,143,2,1
126,6,139,2,1
135,6,323,2,1
212,6,242,2,1
1,6,0,2,1
141,6,48,2,1
78,7,432,1,1
227,6,371,2,1
18,6,219,2,1
338,6,404,2,1
51,6,412,2,1
194,6,316,2,1
3,6,438,2,1
30,6,243,2,1
178,6,159,2,1
64,6,166,2,1
116,6,391,2,1
87,6,87,2,1
65,6,136,2,1
267,6,17,2,1
162,6,92,2,1
100,6,0,2,1
0,6,11,2,1
47,6,173,2,1
101,6,141,2,1
121,6,240,2,1
18,6,49,2,1
11,6,142,2,1
8,6,23,2,1
75,6,295,2,1
56,6,0,2,1
93,6,39,2,1
37,6,91,2,1
7,6,122,2,1
10,6,83,2,1
13,6,0,2,1
125,6,16,2,1
6,6,283,2,1
7,6,272,1,1
67,6,79,2,1
368,7,372,2,1
80,6,147,2,1
255,6,3,2,1
147,6,306,2,1
256,6,172,2,1
3,6,4,2,1
34,6,222,2,1
103,6,133,2,1
67,6,44,2,1
46,6,31,2,1
100,6,27,2,1
54,6,278,2,1
105,6,59,2,1
8,6,0,2,1
26,6,4,2,1
176,6,28,2,1
85,6,197,2,1
43,6,123,2,1
93,6,112,2,1
114,6,99,2,1
82,6,2,2,1
25,6,0,2,1
44,6,123,2,1
16,6,0,2,1
151,6,41,2,1
81,6,81,2,1
91,6,183,2,1
124,6,0,2,1
164,6,343,2,1
15,6,189,2,1
7,6,29,2,1
53,6,3,2,1
47,6,31,2,1
12,6,64,2,1
49,6,87,2,1
2,6,129,2,1
35,6,18,2,1
48,6,153,2,1
30,6,133,2,1
106,6,131,2,1
326,6,33,2,1
251,6,49,2,1
147,6,93,2,1
20,6,291,2,1
121,6,321,2,1
23,6,299,2,1
163,6,113,2,1
199,6,282,2,1
18,6,74,2,1
87,6,20,2,1
66,7,382,2,1
99,6,58,2,1
70,7,518,2,1
119,6,12,2,1
14,6,25,2,1
84,6,111,2,1
75,6,83,2,1
231,7,272,2,1
239,6,149,2,1
66,6,198,2,1
64,6,218,2,1
99,6,28,2,1
38,6,93,2,1
52,6,78,2,1
4,6,58,2,1
45,6,25,2,1
66,6,356,2,1
104,6,85,2,1
113,6,301,2,1
189,6,0,2,1
0,6,193,2,1
188,6,360,2,1
52,6,429,2,1
19,6,122,2,1
2,6,108,2,1
184,6,365,2,1
54,6,34,2,1
49,6,256,2,1
116,6,113,2,1
44,6,179,2,1
235,6,215,2,1
99,6,82,2,1
120,6,138,2,1
113,6,260,2,1
1,6,0,2,1
215,6,269,2,1
318,6,148,2,1
109,6,333,2,1
65,6,163,2,1
30,6,251,2,1
49,6,213,2,1
172,6,39,2,1
62,6,221,2,1
29,6,271,2,1
20,6,24,2,1
93,6,58,2,1
141,6,30,2,1
130,6,120,2,1
123,6,37,2,1
71,6,82,2,1
5,6,110,2,1
87,6,121,2,1
252,6,0,2,1
17,6,161,2,1
93,6,177,2,1
56,7,444,2,1
230,6,15,2,1
366,6,182,2,1
4,6,25,2,1
85,6,135,2,1
66,6,66,2,1
116,6,5,2,1
183,6,238,2,1
2,6,118,2,1
6,6,140,2,1
54,6,23,2,1
24,6,101,2,1
125,6,29,2,1
29,6,11,2,1
20,6,184,2,1
74,6,48,2,1
264,6,79,2,1
82,6,0,2,1
7,6,0,2,1
36,6,287,2,1
153,6,289,2,1
89,6,115,2,1
90,6,68,2,1
103,6,69,2,1
36,6,53,2,1
217,6,59,2,1
182,6,108,2,1
109,6,289,2,1
45,6,23,2,1
37,6,107,2,1
5,6,139,2,1
7,6,271,2,1
5,6,164,2,1
62,6,254,2,1
175,6,241,2,1
95,6,58,2,1
134,6,294,2,1
12,6,131,2,1
40,6,334,2,1
32,6,163,2,1
35,6,198,2,1
38,6,302,2,1
55,6,62,2,1
216,6,142,2,1
83,6,197,2,1
136,6,0,2,1
59,6,147,2,1
213,6,63,2,1
72,6,79,2,1
100,6,0,2,1
71,6,60,2,1
30,6,177,2,1
8,6,227,2,1
54,6,1,2,1
131,6,31,2,1
5,6,61,2,1
42,6,157,2,1
88,6,30,2,1
50,6,194,2,1
75,6,25,2,1
52,6,140,2,1
133,6,69,2,1
162,6,0,2,1
64,6,0,2,1
41,6,98,2,1
49,6,59,2,1
103,6,24,2,1
77,6,9,2,1
144,6,0,2,1
145,6,208,2,1
48,6,66,2,1
48,6,74,2,1
7,6,190,2,1
41,6,69,2,1
109,6,129,2,1
0,6,24,2,1
83,6,123,2,1
50,6,0,2,1
177,6,4,2,1
29,6,132,2,1
89,6,22,2,1
91,6,326,2,1
14,6,70,2,1
120,6,168,2,1
44,6,8,2,1
108,6,51,2,1
178,6,23,2,1
1,6,120,2,1
7,6,32,2,1
45,6,134,2,1
104,6,142,2,1
43,6,44,2,1
1,6,58,2,1
36,6,102,2,1
125,6,29,2,1
63,6,54,2,1
327,6,46,2,1
143,6,0,2,1
58,6,0,2,1
114,6,147,2,1
56,6,0,2,1
72,6,0,2,1
136,6,77,2,1
99,6,99,2,1
74,6,51,2,1
45,6,289,2,1
272,6,136,2,1
279,6,82,2,1
10,6,314,2,1
0,6,121,2,1
129,6,262,2,1
8,6,156,2,1
294,7,379,2,1
186,6,44,2,1
50,6,252,2,1
409,6,23,2,1
177,6,17,2,1
10,6,55,2,1
419,7,84,2,1
51,6,129,2,1
183,6,56,2,1
321,6,137,2,1
8,6,211,2,1
146,6,78,2,1
15,6,119,2,1
5,6,0,2,1
529,7,116,2,1
239,6,205,2,1
185,6,74,2,1
201,6,167,2,1
290,6,186,2,1
13,6,56,2,1
42,6,136,2,1
34,6,0,2,1
172,6,23,2,1
176,6,227,2,1
179,6,18,2,1
73,6,272,2,1
34,7,419,2,1
237,6,15,2,1
191,6,352,2,1
95,6,0,2,1
155,6,78,2,1
65,6,14,2,1
73,6,0,2,1
31,6,146,2,1
368,6,90,2,1
202,6,47,2,1
228,6,348,1,1
286,6,53,2,1
122,6,240,2,1
20,6,4,2,1
37,6,115,2,1
676,7,32,2,1
211,6,530,2,1
18,6,245,2,1
211,6,54,2,1
56,6,166,2,1
48,6,355,2,1
85,6,440,2,1
70,7,357,1,1
13,7,524,2,1
166,6,87,2,1
188,6,322,2,1
229,6,85,2,1
236,6,15,2,1
267,6,0,2,1
8,6,30,2,1
283,6,93,2,1
281,6,273,2,1
606,6,0,2,1
169,6,161,2,1
310,6,109,2,1
87,6,290,2,1
16,7,457,2,1
186,6,108,2,1
75,6,72,2,1
55,6,221,2,1
148,6,283,2,1
69,6,171,2,1
317,6,0,2,1
71,6,245,2,1
0,6,302,2,1
190,7,571,2,1
169,6,50,2,1
14,6,293,2,1
296,6,67,2,1
11,6,30,2,1
49,6,101,2,1
196,6,311,2,1
302,6,6,2,1
66,7,347,2,1
344,6,85,2,1
157,6,40,2,1
130,6,24,2,1
138,6,141,2,1
16,6,112,2,1
86,6,26,2,1
63,7,496,1,1
66,7,627,1,1
97,6,364,2,1
166,6,99,2,1
39,7,565,1,1
294,6,282,2,1
214,6,0,2,1
291,6,26,2,1
424,8,786,1,1
763,7,1023,1,1
132,766,146,2,1
6,278,400,2,1
22,51,164,2,1
304,7,41,2,1
146,5,246,2,1
146,6,277,2,1
35,6,209,2,1
476,6,196,2,1
97,6,78,2,1
454,7,488,2,1
158,7,713,2,1
63,6,228,2,1
71,6,44,2,1
43,6,80,2,1
151,6,37,2,1
243,6,47,2,1
68,6,151,2,1
171,6,85,2,1
359,7,709,2,1
173,6,526,2,1
0,6,102,2,1
48,6,84,2,1
84,6,220,2,1
200,6,432,2,1
219,6,365,2,1
144,6,554,2,1
48,6,307,2,1
5,6,127,2,1
146,6,461,2,1
507,6,97,2,1
607,7,540,2,1
88,6,74,2,1
73,7,629,1,1
312,6,129,2,1
139,6,359,2,1
4,6,177,2,1
291,7,436,2,1
82,6,469,2,1
283,6,143,2,1
27,6,364,2,1
96,6,64,2,1
55,6,56,2,1
40,6,46,2,1
362,6,0,2,1
184,6,190,2,1
34,6,22,2,1
350,7,467,2,1
65,7,818,1,1
96,6,776,2,1
66,5,0,2,1
12,6,298,2,1
13,6,152,2,1
517,7,349,2,1
254,6,138,2,1
131,6,488,2,1
338,6,55,2,1
265,6,48,2,1
290,6,77,2,1
315,6,370,2,1
61,6,99,2,1
80,6,53,2,1
83,6,97,2,1
89,6,325,2,1
2,6,258,2,1
22,6,297,2,1
26,6,493,2,1
70,6,189,2,1
188,6,299,2,1
295,6,461,2,1
320,6,665,2,1
19,6,189,2,1
8,6,251,2,1
243,6,130,2,1
82,6,98,2,1
132,7,683,2,1
105,6,656,2,1
136,6,131,2,1
57,6,55,2,1
216,6,356,2,1
300,6,356,2,1
71,6,26,2,1
40,6,3,2,1
214,6,87,2,1
261,6,177,2,1
186,6,385,2,1
117,6,309,2,1
235,6,21,2,1
143,6,380,2,1
17,6,520,2,1
220,6,668,1,1
338,6,49,2,1
166,6,630,2,1
0,6,317,2,1
165,6,249,2,1
73,6,250,2,1
132,6,154,2,1
92,6,0,2,1
92,6,339,1,1
182,6,210,2,1
200,6,558,1,1
169,6,50,2,1
52,6,301,2,1
125,6,75,2,1
19,6,57,2,1
299,9,635,2,1
357,5,1023,1,1
755,5,1,2,1
50,6,462,1,1
216,6,108,2,1
131,6,67,2,1
183,6,308,2,1
46,6,22,2,1
68,6,59,2,1
0,6,171,2,1
11,6,264,2,1
2,6,109,2,1
192,6,0,2,1
66,6,157,2,1
142,6,92,2,1
22,6,418,2,1
337,6,146,2,1
65,6,280,2,1
6,6,133,2,1
144,6,203,2,1
108,6,0,2,1
212,6,34,2,1
42,6,168,2,1
11,6,291,2,1
68,6,46,2,1
85,6,0,2,1
10,6,0,2,1
133,6,204,2,1
167,6,74,2,1
191,6,36,2,1
41,6,0,2,1
61,6,51,2,1
4,6,37,2,1
24,6,38,2,1
27,6,29,2,1
34,6,148,2,1
42,6,73,2,1
20,6,42,2,1
7,6,214,2,1
58,6,148,2,1
52,6,29,2,1
57,6,73,2,1
11,6,0,2,1
82,6,180,2,1
106,6,51,2,1
74,6,154,2,1
219,6,20,2,1
237,6,4,2,1
46,6,31,2,1
46,6,69,2,1
27,6,228,2,1
99,6,211,2,1
104,6,22,2,1
28,6,59,2,1
16,6,212,1,1
10,6,35,2,1
126,6,215,2,1
11,6,229,2,1
231,6,74,2,1
47,6,110,2,1
53,6,0,2,1
61,6,91,2,1
5,6,397,2,1
4,6,131,2,1
20,6,0,2,1
266,6,155,2,1
254,6,82,2,1
72,6,94,2,1
43,6,0,2,1
65,6,59,2,1
32,6,117,2,1
164,6,17,2,1
17,6,135,2,1
78,6,55,2,1
44,6,103,2,1
106,6,37,2,1
58,6,52,2,1
137,6,74,2,1
95,6,33,2,1
50,6,346,2,1
205,6,236,2,1
193,6,245,2,1
17,6,82,2,1
0,6,11,2,1
22,6,311,2,1
370,6,266,2,1
279,6,17,2,1
92,6,4,2,1
91,6,12,2,1
37,6,150,2,1
135,6,100,2,1
73,6,0,2,1
43,6,0,2,1
30,6,190,2,1
3,6,83,2,1
63,7,355,1,1
164,6,164,2,1
185,6,101,2,1
66,6,141,2,1
161,6,56,2,1
296,6,88,2,1
134,6,75,2,1
33,6,94,2,1
24,6,39,2,1
134,6,62,2,1
64,6,50,2,2
65,6,49,2,2
11,6,0,2,2
89,6,0,2,2
72,6,72,2,2
128,6,24,2,2
162,6,0,2,2
77,6,6,2,2
17,6,0,2,2
97,6,0,2,2
36,6,148,2,2
58,6,169,2,2
83,6,147,2,2
74,6,0,2,2
195,6,113,2,2
64,6,10,2,2
3,6,31,2,2
158,6,32,2,2
428,6,41,2,2
32,6,145,2,2
119,6,206,2,2
100,6,72,2,2
22,6,152,2,2
94,6,31,2,2
117,6,174,2,2
69,6,34,2,2
163,6,129,2,2
112,6,139,2,2
138,6,149,2,2
273,6,38,2,2
189,6,105,2,2
22,6,99,2,2
219,6,103,2,2
115,6,193,2,2
71,6,33,2,2
41,6,68,2,2
3,6,53,2,2
258,6,209,2,2
151,6,38,2,2
22,6,24,2,2
122,6,375,2,2
252,6,186,2,2
22,6,51,2,2
91,6,121,2,2
126,6,65,2,2
143,6,128,2,2
228,6,411,2,2
113,6,49,2,2
5,6,5,2,2
115,6,94,2,2
16,6,83,2,2
174,6,18,2,2
12,6,231,2,2
206,7,521,2,2
75,6,23,2,2
16,6,159,2,2
21,6,0,2,2
42,6,74,2,2
48,6,304,2,2
234,6,86,2,2
24,6,144,2,2
249,6,209,1,2
19,6,17,2,2
158,6,116,2,2
8,6,186,1,2
71,6,197,2,2
65,6,89,2,2
89,6,12,2,2
207,6,261,2,2
58,6,297,2,2
31,6,92,2,2
29,6,12,2,2
32,6,31,2,2
220,6,31,2,2
47,6,10,2,2
243,6,24,2,2
0,6,16,2,2
33,6,247,2,2
142,6,137,2,2
56,6,305,2,2
31,6,116,2,2
108,6,112,2,2
164,6,160,2,2
379,6,2,2,2
188,6,76,2,2
12,6,100,2,2
98,6,63,2,2
15,6,22,2,2
283,6,127,2,2
154,6,1,2,2
145,6,16,2,2
66,6,234,2,2
21,6,95,2,2
109,6,28,2,2
86,6,29,2,2
61,6,54,2,2
84,6,290,2,2
8,6,121,2,2
68,6,207,2,2
7,6,154,2,2
19,6,331,1,2
14,6,9,2,2
9,6,49,2,2
118,6,66,2,2
58,6,274,2,2
143,6,29,2,2
126,6,18,2,2
0,6,6,2,2
33,6,198,2,2
0,6,126,2,2
84,6,143,2,2
81,6,22,2,2
54,6,15,2,2
17,6,329,2,2
29,6,41,2,2
199,6,14,2,2
109,6,0,2,2
252,6,236,2,2
27,6,196,2,2
248,6,298,2,2
0,6,256,2,2
51,6,107,2,2
159,6,124,2,2
134,6,2,2,2
132,6,176,2,2
46,6,5,2,2
61,6,45,2,2
220,7,430,2,2
0,6,332,2,2
0,6,23,2,2
123,6,172,2,2
83,6,60,2,2
70,6,86,2,2
3,6,3,2,2
63,6,26,2,2
54,6,224,2,2
51,6,117,2,2
50,6,34,2,2
241,6,16,2,2
58,6,331,2,2
40,6,0,2,2
94,6,135,2,2
63,6,109,2,2
5,6,199,2,2
91,6,157,2,2
104,6,100,2,2
22,6,127,2,2
168,6,194,2,2
9,6,133,2,2
26,6,100,2,2
105,6,111,2,2
75,6,67,2,2
9,6,76,2,2
97,6,15,2,2
65,6,160,2,2
187,6,125,2,2
30,6,121,2,2
163,6,88,2,2
88,6,127,2,2
121,6,53,2,2
22,6,217,2,2
22,6,287,2,2
2,6,66,2,2
123,6,91,2,2
36,6,0,2,2
42,6,197,2,2
45,6,0,2,2
110,6,97,2,2
23,6,182,2,2
220,6,68,2,2
15,6,118,2,2
52,6,0,2,2
95,6,109,2,2
19,6,78,2,2
82,6,106,2,2
144,6,331,2,2
15,6,108,2,2
60,6,46,2,2
201,6,139,2,2
27,6,14,2,2
119,6,103,2,2
1,6,9,2,2
66,6,150,2,2
42,6,123,2,2
66,6,65,2,2
160,6,184,2,2
16,6,6,2,2
98,6,73,2,2
113,6,166,2,2
91,6,6,2,2
9,6,6,2,2
148,6,126,2,2
6,6,8,2,2
90,6,27,2,2
35,6,191,2,2
38,6,164,2,2
208,6,276,2,2
131,6,164,2,2
88,6,123,2,2
193,6,369,2,2
176,6,196,2,2
315,6,55,2,2
65,6,211,2,2
125,6,31,2,2
128,6,65,2,2
153,6,54,2,2
91,6,0,2,2
99,6,84,2,2
30,6,65,2,2
28,6,61,2,2
56,6,63,2,2
21,6,28,2,2
70,6,21,2,2
6,6,35,2,2
102,6,115,2,2
120,6,125,2,2
53,6,103,2,2
16,6,222,2,2
58,6,50,2,2
94,6,27,2,2
57,6,140,2,2
52,7,391,2,2
64,6,196,2,2
256,6,133,2,2
139,6,214,2,2
19,6,22,2,2
106,7,482,2,2
146,6,396,2,2
66,6,125,2,2
3,6,401,2,2
296,6,412,1,2
55,6,142,2,2
55,6,20,2,2
105,6,122,2,2
97,6,0,2,2
254,6,32,2,2
272,6,102,2,2
32,6,31,2,2
218,6,59,2,2
244,6,168,2,2
46,6,106,2,2
126,6,1,2,2
123,6,14,2,2
121,6,231,2,2
47,6,61,2,2
58,6,141,2,2
131,6,105,2,2
58,6,283,2,2
347,6,220,2,2
22,6,290,2,2
54,6,151,2,2
161,6,184,2,2
231,6,290,2,2
555,6,202,2,2
583,6,0,2,2
282,6,0,2,2
163,6,85,2,2
51,6,138,2,2
341,6,190,2,2
167,6,8,2,2
441,6,163,2,2
227,6,177,2,2
60,6,39,2,2
125,6,41,2,2
454,6,24,2,2
350,6,112,2,2
246,6,66,2,2
341,6,150,2,2
133,6,140,2,2
394,6,162,2,2
101,6,148,1,2
6,6,165,2,2
101,6,312,2,2
16,6,28,2,2
39,6,0,2,2
45,6,26,2,2
47,6,264,2,2
127,7,705,1,2
263,6,220,2,2
366,6,57,2,2
334,6,393,2,2
291,6,251,1,2
58,6,113,2,2
2,6,10,2,2
349,6,69,2,2
173,6,169,2,2
69,6,20,2,2
169,6,7,2,2
37,7,654,2,2
190,6,429,2,2
288,6,555,2,2
213,6,532,2,2
103,5,34,2,2
33,6,373,2,2
240,6,219,2,2
45,6,84,2,2
280,6,8,2,2
44,6,61,2,2
275,6,355,2,2
15,6,122,2,2
541,6,548,2,2
105,6,233,2,2
171,7,509,2,2
258,6,279,2,2
19,6,7,2,2
317,7,422,2,2
236,6,296,2,2
219,6,80,2,2
236,6,432,1,2
445,6,210,2,2
64,6,350,2,2
9,6,233,2,2
119,6,441,2,2
244,6,208,2,2
516,6,0,2,2
5,6,148,2,2
59,6,333,2,2
236,6,308,2,2
177,6,155,2,2
333,6,346,2,2
17,6,356,2,2
3,6,11,2,2
52,7,309,2,2
313,6,168,2,2
225,6,81,2,2
185,6,175,2,2
313,6,33,2,2
127,6,164,2,2
128,6,327,2,2
114,6,23,2,2
133,6,130,2,2
71,6,97,2,2
238,6,143,2,2
29,6,210,2,2
77,6,100,2,2
229,6,472,2,2
267,6,60,2,2
329,6,296,2,2
28,6,115,2,2
294,6,549,1,2
160,6,31,2,2
13,7,549,2,2
24,6,95,2,2
32,6,566,2,2
226,6,481,2,2
190,7,788,1,2
383,5,209,2,2
60,6,88,2,2
112,6,364,2,2
67,6,601,2,2
529,6,216,2,2
26,7,837,1,2
726,6,304,2,2
306,5,161,2,2
335,6,43,2,2
518,6,20,2,2
152,6,248,2,2
195,6,273,2,2
0,6,377,2,2
101,6,102,2,2
238,6,132,2,2
15,6,13,2,2
45,6,90,2,2
189,7,355,2,2
27,6,66,2,2
290,6,68,2,2
286,7,692,1,2
111,6,0,2,2
391,6,353,2,2
489,6,9,2,2
152,6,425,2,2
45,6,128,2,2
138,6,48,2,2
1,6,70,2,2
48,6,69,2,2
9,7,359,2,2
98,6,0,2,2
172,6,378,2,2
74,6,200,2,2
54,6,236,2,2
54,6,195,2,2
355,6,225,2,2
123,7,570,1,2
282,7,807,1,2
535,6,288,2,2
221,6,515,1,2
24,5,40,2,2
362,6,37,2,2
313,6,203,2,2
133,6,135,2,2
145,6,6,2,2
220,6,1,2,2
217,6,94,2,2
127,6,2,2,2
520,7,416,2,2
162,6,0,2,2
49,6,241,2,2
84,1023,1023,0,2
1023,569,1023,0,2
790,911,660,1,2
205,295,598,2,2
339,56,1,2,2
53,7,255,2,2
273,5,325,2,2
419,5,93,2,2
134,6,114,2,2
97,6,166,2,2
177,6,84,2,2
11,6,282,2,2
315,6,365,2,2
169,6,467,2,2
466,7,469,2,2
282,6,190,2,2
95,6,48,2,2
42,6,136,2,2
374,6,225,2,2
217,6,31,2,2
127,6,160,2,2
247,6,0,2,2
16,6,35,2,2
125,6,94,2,2
116,7,471,2,2
106,6,135,2,2
26,6,18,2,2
341,7,496,2,2
145,6,564,1,2
239,6,163,2,2
446,6,22,2,2
52,6,1,2,2
219,6,363,2,2
58,6,170,2,2
366,6,146,2,2
1,6,446,1,2
194,6,623,1,2
86,161,471,2,2
669,387,403,2,2
73,75,928,2,2
612,11,568,1,2
375,5,208,2,2
209,5,66,2,2
12,7,660,2,2
85,6,376,2,2
227,6,57,2,2
12,7,628,2,2
246,6,388,2,2
434,6,340,2,2
6,6,284,2,2
51,6,0,2,2
384,6,134,2,2
42,6,81,2,2
3,6,50,2,2
138,6,65,2,2
109,6,0,2,2
45,6,36,2,2
172,6,240,2,2
101,6,32,2,2
253,6,199,2,2
118,6,208,2,2
188,6,184,2,2
87,6,0,2,2
39,6,272,2,2
126,6,7,2,2
9,6,141,2,2
2,6,226,2,2
30,6,59,2,2
280,6,193,2,2
127,6,220,2,2
15,6,165,2,2
278,7,483,1,2
104,6,153,2,2
30,6,89,2,2
76,7,616,2,2
420,6,66,2,2
131,6,178,2,2
21,6,160,2,2
227,6,169,2,2
33,7,535,2,2
212,7,800,2,2
10,6,297,2,2
91,6,37,2,2
115,6,261,2,2
203,6,96,2,2
198,6,78,2,2
24,6,83,2,2
38,6,84,2,2
94,6,128,2,2
60,6,196,2,2
21,6,15,2,2
32,6,199,2,2
116,6,83,2,2
2,6,39,2,2
79,6,3,2,2
11,6,90,2,2
34,6,60,2,2
91,6,48,2,2
47,6,181,2,2
18,6,73,2,2
103,6,0,2,2
10,6,41,2,2
35,6,115,2,2
18,6,70,2,2
57,6,0,2,2
117,6,59,2,2
72,6,138,2,2
59,6,189,2,2
119,6,131,2,2
211,6,143,2,2
82,6,74,2,2
205,6,5,2,2
101,6,249,2,2
24,6,163,2,2
199,6,274,2,2
158,6,73,2,2
55,6,16,2,2
193,6,120,2,2
142,6,99,2,2
77,6,20,2,2
5,6,172,2,2
194,6,1,2,2
190,6,84,2,2
39,6,70,2,2
63,6,44,2,2
146,6,107,1,2
357,6,131,2,2
184,6,35,2,2
99,6,2,2,2
150,6,164,2,2
52,6,275,2,2
2,6,157,2,2
206,6,547,2,2
64,6,261,2,2
84,6,400,2,2
146,6,16,2,2
111,6,45,2,2
191,6,0,2,2
0,6,191,2,2
91,6,21,2,2
3,6,95,2,2
40,6,42,2,2
85,6,462,2,2
405,7,484,2,2
219,6,189,2,2
165,6,47,2,2
12,6,239,2,2
141,6,46,2,2
48,6,125,2,2
69,6,175,2,2
87,6,155,2,2
50,6,92,2,2
116,6,35,2,2
54,6,277,2,2
76,6,13,2,2
201,6,334,2,2
117,6,13,2,2
154,6,11,2,2
77,6,209,2,2
458,6,77,2,2
103,6,158,2,2
110,6,42,2,2
17,6,247,2,2
10,6,222,2,2
27,6,301,2,2
24,6,127,2,2
86,6,218,2,2
52,6,59,2,2
2,6,142,2,2
138,6,231,2,2
48,6,121,2,2
262,6,84,2,2
12,6,102,2,2
41,6,152,2,2
37,6,25,2,2
0,6,119,2,2
81,6,46,2,2
94,6,230,2,2
25,6,5,2,2
67,6,190,2,2
43,6,89,2,2
149,6,157,2,2
83,6,18,2,2
141,6,153,2,2
27,6,193,2,2
2,6,68,2,2
30,6,95,2,2
3,6,65,2,2
105,6,0,2,2
36,6,181,2,2
154,6,67,2,2
9,6,102,2,2
43,6,195,2,2
146,6,96,2,2
8,6,291,1,2
22,6,78,2,2
10,6,0,2,2
93,6,210,2,2
53,6,19,2,2
244,6,372,2,2
84,6,0,2,2
186,6,9,2,2
9,6,98,2,2
52,6,106,2,2
57,6,28,2,2
122,6,55,2,2
17,6,178,2,2
237,6,15,2,2
144,6,0,2,2
181,6,69,2,2
123,6,17,2,2
10,6,3,2,2
68,6,385,2,2
178,6,41,2,2
214,7,375,1,2
157,6,244,2,2
25,6,160,2,2
61,6,36,2,2
53,6,147,2,2
68,6,3,2,2
17,6,102,2,2
50,6,21,2,2
196,6,165,2,2
153,6,8,2,2
0,6,58,2,2
1,6,45,2,2
299,6,2,2,2
33,6,69,2,2
396,6,66,2,2
72,6,146,2,2
171,7,398,1,2
52,6,349,2,2
16,6,149,2,2
61,6,238,2,2
52,6,38,2,2
155,6,154,2,2
9,6,153,2,2
39,6,270,2,2
74,6,0,2,2
18,6,22,2,2
59,6,31,2,2
152,6,201,2,2
86,6,15,2,2
87,6,269,2,2
1,6,55,2,2
157,6,0,2,2
81,6,224,2,2
32,6,67,2,2
226,6,140,2,2
146,6,26,2,2
60,6,139,2,2
4,6,9,2,2
13,6,150,2,2
40,6,212,2,2
26,6,45,2,2
13,6,15,2,2
114,6,114,2,2
65,6,23,2,2
62,6,37,1,2
98,6,134,2,2
72,6,0,2,2
67,6,44,2,2
61,6,154,2,2
68,6,0,2,2
76,6,54,2,2
1,6,162,2,2
0,6,234,2,2
92,6,79,2,2
43,6,251,2,2
211,6,4,2,2
67,6,110,2,2
8,6,130,2,2
104,6,0,2,2
75,6,198,2,2
167,6,203,2,2
13,6,67,2,2
52,6,49,2,2
149,7,52,2,2
76,6,195,2,2
45,6,62,2,2
144,6,243,2,2
25,6,1,2,2
273,6,162,2,2
99,6,46,2,2
49,6,45,2,2
3,6,41,2,2
124,6,180,2,2
220,6,43,2,2
32,6,387,2,2
11,6,134,2,2
30,6,105,2,2
32,6,88,2,2
109,6,55,2,2
42,6,43,2,2
119,6,62,2,2
65,6,54,2,2
119,6,163,2,2
118,6,195,2,2
41,6,308,2,2
115,6,129,2,2
19,6,192,2,2
113,6,77,2,2
151,6,24,2,2
186,6,3,2,2
33,6,0,2,2
44,6,1,2,2
64,6,169,2,2
27,6,196,2,2
34,6,322,2,2
99,6,26,2,2
93,6,63,2,2
106,6,138,2,2
131,6,0,2,2
64,6,245,2,2
11,6,0,2,2
194,6,189,2,2
366,6,270,2,2
4,6,91,2,2
202,6,17,2,2
39,6,195,2,2
160,6,252,2,2
30,6,43,2,2
68,6,16,2,2
127,6,138,2,2
4,7,530,2,2
61,6,177,2,2
4,6,385,1,2
100,6,190,2,2
10,6,250,2,2
24,7,517,1,2
281,6,199,2,2
50,6,205,2,2
78,6,146,2,2
1,6,61,2,2
98,6,336,2,2
105,6,5,2,2
65,6,370,2,2
89,6,69,2,2
1,6,77,2,2
90,6,215,2,2
20,6,32,2,2
3,6,127,2,2
168,6,1,2,2
14,6,0,2,2
32,6,65,2,2
0,6,4,2,2
144,6,2,2,2
6,6,5,2,2
32,6,143,2,2
77,6,153,2,2
107,6,0,2,2
130,6,0,2,2
4,6,0,2,2
207,6,68,2,2
328,6,38,2,2
8,6,283,2,2
166,6,0,2,2
86,6,136,2,2
126,6,42,2,2
193,6,119,2,2
36,6,124,2,2
117,6,30,2,2
3,6,0,2,2
193,6,76,2,2
210,6,33,2,2
114,6,113,2,2
96,6,105,2,2
80,6,45,2,2
30,6,209,2,2
34,6,371,2,2
86,6,8,2,2
81,6,9,2,2
33,6,89,2,2
28,6,43,2,2
70,6,0,2,2
139,6,24,2,2
85,6,52,2,2
42,6,78,2,2
38,6,84,2,2
51,6,100,2,2
2,6,50,2,2
27,6,22,2,2
3,6,128,2,2
35,6,36,2,2
7,6,4,2,2
150,6,13,2,2
103,6,108,2,2
105,6,217,2,2
60,6,50,2,2
40,6,65,2,2
104,6,146,2,2
154,6,40,2,2
25,6,74,2,2
31,6,31,2,2
91,6,0,2,2
283,6,12,2,2
215,6,0,2,2
45,6,0,2,2
45,6,40,2,2
41,6,336,1,2
130,6,357,2,2
307,7,237,2,2
196,6,3,2,2
232,6,158,2,2
194,6,73,2,2
136,7,404,2,2
51,6,105,2,2
59,6,323,2,2
28,6,127,2,2
169,6,58,2,2
166,6,197,2,2
249,6,14,2,2
2,6,299,2,2
257,6,0,2,2
6,6,209,2,2
174,6,337,2,2
122,6,23,2,2
81,6,319,2,2
66,6,187,2,2
145,6,162,2,2
307,6,133,2,2
64,6,61,2,2
5,6,101,2,2
251,6,155,2,2
535,6,5,2,2
288,6,250,2,2
268,6,44,2,2
6,6,113,2,2
438,6,120,2,2
71,6,93,2,2
542,7,7,2,2
51,6,63,2,2
57,6,0,2,2
199,6,14,2,2
3,6,182,2,2
242,6,25,2,2
291,6,11,2,2
227,6,206,2,2
236,6,244,2,2
149,6,114,2,2
21,6,182,2,2
353,6,46,2,2
309,6,364,2,2
35,6,54,2,2
179,6,193,2,2
108,6,41,2,2
143,6,50,2,2
403,6,101,2,2
429,7,372,2,2
91,6,0,2,2
7,6,235,2,2
69,6,103,2,2
301,6,165,2,2
14,6,140,2,2
196,6,0,2,2
41,7,493,2,2
128,6,31,2,2
381,6,111,2,2
17,6,61,2,2
107,6,182,2,2
138,6,129,2,2
380,6,20,2,2
8,6,18,2,2
7,6,73,2,2
272,6,230,2,2
192,6,73,2,2
131,6,216,2,2
316,6,15,2,2
144,6,155,2,2
331,6,12,2,2
511,6,0,2,2
539,6,118,2,2
136,6,459,2,2
168,6,259,2,2
533,7,680,1,2
94,6,54,2,2
578,6,81,2,2
111,6,151,2,2
107,6,314,2,2
69,6,162,2,2
214,6,315,2,2
255,6,95,2,2
213,6,0,2,2
206,6,67,2,2
303,6,247,2,2
209,6,240,2,2
126,6,64,2,2
48,6,260,2,2
97,6,368,2,2
420,7,690,2,2
183,6,146,2,2
232,6,179,2,2
18,7,566,2,2
55,6,249,2,2
381,7,503,2,2
217,6,376,2,2
6,6,202,2,2
11,6,287,2,2
361,6,106,2,2
24,6,80,2,2
78,6,111,2,2
28,6,0,2,2
719,6,149,2,2
352,6,212,2,2
134,6,191,2,2
148,6,444,2,2
680,8,841,2,2
343,5,7,2,2
98,6,366,2,2
59,6,163,2,2
70,6,247,2,2
45,6,107,2,2
39,6,233,2,2
364,6,29,2,2
398,6,4,2,2
95,6,98,2,2
51,6,85,2,2
47,6,0,2,2
39,6,23,2,2
42,6,59,2,2
266,6,11,2,2
59,6,255,2,2
508,6,24,2,2
48,6,559,2,2
43,6,755,2,2
151,7,908,2,2
259,5,613,2,2
123,5,146,2,2
27,6,633,2,2
179,6,355,2,2
151,6,0,2,2
9,6,0,2,2
14,6,185,2,2
236,7,675,2,2
158,6,25,2,2
240,47,1023,1,2
278,9,280,2,2
453,5,378,2,2
118,5,54,2,2
380,6,196,2,2
320,7,358,2,2
330,6,309,2,2
67,6,141,2,2
104,6,254,2,2
135,6,355,2,2
205,6,110,2,2
476,6,390,2,2
66,6,165,2,2
52,6,334,2,2
184,6,105,2,2
224,6,13,2,2
36,6,26,2,2
92,6,171,2,2
322,7,327,1,2
212,7,563,2,2
239,6,7,2,2
63,6,208,2,2
197,6,108,2,2
7,6,276,2,2
84,6,297,2,2
102,6,189,2,2
55,7,758,2,2
151,6,133,2,2
337,7,799,2,2
22,6,715,2,2
243,6,455,2,2
672,6,517,2,2
193,6,362,2,2
31,7,659,1,2
365,6,494,1,2
24,6,403,2,2
320,6,552,2,2
36,6,58,2,2
123,7,615,2,2
158,6,304,2,2
35,6,6,2,2
321,6,493,2,2
649,7,315,2,2
433,6,244,2,2
141,6,126,2,2
314,6,520,2,2
319,6,408,2,2
114,6,335,2,2
127,6,178,2,2
222,6,68,2,2
489,6,34,2,2
684,6,419,2,2
440,6,477,2,2
36,6,97,2,2
76,6,277,2,2
79,6,367,2,2
364,6,211,2,2
138,6,298,2,2
130,6,137,2,2
284,6,139,2,2
178,6,398,2,2
36,6,70,2,2
79,6,133,2,2
482,6,324,2,2
65,6,44,2,2
230,7,676,2,2
370,5,175,2,2
259,6,81,2,2
38,6,14,2,2
159,6,145,2,2
61,6,158,2,2
265,6,199,2,2
114,6,366,2,2
287,6,258,2,2
476,6,135,2,2
262,6,192,2,2
11,6,10,2,2
24,6,475,2,2
72,7,589,1,2
106,6,459,1,2
104,6,232,2,2
210,6,30,2,2
188,6,0,2,2
118,6,349,2,2
80,6,189,2,2
183,6,57,2,2
38,6,63,2,2
152,6,279,2,2
187,6,345,2,2
11,7,256,2,2
165,6,163,2,2
118,6,118,2,2
63,6,119,2,2
146,6,205,2,2
23,6,211,2,2
147,6,275,2,2
79,6,373,2,2
81,90,815,1,2
459,38,651,2,2
587,6,86,2,2
163,5,0,2,2
403,6,0,2,2
82,6,0,2,2
6,6,422,2,2
374,1023,447,0,2
80,549,884,2,2
724,144,177,2,2
50,24,246,2,2
179,5,194,2,2
228,5,447,2,2
235,5,5,2,2
205,6,416,2,2
108,6,264,2,2
248,7,481,2,2
309,6,102,2,2
53,6,184,2,2
99,6,273,2,2
260,7,573,2,2
83,6,360,2,2
272,6,190,2,2
71,6,214,2,2
114,6,23,2,2
33,6,140,2,2
3,6,132,2,2
69,6,1,2,2
424,6,12,2,2
102,6,108,2,2
173,6,212,2,2
149,6,69,2,2
9,6,133,2,2
0,6,0,2,2
127,7,183,2,2
279,6,337,2,2
90,6,349,2,2
119,6,98,2,2
149,6,135,2,2
73,6,18,2,2
66,6,152,2,2
84,6,138,2,2
335,6,27,2,2
61,6,349,2,2
24,7,449,2,2
44,6,9,2,2
156,6,334,2,2
107,6,14,2,2
5,6,16,2,2
119,6,257,2,2
144,6,262,2,2
74,6,9,2,2
87,6,162,2,2
47,6,10,2,2
34,6,46,2,2
146,6,129,2,2
277,6,333,2,2
15,6,203,2,2
671,7,26,2,2
34,6,64,2,2
229,6,66,2,2
1,6,123,2,2
265,6,127,2,2
152,6,81,2,2
21,6,131,2,2
11,6,23,2,2
163,6,182,2,2
185,6,16,2,2
48,6,123,2,2
246,6,256,2,2
186,6,164,2,2
0,6,24,2,2
6,6,278,2,2
42,6,334,2,2
200,6,141,2,2
125,6,0,2,2
341,6,74,2,2
34,6,103,2,2
137,6,17,2,2
94,6,186,2,2
45,6,71,2,2
423,6,159,2,2
208,6,84,2,2
78,6,47,2,2
110,6,83,2,2
94,6,110,2,2
214,6,80,2,2
28,6,193,2,2
272,6,65,2,2
44,6,67,2,2
141,6,289,2,2
190,6,352,2,2
266,6,70,2,2
162,6,92,2,2
19,6,131,2,2
25,6,150,2,2
111,6,132,2,2
9,6,129,2,2
146,6,71,2,2
477,6,2,2,2
45,6,165,2,2
360,6,16,2,2
64,7,414,2,2
393,6,68,2,2
32,6,186,2,2
97,6,310,2,2
66,6,39,2,2
21,6,282,2,2
47,6,382,1,2
114,6,90,2,2
53,6,185,2,2
97,6,43,2,2
120,6,84,2,2
46,6,124,2,2
122,6,336,2,2
57,6,53,2,2
1,6,249,2,2
72,6,202,2,2
137,6,104,2,2
134,6,248,2,2
202,6,201,2,2
127,6,43,2,2
54,6,127,2,2
114,6,0,2,2
174,7,284,2,2
26,7,440,2,2
3,6,104,2,2
126,6,17,2,2
88,6,6,2,2
183,6,188,2,2
115,6,15,2,2
81,7,267,2,2
176,6,73,2,2
221,6,228,2,2
76,6,3,2,2
52,6,347,2,2
212,6,45,2,2
152,7,481,2,2
136,6,29,2,2
58,6,81,2,2
0,6,105,2,2
15,6,294,2,2
63,6,47,2,2
9,6,182,2,2
21,6,172,2,2
14,6,111,2,2
160,6,82,2,2
111,6,20,2,2
157,6,196,2,2
317,6,0,2,2
110,6,40,2,2
124,6,407,2,2
143,6,341,2,2
122,6,15,2,2
149,6,28,2,2
107,6,0,2,2
136,6,147,2,2
246,6,67,2,2
298,6,44,2,2
38,6,114,2,2
3,6,0,2,2
176,6,73,2,2
53,6,393,2,2
362,6,84,2,2
34,6,505,2,2
293,6,128,2,2
25,6,505,2,2
154,6,246,2,2
361,6,161,2,2
143,6,334,2,2
95,6,161,2,2
6,6,123,2,2
101,6,12,2,2
49,6,0,2,2
249,6,13,2,2
157,6,37,2,2
349,6,181,2,2
39,6,103,2,2
1,6,196,2,2
55,6,20,2,2
29,6,27,2,2
76,6,80,2,2
116,6,120,2,2
135,6,206,2,2
123,6,4,2,2
232,6,29,2,2
31,6,167,2,2
206,6,50,2,2
20,6,0,2,2
208,6,145,2,2
45,7,396,2,2
303,6,261,2,2
129,6,261,2,2
191,6,105,2,2
71,6,87,2,2
129,6,317,2,2
145,6,163,2,2
89,6,4,2,2
25,6,229,2,2
99,6,61,2,2
80,6,335,2,2
57,6,157,2,2
29,6,151,2,2
210,6,294,2,2
129,6,177,2,2
275,6,298,2,2
88,6,285,2,2
19,6,305,2,2
5,6,175,2,2
54,6,101,2,2
80,6,42,2,2
208,6,206,2,2
40,6,166,2,2
9,7,251,2,2
29,6,4,2,2
169,6,68,2,2
21,6,190,2,2
181,6,130,2,2
112,6,352,2,2
381,6,44,2,2
3,6,0,2,2
190,6,265,2,2
89,6,41,2,2
8,7,272,2,2
37,6,37,2,2
58,6,0,2,2
52,6,304,2,2
273,6,280,2,2
254,6,2,2,2
547,6,48,2,2
22,6,252,2,2
154,6,92,2,2
58,6,97,2,2
87,6,56,2,2
130,6,75,2,2
80,6,191,2,2
101,6,21,2,2
293,6,194,2,2
80,7,242,2,2
86,6,81,2,2
49,6,168,2,2
133,6,48,2,2
15,6,57,2,2
185,6,68,2,2
82,6,0,2,2
45,6,23,2,2
14,6,282,2,2
180,6,12,2,2
5,6,302,2,2
72,6,122,2,2
161,6,372,2,2
27,6,144,2,2
139,6,1,2,2
26,6,5,2,2
81,6,54,2,2
93,6,116,2,2
150,6,88,2,2
16,6,107,2,2
26,6,89,2,2
186,6,21,2,2
55,6,0,2,2
206,6,177,2,2
94,6,32,2,2
19,6,125,2,2
188,6,25,2,2
66,6,55,2,2
2,6,20,2,2
144,6,114,2,2
5,6,0,2,2
143,6,81,2,2
24,6,277,2,2
548,7,442,2,2
277,6,65,2,2
6,6,100,2,2
76,6,199,2,2
5,6,74,2,2
13,6,16,2,2
72,6,154,2,2
74,6,9,2,2
35,6,11,2,2
43,6,0,2,2
8,6,269,2,2
100,6,89,2,2
16,6,10,2,2
30,6,214,2,2
178,6,33,2,2
38,6,50,2,2
4,6,77,2,2
12,6,10,2,2
188,6,108,2,2
111,6,83,2,2
116,6,99,2,2
247,6,236,2,2
116,6,113,2,2
32,6,136,2,2
15,6,139,2,2
35,6,76,2,2
4,6,37,2,2
17,6,88,2,2
78,6,51,2,2
29,6,75,2,2
7,6,48,2,2
148,6,0,2,2
99,6,57,2,2
18,6,0,2,2
54,6,55,2,2
40,6,0,2,2
1,6,126,2,2
34,6,114,2,2
62,6,0,2,2
17,6,282,2,2
13,6,10,2,2
13,6,101,2,2
6,6,64,2,2
142,6,236,2,2
246,6,243,2,2
55,6,43,2,2
77,6,22,2,2
5,6,5,2,2
84,6,12,2,2
88,6,39,2,2
23,6,148,2,2
94,6,37,2,2
86,6,55,2,2
153,6,22,2,2
22,6,133,2,2
73,6,138,2,2
98,6,150,2,2
139,6,72,2,2
48,6,145,2,2
253,6,43,2,2
206,6,204,2,2
47,6,36,2,2
111,6,46,2,2
292,6,254,2,2
124,6,130,2,2
27,6,155,2,2
8,6,4,2,2
39,6,138,2,2
6,6,0,2,2
78,6,9,2,2
49,6,0,2,2
19,6,143,2,2
63,6,130,2,2
139,6,18,2,2
117,6,174,2,2
120,6,0,2,2
12,6,200,2,2
34,6,26,2,2
12,6,57,2,2
104,6,49,2,2
93,6,48,2,2
242,6,19,2,2
32,6,95,2,2
57,6,162,2,2
84,6,186,2,2
102,6,169,2,2
132,6,177,2,2
128,6,79,2,2
243,6,125,2,2
43,6,325,2,2
176,6,77,2,2
165,6,64,2,2
99,6,136,2,2
239,6,150,2,2
2,6,219,2,2
142,6,120,2,2
33,7,320,1,2
48,6,72,2,2
66,6,62,2,2
206,6,135,2,2
310,6,93,2,2
3,6,281,2,2
146,6,328,2,2
197,6,182,2,2
48,6,98,2,2
166,6,206,2,2
66,6,0,2,2
352,6,12,2,2
113,6,47,2,2
136,6,1,2,2
172,6,243,2,2
87,6,168,2,2
30,6,305,2,2
107,7,396,2,2
268,6,227,2,2
90,6,344,2,2
369,6,107,2,2
105,6,80,2,2
3,6,53,2,2
410,6,25,2,2
102,6,99,2,2
252,6,72,2,2
0,6,286,2,2
308,6,45,2,2
107,6,308,2,2
210,6,208,2,2
15,6,178,2,2
380,7,214,2,2
577,6,7,2,2
120,6,359,2,2
0,6,205,2,2
93,6,222,2,2
116,6,115,2,2
40,6,50,2,2
389,6,62,2,2
294,6,0,2,2
560,7,357,2,2
254,6,215,2,2
142,6,136,2,2
99,6,34,2,2
34,6,85,2,2
262,6,0,2,2
465,6,48,2,2
249,6,91,2,2
422,6,89,2,2
23,6,6,2,2
299,6,28,2,2
199,6,50,2,2
268,6,158,2,2
69,7,606,2,2
23,6,104,2,2
219,6,10,2,2
28,6,73,2,2
415,7,183,2,2
125,6,306,2,2
97,6,221,2,2
306,6,295,2,2
59,6,348,2,2
136,6,125,2,2
5,6,224,2,2
103,6,359,2,2
170,6,8,2,2
142,7,632,1,2
95,6,3,2,2
152,6,107,2,2
359,6,26,2,2
126,6,285,2,2
225,6,161,2,2
93,6,228,2,2
278,7,450,2,2
181,6,36,2,2
82,7,551,2,2
458,6,173,2,2
4,8,977,1,2
112,6,4,2,2
133,6,315,2,2
66,6,234,2,2
607,6,114,2,2
165,6,16,2,2
189,6,168,2,2
60,6,76,2,2
373,7,739,2,2
105,6,716,2,2
13,6,187,2,2
281,6,365,2,2
388,6,72,2,2
22,6,7,2,2
265,6,63,2,2
93,6,35,2,2
23,6,57,2,2
252,6,118,2,2
30,6,253,2,2
45,7,496,2,2
46,6,6,2,2
202,7,911,2,2
8,6,276,2,2
353,7,607,1,2
365,5,54,2,2
80,6,517,2,2
167,6,103,2,2
88,6,269,2,2
289,6,6,2,2
153,6,41,2,2
5,6,59,2,2
2,6,118,2,2
379,6,169,2,2
175,6,484,2,2
201,6,86,2,2
212,6,77,2,2
252,6,106,2,2
92,6,253,2,2
78,6,210,2,2
33,6,429,2,2
424,6,56,2,2
299,7,614,2,2
297,6,350,2,2
11,6,410,2,2
91,6,216,2,2
650,7,325,2,2
649,6,279,2,2
338,6,412,2,2
359,7,586,2,2
459,5,173,2,2
342,7,457,2,2
65,6,324,2,2
88,6,56,2,2
57,6,67,2,2
351,6,283,2,2
393,6,83,2,2
131,6,121,2,2
75,6,130,2,2
7,6,60,2,2
41,6,112,2,2
389,6,7,2,2
109,6,212,2,2
258,6,27,2,2
123,7,582,1,2
638,7,632,1,2
39,6,34,2,2
204,6,137,2,2
141,7,616,2,2
628,6,146,2,2
596,7,558,2,2
567,6,333,2,2
298,6,19,2,2
156,6,342,2,2
123,1023,1023,0,2
751,1023,1023,2,2
328,835,907,1,2
18,404,92,2,2
338,78,705,2,2
369,12,0,2,2
14,4,60,2,2
237,6,56,2,2
187,6,86,2,2
45,6,278,2,2
457,6,62,2,2
507,6,3,2,2
462,6,143,2,2
23,6,236,2,2
98,6,110,2,2
26,6,303,2,2
270,7,427,2,2
158,7,667,2,2
161,6,186,2,2
44,6,216,2,2
35,6,511,2,2
87,6,543,2,2
1023,61,560,0,2
1023,1023,750,2,2
182,984,353,2,2
253,238,80,2,2
516,42,343,2,2
313,6,134,2,2
485,5,309,2,2
7,7,647,1,2
596,6,183,2,2
192,6,259,2,2
368,7,412,2,2
64,6,217,2,2
346,6,5,2,2
187,6,173,2,2
114,6,36,2,2
10,6,279,2,2
51,6,309,2,2
19,7,591,2,2
107,6,323,2,2
417,6,4,2,2
490,7,182,2,2
208,6,196,2,2
107,6,243,2,2
239,6,251,2,2
25,6,333,1,2
136,6,345,2,2
292,6,205,2,2
134,6,532,2,2
478,6,202,2,2
63,6,282,2,2
25,6,20,2,2
144,6,290,2,2
532,7,548,2,2
253,6,215,2,2
68,6,240,2,2
114,6,246,2,2
18,6,16,2,2
224,7,449,2,2
39,6,191,2,2
44,6,34,2,2
376,6,150,2,2
1,6,149,2,2
20,6,165,2,2
18,6,15,2,2
259,6,0,2,2
100,6,6,2,2
60,6,121,2,2
113,6,323,2,2
21,6,122,2,2
60,6,0,2,2
17,6,259,2,2
40,6,136,2,2
280,6,185,2,2
10,6,78,2,2
193,6,90,2,2
216,6,208,2,2
116,6,54,2,2
89,6,353,2,2
35,6,91,2,2
152,6,365,2,2
326,6,104,2,2
102,6,90,2,2
142,6,296,2,2
181,6,75,2,2
123,6,108,2,2
280,6,31,2,2
245,6,77,2,2
161,6,147,2,2
82,6,140,2,2
241,6,307,2,2
161,6,107,2,2
281,6,237,2,2
594,6,243,2,2
175,6,338,2,2
405,6,239,2,2
235,6,0,2,2
295,6,11,2,2
49,6,125,2,2
25,6,57,2,2
123,6,35,2,2
137,7,376,1,2
326,6,59,2,2
168,7,340,2,2
278,6,218,2,2
0,6,128,2,2
145,6,319,2,2
45,7,412,2,2
200,6,23,2,2
44,6,315,2,2
167,6,52,2,2
151,6,118,2,2
51,6,118,2,2
120,6,59,2,2
94,7,447,2,2
59,6,129,2,2
233,6,129,2,2
25,6,136,2,2
204,6,166,2,2
53,6,99,2,2
31,6,212,2,2
93,6,60,2,2
85,6,314,2,2
258,6,26,2,2
245,6,294,2,2
23,6,0,2,2
27,6,146,2,2
171,6,31,2,2
9,6,62,2,2
97,6,85,2,2
21,6,43,2,2
32,6,0,2,2
101,6,30,2,2
38,6,38,2,2
67,6,50,2,2
249,6,133,2,2
236,6,26,2,2
193,6,213,2,2
38,6,154,2,2
76,6,74,2,2
215,6,109,2,2
1,6,73,2,2
118,6,39,2,2
74,6,4,2,2
109,6,6,2,2
63,6,10,2,2
152,6,6,2,2
443,6,138,2,2
216,6,64,2,2
208,6,342,2,2
94,6,221,2,2
42,6,129,2,2
75,6,0,2,2
27,6,85,2,2
6,6,228,2,2
142,6,23,2,2
108,6,187,2,2
5,6,96,2,2
3,6,0,2,2
26,6,79,2,2
6,6,167,2,2
13,6,190,2,2
61,6,109,2,2
168,6,144,2,2
173,6,31,2,2
72,6,139,2,2
262,6,0,2,2
238,6,18,2,2
181,6,133,2,2
18,6,113,2,2
101,6,8,2,2
4,6,255,2,2
11,6,136,2,2
182,6,193,2,2
15,6,120,2,2
189,6,153,2,2
248,6,97,2,2
53,6,149,2,2
97,6,141,2,2
194,6,83,2,2
2,6,187,2,2
119,6,69,2,2
81,6,39,2,2
257,6,64,2,2
157,6,60,2,2
76,6,131,2,2
62,6,20,2,2
58,6,79,2,2
6,6,41,2,2
183,6,0,2,2
104,7,410,2,2
263,6,122,2,2
10,6,209,2,2
59,6,39,2,2
146,6,55,2,2
10,6,97,2,2
26,6,240,1,2
130,6,201,2,2
340,7,527,2,2
168,6,0,2,2
197,6,10,2,2
196,6,94,2,2
4,6,38,2,2
275,6,204,2,2
61,6,283,2,2
25,6,163,2,2
213,6,175,2,2
0,6,14,2,2
55,6,1,2,2
67,6,0,2,2
67,6,111,2,2
28,6,137,2,2
136,6,273,1,2
165,6,67,2,2
174,6,212,2,2
154,7,413,2,2
137,6,246,2,2
120,6,53,2,2
229,6,196,2,2
289,6,155,2,2
19,6,144,2,2
20,6,32,2,2
122,6,19,2,2
200,6,2,2,2
164,6,212,2,2
223,6,64,2,2
87,6,130,2,2
107,6,170,2,2
31,6,130,2,2
14,6,154,2,2
5,6,35,2,2
94,6,85,2,2
32,6,129,2,2
39,6,0,2,2
33,6,0,2,2
123,6,29,2,2
47,6,73,2,2
185,6,2,2,2
105,6,0,2,2
141,6,26,2,2
5,6,35,2,2
12,6,192,2,2
20,6,330,2,2
1,6,94,2,2
8,7,492,2,2
16,6,174,2,2
158,6,79,2,2
102,6,77,2,2
240,6,57,2,2
151,6,72,2,2
18,6,170,2,2
4,6,15,2,2
89,6,71,2,2
37,6,117,2,2
0,6,234,2,2
20,6,361,2,2
84,6,205,2,2
162,6,114,2,2
209,6,22,2,2
206,6,290,2,2
203,6,225,2,2
145,6,63,2,2
46,6,232,2,2
46,6,182,2,2
28,6,0,2,2
55,6,176,2,2
126,6,0,2,2
68,6,0,2,2
7,6,95,2,2
8,6,170,2,2
95,6,14,2,2
7,6,0,2,2
115,6,127,2,2
30,6,106,2,2
128,6,145,2,2
182,6,27,2,2
59,6,363,2,2
171,6,105,2,2
136,6,66,2,2
63,6,76,2,2
61,6,80,2,2
62,6,171,2,2
93,6,102,2,2
22,6,59,2,2
31,6,63,2,2
35,6,218,2,2
328,6,28,2,2
442,6,77,2,2
24,6,53,2,2
139,6,162,2,2
32,6,5,2,2
182,6,10,2,2
76,6,4,2,2
138,7,242,2,2
1,6,28,2,2
7,6,243,2,2
91,6,39,2,2
178,6,14,2,2
202,6,136,2,2
0,6,44,2,2
71,6,206,2,2
62,6,59,2,2
161,6,132,2,2
85,6,78,2,2
198,6,84,2,2
79,6,69,2,2
146,6,160,2,2
80,6,123,2,2
119,6,97,2,2
59,6,187,2,2
13,6,95,2,2
99,6,94,2,2
54,6,51,2,2
105,6,20,2,2
95,6,0,2,2
38,6,0,2,2
179,6,0,2,2
12,6,134,2,2
145,6,188,2,2
290,6,0,2,2
167,6,0,2,2
58,6,44,2,2
16,6,44,2,2
63,6,5,2,2
103,7,223,2,2
138,6,179,2,2
184,6,63,2,2
117,6,144,2,2
33,6,22,2,2
20,6,71,2,2
15,6,59,2,2
197,6,7,2,2
51,6,4,2,2
16,6,77,2,2
70,6,69,2,2
51,6,181,2,2
9,6,23,2,2
22,6,83,2,2
132,6,67,2,2
122,6,106,2,2
121,6,56,2,2
79,6,19,2,2
28,6,253,2,2
44,6,107,2,2
54,6,186,2,2
223,6,301,2,2
231,6,115,2,2
164,7,529,2,2
49,6,95,2,2
100,6,171,2,2
2,6,146,2,2
235,6,47,2,2
20,6,182,2,2
56,6,25,2,2
0,6,16,2,2
157,6,137,2,2
88,6,159,2,2
6,6,34,2,2
199,6,121,2,2
75,6,51,2,2
67,6,121,2,2
25,6,140,2,2
124,6,49,2,2
120,6,294,2,2
140,6,0,2,2
7,6,149,2,2
79,6,4,2,2
117,6,62,2,2
206,6,2,2,2
7,6,113,2,2
71,6,77,2,2
47,6,79,2,2
110,6,18,2,2
51,6,253,2,2
73,6,183,2,2
123,6,82,2,2
184,6,181,2,2
128,6,144,2,2
82,7,400,2,2
153,6,113,2,2
141,6,527,2,2
46,6,6,2,2
167,6,273,2,2
47,6,0,2,2
20,6,197,2,2
85,6,86,2,2
69,6,79,2,2
34,6,138,2,2
135,6,161,2,2
272,6,143,2,2
73,6,47,2,2
77,6,201,2,2
232,6,154,2,2
43,6,9,2,2
175,6,459,2,2
151,6,75,2,2
140,6,273,2,2
412,6,121,2,2
101,6,101,2,2
29,6,105,2,2
17,6,132,2,2
347,7,41,2,2
292,6,89,2,2
119,6,128,2,2
146,6,12,2,2
68,6,331,2,2
490,6,0,2,2
22,6,0,2,2
49,6,72,2,2
251,6,131,2,2
101,6,301,2,2
323,6,156,2,2
115,6,94,2,2
221,6,310,2,2
191,6,89,2,2
6,6,13,2,2
357,6,9,2,2
259,6,87,2,2
375,6,329,2,2
295,6,12,2,2
3,7,491,1,2
299,6,345,2,2
109,6,249,2,2
106,6,275,2,2
201,6,225,2,2
212,6,0,2,2
4,6,65,2,2
223,6,82,2,2
47,6,106,2,2
325,6,361,2,2
252,6,11,2,2
67,7,484,1,2
302,6,245,2,2
156,6,406,2,2
92,6,308,2,2
284,7,710,2,2
347,6,236,2,2
337,6,312,2,2
244,6,0,2,2
238,6,395,2,2
15,6,334,2,2
385,6,51,2,2
5,6,57,2,2
369,7,550,2,2
181,6,320,2,2
303,7,596,2,2
118,6,8,2,2
198,7,378,2,2
325,6,134,2,2
44,6,392,2,2
388,6,136,2,2
118,6,79,2,2
145,6,124,2,2
156,6,119,2,2
221,6,265,2,2
348,6,77,2,2
22,6,237,2,2
239,6,90,2,2
657,7,509,2,2
294,5,20,2,2
506,6,313,2,2
78,6,207,2,2
660,6,46,2,2
416,6,330,2,2
287,6,267,2,2
143,6,30,2,2
19,6,61,2,2
749,7,224,2,2
6,6,197,2,2
419,6,381,2,2
6,6,281,2,2
71,6,107,2,2
207,6,3,2,2
462,6,221,2,2
233,6,103,2,2
381,6,255,1,2
58,6,204,2,2
179,6,56,2,2
29,6,339,2,2
78,6,471,2,2
97,6,448,1,2
393,6,418,2,2
94,6,399,2,2
126,6,424,2,2
43,6,506,2,2
106,6,306,2,2
64,7,685,1,2
154,6,157,2,2
247,7,743,2,2
54,5,205,2,2
15,6,277,2,2
146,6,435,2,2
78,6,6,2,2
83,6,277,2,2
535,6,158,2,2
5,6,41,2,2
180,6,36,2,2
125,6,64,2,2
453,6,4,2,2
72,6,14,2,2
310,6,194,2,2
426,6,237,2,2
150,6,223,2,2
456,7,483,2,2
499,6,105,2,2
148,6,216,2,2
487,6,181,2,2
31,6,5,2,2
97,6,111,2,2
222,6,247,2,2
197,7,598,2,2
4,7,867,1,2
468,32,1023,0,2
85,129,221,2,2
204,24,533,2,2
419,5,283,2,2
71,5,304,2,2
636,7,406,2,2
69,6,61,2,2
78,6,207,2,2
75,7,773,2,2
495,6,552,2,2
17,6,298,2,2
111,5,7,2,2
221,6,338,2,2
102,6,40,2,2
275,7,893,1,2
749,5,263,2,2
421,1023,977,0,2
380,673,178,2,2
65,143,584,2,2
84,24,41,2,2
363,5,59,2,2
5,5,245,2,2
362,7,475,2,2
163,5,179,2,2
103,6,186,2,2
24,7,907,1,2
396,5,348,2,2
88,7,934,1,2
179,6,439,1,2
259,6,600,2,2
7,7,739,2,2
388,1023,1023,0,2
499,704,20,2,2
176,165,304,2,2
203,27,291,2,2
338,4,680,1,2
117,5,334,2,2
186,6,99,2,2
203,6,171,2,2
475,6,27,2,2
10,6,47,2,2
520,6,179,2,2
103,7,674,2,2
319,7,787,2,2
92,5,17,2,2
184,6,0,2,2
158,6,358,2,2
254,6,164,2,2
45,6,150,2,2
271,6,209,2,2
143,6,66,2,2
215,6,152,2,2
742,7,103,2,2
722,6,320,2,2
299,6,468,1,2
323,7,767,1,2
261,5,203,2,2
189,7,907,1,2
42,5,198,2,2
3,6,142,2,2
120,6,291,2,2
189,6,247,2,2
72,6,83,2,2
383,6,365,2,2
130,6,133,2,2
100,7,397,2,2
263,6,233,2,2
236,6,219,2,2
18,6,379,2,2
134,7,408,2,2
84,6,188,2,2
170,6,222,2,2
75,6,277,2,2
83,6,83,2,2
240,6,8,2,2
151,6,336,2,2
505,6,459,2,2
597,6,147,2,2
101,6,93,2,2
449,7,436,2,2
63,6,444,2,2
534,6,28,2,2
486,6,402,2,2
62,6,322,2,2
73,6,241,2,2
28,6,16,2,2
113,6,206,2,2
30,6,258,1,2
130,6,59,2,2
5,6,13,2,2
208,6,39,2,2
23,6,251,2,2
181,6,146,2,2
89,6,46,2,2
74,6,246,2,2
190,6,512,1,2
6,6,220,2,2
91,6,45,2,2
106,6,267,1,2
33,6,187,2,2
0,6,130,2,2
110,6,8,2,2
164,7,699,2,2
215,6,181,2,2
83,6,316,2,2
620,6,26,2,2
247,6,282,2,2
191,6,261,2,2
77,6,133,2,2
107,7,417,1,2
208,6,74,2,2
1,6,77,2,2
2,6,134,2,2
105,6,175,2,2
11,6,279,2,2
69,6,333,2,2
151,6,14,2,2
31,6,43,2,2
143,6,148,2,2
37,6,99,2,2
197,6,16,2,2
247,6,191,2,2
0,6,123,2,2
186,6,194,2,2
37,6,122,2,2
22,6,59,2,2
91,6,264,2,2
53,6,267,2,2
134,6,158,2,2
4,6,51,2,2
83,6,133,2,2
170,6,3,2,2
6,6,169,2,2
116,6,5,2,2
234,6,181,2,2
39,7,391,2,2
83,6,322,2,2
83,6,169,2,2
72,6,83,2,2
20,6,108,2,2
136,6,55,2,2
90,6,167,2,2
47,6,0,2,2
156,6,377,2,2
52,6,332,1,2
464,6,87,2,2
278,6,60,2,2
33,6,106,2,2
3,6,201,2,2
27,6,3,2,2
77,6,158,2,2
135,6,214,2,2
70,6,66,2,2
15,6,6,2,2
8,6,5,2,2
7,6,61,2,2
187,6,162,2,2
325,6,0,2,2
99,7,273,2,2
127,6,57,2,2
22,6,238,2,2
231,6,117,2,2
105,6,329,1,2
102,6,153,2,2
382,6,53,2,2
12,6,75,2,2
269,6,149,2,2
49,6,43,2,2
118,6,65,2,2
51,6,76,2,2
84,6,108,2,2
275,6,55,2,2
118,6,96,2,2
150,6,56,2,2
58,6,105,2,2
48,6,64,2,2
248,6,245,2,2
81,6,4,2,2
13,6,106,2,2
176,6,22,2,2
72,6,76,2,2
49,6,0,2,2
97,6,68,2,2
42,6,32,2,2
49,6,57,2,2
40,6,216,2,2
91,6,65,2,2
95,6,0,2,2
39,6,130,2,2
66,6,24,2,2
2,6,6,2,2
47,6,1,2,2
97,6,217,2,2
29,6,30,2,2
30,6,168,2,2
96,6,173,2,2
37,6,88,2,2
54,6,43,2,2
127,6,48,2,2
138,6,65,2,2
160,6,189,2,2
155,6,137,2,2
49,6,102,2,2
184,6,15,2,2
148,6,80,2,2
46,6,63,2,2
136,6,16,2,2
339,6,22,2,2
38,6,277,2,2
117,6,133,2,2
0,6,52,2,2
0,6,6,2,2
70,6,41,2,2
79,6,88,2,2
31,6,93,2,2
45,6,121,2,2
132,6,93,2,2
158,6,54,2,2
94,6,112,2,2
263,6,90,2,2
41,6,141,2,2
150,6,239,2,2
76,6,327,2,2
58,6,23,2,2
68,6,155,2,2
203,6,119,2,2
79,6,237,2,2
85,6,154,2,2
170,6,43,2,2
29,6,31,2,2
88,6,0,2,2
8,6,178,2,2
17,6,17,2,2
104,6,0,2,2
16,6,67,2,2
57,6,165,2,2
27,6,32,2,2
32,6,16,2,2
47,6,231,2,2
168,6,147,2,2
29,6,45,2,2
157,6,102,2,2
70,6,132,2,2
53,6,269,2,2
138,6,132,2,2
12,6,20,2,2
222,6,100,2,2
133,6,104,2,2
115,6,37,2,2
392,7,271,2,2
55,6,293,2,2
23,6,77,2,2
170,6,76,2,2
147,6,32,2,2
5,6,0,2,2
65,6,188,2,2
171,6,63,2,2
33,6,35,2,2
227,6,69,2,2
125,6,6,2,2
87,6,173,2,2
60,7,376,1,2
20,6,0,2,2
215,6,280,2,2
127,6,66,2,2
39,6,223,2,2
132,6,101,2,2
65,6,0,2,2
68,6,112,2,2
54,6,157,2,2
100,6,231,2,2
336,6,30,2,2
76,6,197,2,2
112,6,387,2,2
71,6,89,2,2
37,6,53,2,2
214,6,0,2,2
26,6,172,2,2
59,6,0,2,2
121,6,51,2,2
107,6,0,2,2
199,6,30,2,2
63,6,23,2,2
229,7,405,1,2
12,6,34,2,2
193,6,0,2,2
35,7,324,2,2
31,6,128,2,2
48,6,0,2,2
153,6,58,2,2
196,6,156,2,2
7,6,152,2,2
122,6,103,2,2
0,6,0,2,2
205,6,59,2,2
123,6,50,2,2
232,6,0,2,2
60,6,87,2,2
132,6,116,2,2
7,7,192,2,2
154,6,37,2,2
42,6,82,2,2
140,7,369,2,2
30,6,48,2,2
102,6,33,2,2
20,6,33,2,2
10,6,58,2,2
9,6,3,2,2
15,6,92,2,2
0,6,77,2,2
364,7,544,1,2
189,6,72,2,2
211,6,239,2,2
33,6,36,2,2
50,6,256,2,2
209,6,33,2,2
139,6,0,2,2
309,6,0,2,2
3,7,195,2,2
26,6,55,2,2
320,6,5,2,2
3,6,135,2,2
162,6,136,2,2
34,7,282,2,2
54,6,20,2,2
196,6,85,2,2
68,6,0,2,2
48,6,134,2,2
75,6,42,2,2
11,6,265,2,2
70,6,382,2,2
170,6,255,2,2
74,6,128,2,2
284,6,116,2,2
0,6,43,2,2
37,6,5,2,2
31,6,28,2,2
146,6,192,2,2
181,6,1,2,2
66,6,23,2,2
148,6,17,2,2
44,6,35,2,2
126,6,72,2,2
224,6,7,2,2
123,6,0,2,2
11,6,83,2,2
9,6,71,2,2
38,6,59,2,2
101,6,43,2,2
76,6,52,2,2
102,6,96,2,2
168,6,58,2,2
139,6,153,2,2
15,6,79,2,2
78,6,119,2,2
233,6,26,2,2
60,6,93,2,2
138,6,255,2,2
15,6,0,2,2
139,6,93,2,2
133,6,35,2,2
29,6,6,2,2
279,6,0,2,2
0,6,56,2,2
60,6,9,2,2
18,6,224,2,2
115,6,136,2,2
54,6,312,2,2
7,6,102,2,2
112,6,71,2,2
29,6,0,2,2
193,6,19,2,2
177,6,8,2,2
1,6,47,2,2
177,6,144,2,2
66,6,0,2,2
13,6,20,2,2
102,6,19,2,2
27,6,22,2,2
14,6,2,2,2
113,6,17,2,2
94,6,37,2,2
17,6,14,2,2
208,6,62,2,2
144,6,60,2,2
147,6,69,2,2
1,6,24,2,2
20,6,0,2,2
75,7,233,2,2
40,6,28,2,2
10,6,252,2,2
243,6,0,2,2
129,6,15,2,2
99,6,4,2,2
131,6,62,2,2
248,6,153,2,2
24,6,93,2,2
292,6,310,2,2
250,6,63,2,2
68,7,460,1,2
71,6,171,2,2
69,6,116,2,2
169,6,72,2,2
6,6,146,2,2
92,6,62,2,2
86,6,7,2,2
44,6,43,2,2
31,6,14,2,2
68,6,36,2,2
170,6,98,2,2
19,6,18,2,2
357,6,111,2,2
222,6,61,2,2
152,6,74,2,2
268,6,95,2,2
45,6,181,2,2
84,6,92,2,2
84,6,108,2,2
4,6,6,2,2
0,6,94,2,2
20,6,58,2,2
151,6,99,2,2
84,6,32,2,2
83,6,68,2,2
7,6,94,2,2
66,6,77,2,2
97,6,190,2,2
2,6,1,2,2
97,6,258,2,2
185,6,0,2,2
133,6,0,2,2
171,6,0,2,2
433,6,135,2,2
184,6,137,2,2
72,6,33,2,2
276,6,66,2,2
59,7,106,2,2
82,6,286,2,2
145,6,50,2,2
417,6,7,2,2
91,6,128,2,2
48,6,203,2,2
47,6,123,2,2
220,6,242,2,2
102,6,361,2,2
40,6,101,2,2
64,6,30,2,2
55,6,123,2,2
159,6,211,2,2
402,6,1,2,2
491,6,52,2,2
57,6,141,2,2
229,6,53,2,2
45,6,103,2,2
408,6,0,2,2
81,6,176,2,2
211,6,183,2,2
33,6,118,2,2
35,6,187,2,2
414,6,45,2,2
25,6,128,2,2
294,6,184,2,2
463,6,83,2,2
98,6,67,2,2
127,6,0,2,2
475,6,66,2,2
208,6,226,2,2
14,6,92,2,2
72,6,397,2,2
7,6,182,2,2
107,6,88,2,2
252,6,142,2,2
400,7,137,2,2
168,6,20,2,2
222,6,11,2,2
55,6,236,1,2
111,6,348,2,2
211,6,359,2,2
247,6,498,2,2
41,6,289,2,2
252,6,151,2,2
165,6,81,2,2
236,6,320,2,2
411,6,214,2,2
332,7,533,2,2
143,6,129,2,2
54,6,365,2,2
14,6,129,2,2
310,6,147,2,2
440,6,97,2,2
102,6,449,1,2
11,6,43,2,2
30,6,146,2,2
237,6,75,2,2
235,6,112,2,2
477,6,78,2,2
219,6,51,2,2
183,6,124,2,2
222,6,147,2,2
292,7,795,2,2
138,5,340,2,2
139,6,314,2,2
182,6,102,2,2
23,6,74,2,2
200,7,600,2,2
369,7,594,1,2
127,6,441,2,2
194,6,84,2,2
287,6,84,2,2
203,6,280,2,2
64,6,239,1,2
356,6,128,2,2
330,6,277,2,2
100,7,539,2,2
19,6,96,2,2
21,6,489,2,2
107,6,207,2,2
300,6,163,2,2
601,6,14,2,2
49,6,19,2,2
303,6,0,2,2
325,6,0,2,2
270,6,1,2,2
223,6,213,2,2
371,6,148,2,2
142,6,322,2,2
28,6,19,2,2
33,6,151,2,2
6,6,77,2,2
217,6,218,2,2
280,7,712,2,2
399,6,434,2,2
235,5,53,2,2
73,6,12,2,2
523,6,73,2,2
225,6,42,2,2
102,6,203,2,2
255,6,185,2,2
30,6,334,2,2
595,6,352,2,2
130,6,79,2,2
34,6,23,2,2
172,7,446,2,2
511,7,444,2,2
296,6,88,2,2
142,6,209,2,2
102,6,114,2,2
161,7,540,2,2
65,7,672,2,2
57,6,61,2,2
16,6,126,2,2
80,6,558,1,2
273,6,335,2,2
14,9,1023,2,2
326,5,270,2,2
387,6,23,2,2
92,7,767,2,2
195,7,776,1,2
122,6,22,2,2
5,6,100,2,2
195,6,155,2,2
162,6,182,2,2
295,6,201,2,2
18,7,600,2,2
150,6,363,2,2
462,6,45,2,2
99,6,55,2,2
176,6,28,2,2
73,7,380,2,2
87,6,79,2,2
81,6,169,2,2
122,6,553,2,2
323,6,254,2,2
57,6,293,2,2
280,1023,636,0,2
95,583,477,1,2
3,126,496,1,2
131,20,183,2,2
675,5,888,1,2
905,5,199,2,2
346,6,673,2,2
173,5,64,2,2
10,6,476,2,2
332,6,284,2,2
206,6,162,2,2
169,6,226,2,2
114,7,514,2,2
234,6,13,2,2
117,6,0,2,2
16,6,216,2,2
54,6,119,2,2
89,6,65,2,2
242,6,2,2,2
320,6,521,2,2
203,6,383,2,2
231,6,281,2,2
155,6,100,2,2
89,7,710,1,2
225,7,858,2,2
107,5,119,2,2
145,7,688,2,2
160,6,620,2,2
56,7,1019,2,2
577,5,350,2,2
363,5,171,2,2
38,6,245,2,2
465,6,203,2,2
25,6,196,2,2
33,6,24,2,2
55,6,10,2,2
138,7,299,2,2
377,7,437,2,2
425,6,354,2,2
166,6,154,2,2
114,6,213,2,2
195,6,215,2,2
76,6,199,2,2
224,6,70,2,2
37,6,140,2,2
58,6,113,2,2
100,6,353,2,2
51,6,59,2,2
67,7,499,2,2
332,7,476,2,2
12,7,650,2,2
290,6,0,2,2
306,6,275,2,2
314,6,45,2,2
385,7,306,2,2
356,7,470,2,2
125,6,47,2,2
453,6,200,2,2
473,7,685,2,2
46,6,12,2,2
143,6,436,2,2
5,6,246,2,2
137,6,295,2,2
8,6,75,2,2
38,6,100,2,2
236,6,55,2,2
3,6,187,2,2
251,6,169,2,2
3,6,5,2,2
297,6,204,2,2
513,6,19,2,2
140,6,274,1,2
292,6,12,2,2
147,6,513,2,2
115,6,644,1,2
239,6,0,2,2
173,6,169,2,2
128,6,71,2,2
150,6,101,2,2
190,6,82,2,2
33,7,353,2,2
75,6,530,2,2
122,6,9,2,2
6,6,302,2,2
279,6,175,2,2
152,6,216,1,2
347,6,18,2,2
248,6,131,2,2
22,6,172,2,2
12,6,28,2,2
64,6,119,2,2
207,6,223,2,2
239,6,195,2,2
1,6,326,2,2
23,6,136,2,2
44,6,37,2,2
43,6,144,2,2
119,6,84,2,2
166,6,66,2,2
61,6,32,2,2
253,6,0,2,2
58,6,0,2,2
5,6,35,2,2
27,6,60,2,2
22,6,180,2,2
170,6,56,2,2
140,7,492,2,2
351,6,2,2,2
135,6,117,2,2
73,6,211,2,2
114,6,122,2,2
57,6,105,2,2
22,6,62,2,2
92,6,31,2,2
36,6,0,2,2
36,6,193,2,2
12,6,207,2,2
43,6,64,2,2
71,6,128,2,2
42,6,191,2,2
74,6,132,2,2
41,6,103,2,2
201,6,14,2,2
130,6,100,2,2
143,6,54,2,2
104,6,113,2,2
28,6,79,2,2
152,6,213,2,2
11,6,213,2,2
70,6,183,2,2
170,6,0,2,2
150,6,78,2,2
207,6,125,2,2
26,6,95,2,2
0,6,389,2,2
196,6,246,2,2
202,6,133,2,2
156,6,83,2,2
41,6,153,2,2
15,6,22,2,2
42,6,87,2,2
67,6,31,2,2
68,6,25,2,2
58,6,12,2,2
52,6,0,2,2
116,6,123,2,2
43,6,288,2,2
34,6,33,2,2
145,6,10,2,2
63,6,212,2,2
102,6,85,2,2
70,6,119,2,2
175,6,79,2,2
158,6,69,2,2
61,6,70,2,2
24,6,78,2,2
219,6,0,2,2
179,6,194,2,2
157,6,64,2,2
31,6,31,2,2
115,6,153,2,2
151,6,86,2,2
46,6,222,2,2
68,6,231,2,2
246,6,93,2,2
14,6,4,2,2
150,6,152,2,2
75,6,207,2,2
246,7,205,2,2
45,6,16,2,2
193,6,0,2,2
2,6,23,2,2
96,6,62,2,2
176,6,0,2,2
38,6,143,2,2
204,6,22,2,2
14,6,78,2,2
186,6,35,2,2
35,6,0,2,2
79,6,25,2,2
120,6,15,2,2
266,6,37,2,2
33,6,61,2,2
262,6,225,2,2
223,6,168,2,2
69,6,159,2,2
120,6,100,2,2
0,6,0,2,2
59,6,83,2,2
1,6,36,2,2
264,6,8,2,2
1,6,121,2,2
4,6,98,2,2
56,6,0,2,2
72,6,30,2,2
110,6,232,2,2
20,6,69,2,2
149,6,79,2,2
129,6,75,2,2
38,6,0,2,2
119,6,184,2,2
204,6,19,2,2
154,6,11,2,2
136,6,201,2,2
2,6,81,2,2
244,6,0,2,2
257,6,11,2,2
87,6,144,2,2
36,6,2,2,2
3,6,99,2,2
116,6,42,2,2
24,6,0,2,2
117,6,13,2,2
283,6,39,2,2
218,6,122,2,2
200,6,183,2,2
132,6,137,2,2
198,6,0,2,2
67,6,106,2,2
129,6,151,2,2
99,6,108,2,2
120,6,4,2,2
43,6,79,2,2
1,6,46,2,2
61,6,203,2,2
64,6,211,2,2
130,6,29,2,2
99,6,0,2,2
34,6,29,2,2
292,6,66,2,2
108,6,29,2,2
225,6,25,2,2
63,6,204,2,2
202,6,47,2,2
0,6,0,2,2
52,7,144,2,2
77,6,59,2,2
64,6,23,2,2
104,6,97,2,2
55,6,133,2,2
110,6,92,2,2
108,6,127,2,2
86,6,42,2,2
65,6,29,2,2
127,6,0,2,2
132,6,233,2,2
55,6,157,2,2
30,6,231,2,2
80,6,155,2,2
166,6,226,2,2
35,7,604,2,2
101,6,126,2,2
116,6,97,2,2
142,6,93,2,2
13,6,0,2,2
64,6,26,2,2
34,6,47,2,2
15,7,249,2,2
10,6,11,2,2
83,6,197,2,2
302,6,23,2,2
99,6,131,2,2
167,6,10,2,2
134,6,131,2,2
16,6,20,2,2
46,6,306,2,2
8,6,67,2,2
116,6,194,2,2
86,6,15,2,2
4,6,13,2,2
75,6,101,2,2
53,6,285,2,2
79,7,585,1,2
65,6,52,2,2
18,6,120,2,2
30,6,59,2,2
27,6,181,2,2
69,6,104,2,2
152,6,146,2,2
77,6,71,2,2
55,6,1,2,2
115,6,21,2,2
97,6,97,2,2
55,6,43,2,2
37,6,195,2,2
93,6,16,2,2
45,6,224,2,2
37,6,0,2,2
201,6,16,2,2
34,6,14,2,2
243,6,104,2,2
54,6,60,2,2
110,6,142,2,2
87,6,1,2,2
1,6,211,2,2
16,6,139,2,2
10,6,104,2,2
267,6,133,2,2
77,6,157,2,2
294,6,147,2,2
83,6,266,2,2
58,6,42,2,2
118,6,216,2,2
27,6,193,2,2
16,6,79,2,2
121,7,205,2,2
39,6,9,2,2
3,6,26,2,2
256,6,0,2,2
54,6,70,2,2
26,6,25,2,2
29,6,140,2,2
111,6,50,2,2
25,6,164,2,2
122,6,43,2,2
112,6,13,2,2
24,6,175,2,2
144,6,0,2,2
72,7,459,1,2
152,6,12,2,2
10,7,651,2,2
7,6,0,2,2
99,6,62,2,2
153,6,141,2,2
178,6,56,2,2
49,6,118,2,2
60,6,60,2,2
0,6,330,2,2
55,6,18,2,2
54,6,164,2,2
65,6,12,2,2
3,6,32,2,2
19,6,29,2,2
33,6,162,2,2
123,6,122,2,2
48,6,65,2,2
15,6,96,2,2
39,6,71,2,2
203,6,65,2,2
74,6,201,2,2
22,6,97,2,2
10,6,0,2,2
23,6,30,2,2
152,6,37,2,2
132,6,141,2,2
117,6,50,2,2
7,6,2,2,2
200,6,78,2,2
179,6,3,2,2
18,6,21,2,2
0,6,22,2,2
11,6,102,2,2
49,6,48,2,2
48,6,164,2,2
7,6,0,2,2
39,6,206,2,2
25,6,15,2,2
152,6,0,2,2
37,6,17,2,2
93,6,33,2,2
18,6,57,2,2
135,6,21,2,2
262,6,167,2,2
12,6,0,2,2
103,6,97,2,2
4,6,11,2,2
5,6,162,2,2
41,6,97,2,2
138,6,66,2,2
103,6,133,2,2
66,6,101,2,2
222,6,8,2,2
33,6,203,2,2
81,6,261,2,2
11,6,115,2,2
47,6,110,2,2
73,6,67,2,2
70,6,65,2,2
127,6,0,2,2
46,6,156,2,2
201,6,67,2,2
0,6,6,2,2
209,6,199,2,2
263,6,15,2,2
152,6,225,2,2
136,6,212,2,2
21,6,0,2,2
44,6,356,2,2
319,6,20,2,2
240,6,381,1,2
60,6,162,2,2
258,6,123,2,2
28,6,0,2,2
167,6,59,2,2
103,6,90,2,2
138,6,0,2,2
117,6,0,2,2
134,6,233,2,2
21,6,37,2,2
59,6,247,2,2
158,6,92,2,2
249,6,112,2,2
257,6,9,2,2
1,6,84,2,2
79,6,0,2,2
294,6,76,2,2
442,6,177,2,2
342,6,9,2,2
25,6,7,2,2
100,6,111,2,2
182,6,19,2,2
154,6,136,2,2
121,6,28,2,2
275,6,111,2,2
192,6,73,2,2
163,6,532,2,2
192,6,216,2,2
14,6,192,2,2
393,6,272,2,2
85,6,274,2,2
224,6,298,2,2
281,6,358,2,2
211,6,169,2,2
521,6,452,2,2
197,6,3,2,2
135,7,583,2,2
157,7,788,2,2
290,6,26,2,2
104,7,656,2,2
469,6,220,2,2
57,6,174,2,2
26,6,24,2,2
246,6,323,2,2
234,6,35,2,2
199,6,133,2,2
61,7,526,2,2
268,6,420,1,2
177,6,47,2,2
110,6,0,2,2
8,6,216,2,2
7,6,182,2,2
5,7,473,2,2
407,6,106,2,2
137,6,0,2,2
431,6,246,2,2
182,6,265,2,2
458,7,484,2,2
265,6,77,2,2
17,6,188,2,2
186,7,506,2,2
173,6,180,2,2
184,6,0,2,2
90,6,345,2,2
150,6,66,2,2
16,6,194,2,2
126,6,243,2,2
185,6,141,2,2
391,6,166,2,2
313,6,67,2,2
276,6,217,2,2
253,6,331,2,2
178,6,70,2,2
163,6,71,2,2
104,6,364,2,2
110,6,215,2,2
103,6,273,2,2
58,7,544,2,2
18,7,692,2,2
31,6,27,2,2
104,7,578,2,2
111,6,188,2,2
389,6,170,2,2
379,6,103,2,2
179,6,318,2,2
206,7,419,2,2
98,7,618,2,2
284,6,185,2,2
424,6,184,2,2
114,6,95,2,2
561,7,375,1,2
165,6,360,2,2
157,6,391,2,2
248,6,253,2,2
57,6,37,2,2
171,6,88,2,2
42,6,181,2,2
198,6,223,2,2
144,6,228,2,2
243,7,204,2,2
279,6,137,2,2
294,6,0,2,2
60,6,0,2,2
369,6,96,2,2
39,6,57,2,2
102,6,199,2,2
225,6,98,2,2
86,6,448,2,2
340,6,162,2,2
28,7,401,2,2
6,6,5,2,2
215,6,266,2,2
274,6,382,2,2
387,6,466,2,2
76,6,236,2,2
687,7,351,2,2
452,6,261,2,2
17,6,92,2,2
394,6,224,2,2
184,7,825,2,2
157,1023,1023,0,2
199,1023,74,2,2
135,280,402,2,2
693,51,0,2,2
248,7,20,2,2
103,5,2,2,2
423,6,400,2,2
193,6,567,1,2
465,6,276,2,2
124,6,242,2,2
380,6,116,2,2
224,6,69,2,2
14,6,311,1,2
205,6,94,2,2
130,7,666,1,2
547,6,134,2,2
230,6,450,2,2
145,6,647,2,2
566,6,493,2,2
50,5,198,2,2
98,7,923,2,2
196,5,51,2,2
41,6,677,2,2
136,6,210,2,2
118,7,592,2,2
248,6,423,2,2
23,6,508,2,2
175,6,24,2,2
596,6,82,2,2
83,6,166,2,2
101,6,130,2,2
83,6,12,2,2
139,6,14,2,2
192,6,74,2,2
203,6,77,2,2
142,7,620,1,2
250,7,1014,2,2
49,5,62,2,2
119,5,200,2,2
111,7,829,2,2
285,5,198,2,2
39,1023,544,2,2
593,431,63,2,2
266,136,387,2,2
118,21,875,1,2
1023,804,214,2,2
1023,1023,1023,0,2
464,1023,222,1,2
228,664,512,2,2
162,144,59,2,2
524,24,350,2,2
231,5,91,2,2
160,5,111,2,2
7,6,97,2,2
150,6,14,2,2
186,6,284,2,2
309,7,514,2,2
15,6,180,2,2
15,6,375,1,2
0,6,341,2,2
79,6,0,2,2
323,6,114,2,2
19,6,268,2,2
115,7,590,2,2
170,6,5,2,2
199,6,145,2,2
26,6,111,2,2
429,6,33,2,2
352,6,66,2,2
54,6,374,2,2
388,6,349,2,2
419,6,364,2,2
203,6,250,2,2
22,6,264,2,2
38,6,325,2,2
83,6,317,2,2
163,6,382,2,2
53,6,136,2,2
237,6,382,2,2
401,6,80,2,2
3,7,429,2,2
40,6,345,2,2
455,6,119,2,2
188,6,473,2,2
442,7,517,2,2
230,6,165,2,2
575,7,262,1,2
293,7,741,1,2
24,5,247,2,2
366,6,43,2,2
317,6,101,2,2
121,6,246,2,2
283,6,537,2,2
242,6,579,1,2
171,7,670,2,2
98,6,137,2,2
759,6,337,2,2
328,5,145,2,2
312,5,90,2,2
186,7,374,2,2
251,6,209,2,2
24,7,793,2,2
165,6,289,2,2
238,6,108,2,2
179,6,447,2,2
387,7,830,1,2
667,6,193,2,2
147,6,143,2,2
403,7,771,1,2
128,7,600,1,2
561,6,344,2,2
151,6,321,2,2
402,6,411,2,2
17,6,309,2,2
442,6,188,2,2
60,6,97,2,2
75,6,164,2,2
148,6,186,2,2
32,6,222,2,2
278,6,285,2,2
4,6,8,2,2
140,7,453,2,2
145,6,118,2,2
119,6,192,2,2
41,6,458,2,2
106,6,295,2,2
44,6,141,2,2
322,6,14,2,2
39,6,150,2,2
87,6,34,2,2
84,6,98,2,2
1,6,97,2,2
279,6,245,2,2
61,6,184,2,2
297,6,9,2,2
127,6,14,2,2
255,6,24,2,2
386,6,170,2,2
24,6,159,2,2
5,6,0,2,2
23,6,98,2,2
36,6,1,2,2
101,6,108,2,2
5,6,17,2,2
2,6,111,2,2
102,6,32,2,2
18,6,45,2,2
20,6,123,2,2
8,6,232,2,2
287,6,260,2,2
377,6,143,2,2
4,6,0,2,2
219,6,36,2,2
343,6,57,2,2
176,6,130,2,2
150,6,147,2,2
211,6,52,2,2
130,6,14,2,2
120,6,76,2,2
107,6,206,2,2
203,6,32,2,2
176,6,185,2,2
87,6,231,2,2
321,6,154,2,2
173,6,235,2,2
109,6,27,2,2
12,6,86,2,2
389,6,103,2,2
167,6,59,2,2
201,6,0,2,2
85,6,192,2,2
3,6,119,2,2
62,6,109,2,2
246,7,263,2,2
206,6,159,2,2
164,6,99,2,2
82,6,31,2,2
116,6,328,2,2
234,6,0,2,2
327,6,217,2,2
452,6,348,2,2
301,6,467,2,2
189,6,188,2,2
206,6,401,2,2
289,6,85,2,2
65,7,449,2,2
101,6,108,2,2
24,6,105,2,2
117,6,122,2,2
128,6,59,2,2
232,6,34,2,2
217,6,104,2,2
8,6,84,2,2
196,6,245,2,2
9,6,44,2,2
131,6,51,2,2
97,6,18,2,2
67,6,178,2,2
115,6,171,2,2
83,6,13,2,2
109,6,0,2,2
56,6,99,2,2
57,6,97,2,2
275,6,205,2,2
135,6,250,2,2
160,6,136,2,2
83,6,0,2,2
100,6,115,2,2
78,6,23,2,2
100,6,73,2,2
31,6,124,2,2
273,6,253,2,2
165,6,216,2,2
238,6,156,2,2
188,6,11,2,2
95,6,333,2,2
142,6,215,2,2
22,6,134,2,2
488,7,389,1,2
132,6,96,2,2
39,6,236,2,2
83,6,65,2,2
8,6,342,2,2
179,6,94,2,2
57,6,232,2,2
73,6,264,2,2
236,6,0,2,2
52,6,302,2,2
201,6,270,2,2
62,6,0,2,2
3,6,7,2,2
29,6,324,2,2
225,6,254,2,2
143,6,106,2,2
237,6,163,2,2
168,6,29,2,2
48,6,39,2,2
148,6,20,2,2
238,6,109,2,2
334,7,283,2,2
7,6,154,2,2
170,7,420,1,2
78,6,266,2,2
74,6,265,2,2
51,6,209,2,2
46,6,39,2,2
92,6,155,2,2
61,6,141,2,2
250,6,186,1,2
3,6,31,2,2
0,6,10,2,2
67,6,96,2,2
140,6,52,2,2
233,6,80,2,2
62,6,30,2,2
43,6,0,2,2
44,6,0,2,2
45,6,291,2,2
139,6,15,2,2
9,6,250,2,2
33,6,105,2,2
59,6,85,2,2
0,7,324,2,2
26,6,124,2,2
206,6,0,2,2
122,6,163,2,2
429,6,27,2,2
118,6,81,2,2
13,6,95,2,2
250,6,69,2,2
142,6,24,2,2
37,7,130,2,2
72,6,174,2,2
50,6,14,2,2
18,7,360,2,2
336,6,97,2,2
81,6,15,2,2
176,6,23,2,2
8,6,148,2,2
22,6,267,2,2
140,6,265,2,2
158,6,166,2,2
95,6,74,2,2
223,6,178,2,2
76,6,0,2,2
6,6,106,2,2
79,6,197,2,2
151,7,423,2,2
12,6,217,2,2
61,6,12,2,2
71,6,157,2,2
19,6,88,2,2
4,6,71,2,2
18,6,21,2,2
222,6,14,2,2
67,6,74,2,2
164,6,78,2,2
14,6,37,2,2
142,6,6,2,2
1,6,11,2,2
217,6,17,2,2
164,6,0,2,2
217,6,68,2,2
23,6,277,2,2
100,7,263,2,2
46,6,46,2,2
148,6,96,2,2
113,6,138,2,2
3,6,63,2,2
49,6,207,2,2
233,6,138,2,2
35,6,36,2,2
157,6,38,2,2
98,6,300,2,2
136,6,11,2,2
25,6,100,2,2
147,6,13,2,2
45,6,60,2,2
92,6,40,2,2
199,6,133,2,2
22,6,90,2,2
119,6,185,2,2
47,6,174,2,2
57,6,39,2,2
245,6,176,2,2
100,6,286,2,2
189,6,115,2,2
70,6,217,2,2
3,6,0,2,2
85,6,109,2,2
14,7,318,2,2
249,6,195,2,2
32,6,355,1,2
213,6,69,2,2
0,6,62,2,2
39,6,86,2,2
147,6,31,2,2
39,6,85,2,2
34,6,9,2,2
50,7,2,2,2
2,6,300,2,2
104,6,0,2,2
4,7,379,2,2
0,6,44,2,2
7,6,323,1,2
3,7,618,2,2
108,6,141,2,2
90,6,99,2,2
30,6,33,2,2
46,6,196,2,2
14,6,111,2,2
4,6,29,2,2
64,6,58,2,2
11,6,279,2,2
10,6,100,2,2
279,7,114,2,2
0,6,195,2,2
17,6,66,2,2
66,6,61,2,2
328,6,160,2,2
236,6,113,2,2
135,6,34,2,2
126,6,98,2,2
38,6,78,2,2
159,6,173,2,2
53,6,173,2,2
206,6,243,2,2
20,6,30,2,2
14,6,121,2,2
94,6,263,2,2
130,6,0,2,2
74,7,457,1,2
35,6,0,2,2
89,6,28,2,2
51,6,88,2,2
59,6,39,2,2
46,6,20,2,2
21,6,99,2,2
143,6,3,2,2
26,6,87,2,2
95,6,23,2,2
44,6,0,2,2
26,6,65,2,2
119,6,0,2,2
105,6,217,2,2
6,6,190,2,2
63,6,316,2,2
82,6,143,2,2
43,6,43,2,2
101,6,163,2,2
1,6,25,2,2
208,6,75,2,2
54,6,102,2,2
135,6,7,2,2
65,6,39,2,2
7,6,68,2,2
126,6,226,2,2
4,6,121,2,2
20,6,177,2,2
84,6,28,2,2
94,6,158,2,2
353,6,238,2,2
174,6,146,2,2
86,6,276,2,2
103,6,92,2,2
47,6,207,2,2
91,6,6,2,2
50,6,145,2,2
113,6,6,2,2
132,6,54,2,2
2,6,112,2,2
24,6,277,2,2
261,6,12,2,2
337,6,164,2,2
2,6,0,2,2
50,6,181,2,2
45,6,193,2,2
41,6,199,2,2
329,6,0,2,2
76,6,98,2,2
64,6,108,2,2
67,6,320,2,2
12,6,81,2,2
349,7,374,2,2
266,6,20,2,2
129,6,123,2,2
23,6,57,2,2
9,6,71,2,2
99,6,180,2,2
281,7,155,2,2
102,6,284,2,2
134,6,5,2,2
277,6,128,2,2
133,6,75,2,2
51,6,0,2,2
119,7,298,2,2
223,6,27,2,2
32,6,53,2,2
107,6,215,2,2
34,6,0,2,2
98,6,277,2,2
46,6,48,2,2
315,6,252,2,2
265,6,0,2,2
115,6,19,2,2
113,6,46,2,2
289,6,41,2,2
212,6,0,2,2
71,6,200,2,2
186,6,227,2,2
366,6,183,2,2
72,6,228,2,2
223,6,253,1,2
134,6,212,2,2
8,6,190,2,2
259,6,0,2,2
226,6,242,2,2
87,6,1,2,2
127,6,2,2,2
316,6,0,2,2
205,6,164,2,2
454,6,333,2,2
305,6,0,2,2
54,6,179,2,2
204,6,5,2,2
420,6,242,1,2
173,6,47,2,2
25,6,82,2,2
323,6,34,2,2
73,6,338,2,2
139,6,338,2,2
0,6,181,2,2
233,6,68,2,2
269,6,12,2,2
365,6,43,2,2
265,6,39,2,2
96,6,90,2,2
195,6,221,2,2
170,6,51,2,2
19,7,223,2,2
99,6,5,2,2
55,6,219,2,2
297,6,19,2,2
47,6,12,2,2
155,6,110,2,2
220,6,22,2,2
69,6,160,2,2
484,6,0,2,2
106,6,326,2,2
345,6,303,2,2
51,6,26,2,2
7,6,224,2,2
54,6,105,2,2
4,6,9,2,2
236,7,129,2,2
407,6,164,2,2
35,6,33,2,2
165,7,399,2,2
177,6,0,2,2
90,6,230,2,2
52,6,28,2,2
41,6,190,2,2
232,6,374,2,2
630,6,84,2,2
242,6,453,2,2
67,6,22,2,2
55,6,174,2,2
580,7,551,2,2
403,6,365,2,2
507,6,64,2,2
6,6,254,2,2
203,6,13,2,2
64,7,541,2,2
190,6,418,1,2
361,6,24,2,2
61,6,241,2,2
180,6,164,2,2
511,6,195,2,2
50,6,211,2,2
285,6,82,2,2
33,6,102,2,2
202,6,263,2,2
281,6,496,2,2
19,6,251,2,2
233,7,584,2,2
234,6,419,2,2
135,6,437,1,2
92,6,273,2,2
94,6,105,2,2
94,6,194,2,2
3,6,109,2,2
246,8,993,2,2
521,6,649,2,2
106,6,561,2,2
577,6,18,2,2
366,6,723,1,2
18,15,875,2,2
531,5,1023,1,2
313,776,697,2,2
273,316,0,2,2
106,59,151,2,2
64,7,460,1,2
325,5,134,2,2
30,6,140,2,2
9,6,350,2,2
31,6,269,2,2
41,6,351,1,2
116,6,172,2,2
339,7,783,2,2
559,6,416,2,2
25,6,275,2,2
215,6,0,2,2
150,7,362,2,2
46,6,375,2,2
103,6,108,2,2
555,7,512,1,2
10,6,265,2,2
353,6,313,2,2
9,6,111,2,2
187,6,195,2,2
512,7,469,2,2
5,7,912,2,2
115,7,759,1,2
149,6,487,2,2
71,6,39,2,2
224,6,256,2,2
245,6,28,2,2
309,6,162,2,2
234,6,167,2,2
213,6,141,2,2
39,6,44,2,2
147,6,10,2,2
183,6,261,2,2
340,7,760,2,2
382,5,7,2,2
50,6,184,2,2
33,6,395,2,2
15,6,268,1,2
252,6,435,1,2
87,6,121,2,2
210,6,111,2,2
4,6,336,2,2
500,7,702,1,2
241,5,147,2,2
28,6,0,2,2
47,6,149,2,2
176,6,411,2,2
14,6,62,2,2
418,8,939,2,2
114,5,118,2,2
34,6,430,1,2
442,6,66,2,2
179,7,385,2,2
12,7,424,2,2
482,5,321,1,2
101,6,85,2,2
147,6,371,2,2
73,7,884,1,2
223,1023,1023,0,2
615,757,266,2,2
24,187,230,2,2
93,31,458,2,2
198,5,250,2,2
324,5,162,2,2
531,100,553,2,2
151,36,594,1,2
144,6,268,2,2
106,5,76,2,2
57,6,145,2,2
253,6,213,2,2
84,6,61,2,2
136,6,403,2,2
52,6,42,2,2
294,6,122,2,2
154,6,130,2,2
193,6,244,2,2
137,7,366,2,2
64,6,203,2,2
416,7,852,2,2
136,6,319,2,2
117,6,141,2,2
112,6,49,2,2
486,7,431,2,2
255,6,78,2,2
43,6,215,2,2
5,6,24,2,2
327,6,306,2,2
182,6,170,2,2
185,6,345,2,2
894,7,316,2,2
42,7,668,2,2
558,6,67,2,2
142,6,526,2,2
469,6,220,2,2
213,6,145,2,2
291,6,40,2,2
358,6,125,2,2
255,6,190,2,2
9,6,307,2,2
81,6,258,2,2
71,6,3,2,2
30,6,236,2,2
244,7,566,2,2
277,6,519,2,2
72,6,302,2,2
178,6,161,2,2
340,6,441,2,2
20,6,445,1,2
225,5,114,2,2
207,6,275,2,2
302,6,326,2,2
25,6,231,2,2
283,7,630,2,2
23,9,1023,1,2
583,7,818,2,2
816,6,170,2,2
74,6,99,2,2
137,6,399,2,2
384,6,293,2,2
72,6,38,2,2
39,6,380,2,2
308,6,62,2,2
95,6,18,2,2
470,6,49,2,2
109,6,241,2,2
435,7,208,2,2
12,6,84,2,2
506,6,99,2,2
341,6,23,2,2
49,6,209,2,2
238,6,353,2,2
104,6,395,2,2
468,6,55,2,2
270,6,327,2,2
237,6,0,2,2
40,6,329,2,2
209,6,121,2,2
116,6,110,2,2
141,6,0,2,2
139,6,214,2,2
60,6,165,2,2
29,6,19,2,2
92,6,0,2,2
3,6,47,2,2
99,6,342,2,2
567,6,3,2,2
443,6,453,2,2
163,6,124,2,2
99,7,436,2,2
49,6,5,2,2
62,7,494,2,2
225,6,391,2,2
211,7,890,2,2
570,6,243,2,2
114,6,313,2,2
230,6,30,2,2
33,6,0,2,2
113,6,27,2,2
6,6,121,2,2
210,6,35,2,2
113,6,23,2,2
10,6,197,2,2
1,6,39,2,2
30,7,237,2,2
248,6,54,2,2
100,6,173,2,2
29,6,187,2,2
195,7,418,2,2
155,7,752,2,2
133,6,114,2,2
19,6,13,2,2
52,6,68,2,2
82,6,69,2,2
116,6,60,2,2
86,6,33,2,2
114,6,51,2,2
65,6,10,2,2
121,6,139,2,2
1,6,61,2,2
57,6,167,2,2
251,6,206,2,2
103,6,302,2,2
74,6,224,2,2
30,6,86,2,2
46,6,21,2,2
28,6,96,2,2
101,6,53,2,2
0,6,39,2,2
12,6,103,2,2
12,6,99,2,2
70,6,0,2,2
27,6,0,2,2
51,6,176,2,2
3,6,76,2,2
108,6,122,2,2
102,6,15,2,2
37,7,132,2,2
12,6,124,2,2
77,6,211,2,2
74,7,285,2,2
60,7,296,2,2
135,6,21,2,2
139,6,0,2,2
27,6,355,2,2
137,6,342,2,2
18,6,0,2,2
222,6,85,2,2
59,6,32,2,2
114,6,54,2,2
78,6,225,2,2
29,6,112,2,2
93,6,29,2,2
114,6,16,2,2
71,6,72,2,2
102,6,0,2,2
16,6,351,2,2
184,6,176,2,2
15,6,282,2,2
41,6,0,2,2
162,6,245,2,2
74,6,1,2,2
25,6,30,2,2
16,6,5,2,2
105,6,47,2,2
114,6,95,2,2
113,6,282,2,2
73,6,173,2,2
147,6,213,2,2
0,6,264,2,2
78,6,110,2,2
170,6,0,2,2
1,6,52,2,2
182,6,308,2,2
30,6,243,2,2
177,6,110,2,2
278,6,22,2,2
68,6,321,2,2
262,6,109,2,2
106,6,266,2,2
49,6,157,2,2
12,6,193,2,2
105,6,263,2,2
19,6,0,2,2
171,6,13,2,2
84,6,11,2,2
22,6,322,2,2
56,6,38,2,2
6,6,208,2,2
21,6,119,2,2
26,6,80,2,2
22,6,32,2,2
64,7,231,2,2
14,6,240,2,2
137,6,0,2,2
30,6,198,2,2
52,6,14,2,2
199,6,8,2,2
150,6,0,2,2
77,6,67,2,2
79,6,209,2,2
61,6,102,2,2
1,6,28,2,2
2,6,110,2,2
35,6,0,2,2
140,6,164,2,2
139,6,183,2,2
269,6,275,2,2
121,6,362,2,2
116,6,329,2,2
94,6,141,2,2
90,6,68,2,2
71,6,111,2,2
88,6,117,2,2
20,6,0,2,2
47,6,174,2,2
281,6,16,2,2
67,6,122,2,2
112,6,69,2,2
78,6,121,2,2
42,6,0,2,2
187,6,0,2,2
85,6,6,2,2
47,6,121,2,2
4,6,133,2,2
64,6,263,2,2
99,6,200,2,2
2,6,0,2,2
106,6,35,2,2
252,6,277,2,2
35,6,86,2,2
323,6,151,2,2
15,6,122,2,2
147,6,2,2,2
112,7,257,2,2
130,6,195,2,2
14,6,46,2,2
129,6,79,2,2
20,6,0,2,2
4,6,117,1,2
44,6,222,2,2
79,6,26,2,2
96,6,0,2,2
152,6,27,2,2
26,6,133,1,2
11,6,78,2,2
93,6,115,2,2
29,6,120,2,2
116,6,129,2,2
3,6,132,2,2
54,6,0,2,2
194,7,327,2,2
137,6,183,2,2
49,6,59,2,2
90,6,177,2,2
24,6,10,2,2
160,6,167,2,2
94,6,305,2,2
239,6,122,2,2
269,6,293,2,2
60,6,108,2,2
202,6,146,2,2
17,6,153,2,2
154,6,47,2,2
109,6,192,2,2
4,6,159,2,2
78,6,228,2,2
216,6,161,2,2
160,6,110,2,2
117,6,94,2,2
166,6,0,2,2
70,6,62,2,2
28,6,1,2,2
149,6,60,2,2
66,7,174,2,2
12,6,192,2,2
130,6,25,2,2
31,6,0,2,2
1,6,281,2,2
219,6,138,2,2
29,6,90,2,2
194,6,20,2,2
52,6,11,2,2
36,6,83,2,2
14,6,155,2,2
40,6,151,2,2
13,6,43,2,2
158,6,103,2,2
12,6,228,2,2
95,6,190,2,2
47,6,164,2,2
2,6,57,2,2
115,6,53,2,2
44,6,306,2,2
66,6,3,2,2
244,6,182,2,2
30,6,90,2,2
184,6,47,2,2
123,6,58,2,2
29,6,264,2,2
200,6,118,2,2
94,6,126,2,2
1,6,199,2,2
26,6,68,2,2
2,6,259,2,2
59,6,163,2,2
60,6,195,2,2
139,6,79,2,2
169,6,129,2,2
58,6,136,2,2
21,6,11,2,2
98,6,169,2,2
48,6,48,2,2
126,6,0,2,2
90,6,51,2,2
95,6,185,2,2
82,6,33,2,2
17,6,43,2,2
26,6,96,2,2
141,6,87,2,2
162,6,138,2,2
194,6,10,2,2
22,6,136,2,2
0,6,8,2,2
31,6,127,2,2
81,6,0,2,2
0,6,29,2,2
159,7,91,2,2
63,6,121,2,2
143,6,89,2,2
133,6,1,2,2
6,6,0,2,2
69,6,6,2,2
95,6,210,2,2
3,6,37,2,2
185,6,250,2,2
77,6,31,2,2
72,6,0,2,2
33,6,147,2,2
103,6,20,2,2
0,6,253,2,2
102,6,0,2,2
38,6,58,2,2
3,6,135,2,2
24,6,46,2,2
9,6,18,2,2
28,6,0,2,2
133,6,0,2,2
35,6,111,2,2
128,6,154,2,2
64,6,157,2,2
96,6,133,2,2
23,6,23,2,2
25,6,69,2,2
3,6,0,2,2
71,6,0,2,2
28,6,0,2,2
19,6,56,2,2
2,6,35,2,2
234,6,0,2,2
2,6,65,2,2
95,6,22,2,2
0,6,77,2,2
23,6,18,2,2
40,6,5,2,2
85,6,32,2,2
207,6,6,2,2
108,6,79,2,2
73,6,21,2,2
146,6,7,2,2
153,6,196,2,2
9,6,0,2,2
192,6,90,2,2
178,6,7,2,2
14,7,155,2,2
72,6,106,2,2
71,6,87,2,2
122,6,122,2,2
46,6,114,2,2
54,6,91,2,2
158,6,62,2,2
46,6,173,2,2
61,6,97,2,2
8,6,102,2,2
38,6,116,2,2
3,6,70,2,2
54,6,78,2,2
133,6,11,2,2
62,6,183,2,2
85,6,38,2,2
173,6,196,2,2
220,6,316,2,2
156,6,74,2,2
39,6,17,2,2
116,6,78,2,2
100,6,3,2,2
182,6,19,2,2
5,6,298,2,2
238,6,74,2,2
310,6,245,2,2
7,6,101,2,2
54,6,90,2,2
190,6,26,2,2
33,6,113,2,2
47,6,95,2,2
307,6,57,2,2
152,6,44,2,2
51,6,69,2,2
96,6,295,2,2
63,6,0,2,2
69,6,169,2,2
29,6,16,2,2
180,6,168,2,2
60,6,270,2,2
254,6,229,2,2
179,6,90,2,2
456,6,219,2,2
338,6,0,2,2
12,6,96,2,2
417,6,263,2,2
464,6,186,2,2
16,6,0,2,2
109,6,53,2,2
196,6,216,2,2
323,6,311,2,2
490,6,209,2,2
126,6,157,2,2
88,6,260,2,2
229,6,67,2,2
440,6,357,2,2
220,6,5,2,2
363,6,384,2,2
441,6,65,2,2
120,6,203,2,2
260,7,319,2,2
408,6,47,2,2
7,6,309,2,2
23,6,258,2,2
292,6,80,2,2
181,6,336,2,2
356,6,75,2,2
25,6,0,2,2
368,6,123,2,2
143,6,25,2,2
264,6,0,2,2
130,6,32,2,2
28,6,86,2,2
193,6,99,2,2
251,6,394,2,2
115,6,266,2,2
1,6,306,2,2
6,6,16,2,2
163,6,245,2,2
43,6,15,2,2
199,6,79,2,2
174,6,133,2,2
234,6,60,2,2
197,6,97,2,2
145,6,162,2,2
255,6,351,2,2
224,6,313,2,2
236,6,200,2,2
27,6,172,2,2
96,6,132,2,2
71,6,39,2,2
72,6,447,2,2
98,6,116,2,2
108,6,23,2,2
235,6,145,2,2
202,6,309,1,2
300,6,230,2,2
192,6,266,2,2
404,6,347,2,2
72,6,490,2,2
321,6,152,2,2
308,6,37,2,2
239,6,351,2,2
302,6,203,2,2
36,6,104,2,2
169,6,132,2,2
539,6,182,2,2
237,6,0,2,2
151,6,9,2,2
246,6,97,2,2
231,6,11,2,2
78,6,68,2,2
57,6,153,2,2
28,6,87,2,2
249,6,103,2,2
135,6,421,1,2
409,6,77,2,2
129,6,446,2,2
382,6,359,2,2
21,6,81,2,2
272,6,221,2,2
97,6,419,2,2
149,6,109,2,2
331,6,447,2,2
652,6,142,2,2
15,7,687,2,2
116,6,753,1,2
79,6,58,2,2
123,6,118,2,2
81,7,524,2,2
177,6,153,2,2
309,7,661,2,2
61,6,370,2,2
275,26,964,1,2
357,17,747,1,2
311,5,67,2,2
275,6,299,2,2
42,6,379,2,2
70,6,306,2,2
75,6,224,2,2
59,7,450,1,2
71,8,1023,2,2
315,5,511,1,2
211,498,167,2,2
221,423,510,2,2
313,84,38,2,2
641,66,1023,1,2
305,10,361,2,2
239,4,10,2,2
71,6,479,2,2
46,6,41,2,2
33,6,452,1,2
107,6,311,2,2
640,6,297,2,2
332,6,134,2,2
211,7,689,1,2
238,7,881,1,2
458,5,19,2,2
39,6,397,2,2
15,6,0,2,2
214,6,518,2,2
245,452,1023,0,2
934,202,0,2,2
255,40,695,1,2
42,6,523,2,2
499,5,443,2,2
258,5,203,2,2
331,6,100,2,2
22,6,161,2,2
105,7,594,1,2
201,6,0,2,2
60,6,375,2,2
61,6,7,2,2
108,6,114,2,2
125,6,13,2,2
5,6,386,2,2
112,6,547,2,2
339,1023,1023,0,2
158,1023,116,2,2
242,309,243,2,2
60,58,233,2,2
222,8,114,2,2
165,5,0,2,2
273,6,0,2,2
310,6,185,2,2
127,6,367,2,2
67,6,383,2,2
98,6,97,2,2
179,6,83,2,2
62,6,292,2,2
576,7,330,2,2
196,6,36,2,2
128,6,252,2,2
86,6,175,2,2
5,7,436,2,2
239,7,654,1,2
342,6,50,2,2
115,6,72,2,2
197,7,331,2,2
94,6,283,1,2
90,6,208,2,2
196,1023,1023,0,2
352,282,1023,0,2
368,784,105,2,2
256,196,22,2,2
216,32,681,2,2
149,5,171,2,2
122,5,375,2,2
423,943,1023,0,2
412,854,338,2,2
15,233,450,2,2
310,41,589,2,2
40,6,278,2,2
429,5,343,2,2
201,5,64,2,2
286,6,188,2,2
138,6,7,2,2
224,7,474,2,2
13,6,106,2,2
152,6,670,2,2
137,6,659,2,2
50,6,235,2,2
270,6,35,2,2
181,7,416,2,2
469,6,33,2,2
261,7,789,2,2
226,7,965,2,2
158,6,229,2,2
290,6,131,2,2
3,6,158,2,2
507,6,201,2,2
93,6,0,2,2
392,6,29,2,2
239,6,289,2,2
305,6,63,2,2
63,6,20,2,2
248,6,262,2,2
206,6,71,2,2
85,6,231,2,2
226,6,367,2,2
434,6,530,1,2
114,6,46,2,2
5,6,623,2,2
667,6,396,2,2
895,6,170,2,2
109,6,306,2,2
386,6,187,2,2
61,6,31,2,2
215,6,218,2,2
399,6,88,2,2
136,6,10,2,2
157,6,85,2,2
8,6,154,2,2
163,6,19,2,2
81,6,145,2,2
97,6,0,2,2
35,6,168,2,2
195,6,90,2,2
174,6,143,2,2
59,6,81,2,2
32,6,21,2,2
71,7,356,2,2
14,6,168,2,2
0,6,77,2,2
102,6,0,2,2
47,7,459,2,2
360,6,314,2,2
100,6,128,2,2
120,6,0,2,2
64,6,43,2,2
85,6,36,2,2
38,6,74,2,2
7,6,0,2,2
10,6,0,2,2
168,6,14,2,2
91,6,20,2,2
17,6,148,2,2
91,6,180,2,2
3,7,388,2,2
15,6,18,2,2
118,6,58,2,2
88,6,76,2,2
35,6,33,2,2
5,6,255,2,2
325,6,3,2,2
83,6,0,2,2
278,6,151,2,2
2,6,41,2,2
59,6,379,2,2
183,6,4,2,2
58,6,132,2,2
39,6,20,2,2
47,6,29,2,2
47,6,0,2,2
90,6,132,2,2
105,6,273,2,2
451,6,95,2,2
1,6,63,2,2
626,6,142,2,2
47,6,0,2,2
91,7,395,2,2
78,6,22,2,2
216,6,70,2,2
47,6,0,2,2
163,6,0,2,2
119,6,78,2,2
113,6,230,2,3
147,6,123,2,3
162,6,184,1,3
84,6,133,2,3
1,6,65,2,3
12,7,273,1,3
7,6,115,2,3
239,6,0,2,3
317,6,99,2,3
455,6,190,2,3
392,6,41,2,3
160,6,67,2,3
129,6,137,2,3
2,6,250,2,3
90,6,148,2,3
67,6,204,2,3
36,6,3,2,3
68,6,14,2,3
223,6,120,2,3
62,6,0,2,3
26,6,134,2,3
158,6,81,1,3
61,6,66,2,3
256,6,85,2,3
4,6,150,2,3
22,6,44,2,3
140,6,50,2,3
81,6,100,2,3
375,6,20,2,3
9,6,205,2,3
444,6,80,2,3
111,6,245,2,3
203,6,42,2,3
193,7,171,2,3
25,7,277,2,3
48,6,6,2,3
48,6,56,2,3
23,6,309,2,3
64,6,51,2,3
21,6,38,2,3
134,6,137,2,3
46,6,116,2,3
141,6,135,2,3
277,6,63,2,3
59,6,38,2,3
136,6,204,2,3
303,6,196,2,3
75,6,6,2,3
212,6,211,2,3
55,6,43,2,3
127,6,53,2,3
48,7,446,1,3
268,6,54,2,3
17,6,402,2,3
38,6,135,2,3
218,6,193,2,3
121,6,102,2,3
1,6,152,2,3
21,6,19,2,3
19,6,98,2,3
55,6,1,2,3
86,6,111,2,3
35,6,117,2,3
214,6,282,2,3
170,6,38,2,3
56,6,205,2,3
48,6,5,2,3
2,6,122,2,3
19,6,49,2,3
252,6,131,2,3
36,6,429,2,3
120,6,331,2,3
216,6,109,2,3
140,6,95,2,3
43,6,105,2,3
65,6,274,2,3
89,6,43,2,3
81,6,160,2,3
126,6,107,2,3
124,6,311,2,3
169,6,160,2,3
212,6,259,2,3
196,6,18,2,3
44,6,194,2,3
32,6,170,2,3
174,6,218,2,3
65,6,106,2,3
22,6,0,2,3
16,7,150,2,3
78,6,128,2,3
128,6,129,2,3
206,6,81,2,3
17,7,364,2,3
31,6,13,2,3
91,6,11,2,3
103,7,282,2,3
110,6,75,2,3
251,6,227,2,3
13,6,86,2,3
143,6,284,2,3
7,6,274,2,3
3,6,155,2,3
57,6,192,2,3
116,6,157,2,3
51,6,127,2,3
81,6,56,2,3
184,6,55,2,3
3,6,207,2,3
73,6,119,2,3
181,6,74,2,3
5,6,58,2,3
72,6,186,2,3
196,6,74,2,3
52,6,89,2,3
51,6,22,2,3
60,6,0,2,3
31,6,135,2,3
11,6,8,2,3
79,7,79,2,3
9,6,194,2,3
25,6,99,2,3
15,6,0,2,3
218,6,126,2,3
6,6,0,2,3
23,6,118,2,3
99,6,13,2,3
88,6,299,1,3
37,6,108,2,3
23,6,52,2,3
12,6,28,2,3
9,6,107,2,3
75,6,0,2,3
9,6,67,2,3
3,6,0,2,3
4,6,109,2,3
13,6,49,2,3
3,6,91,2,3
114,6,0,2,3
55,6,20,2,3
131,6,320,2,3
91,6,32,2,3
15,6,42,2,3
1,6,12,2,3
19,6,49,2,3
183,6,182,2,3
51,6,17,2,3
27,6,4,2,3
27,6,25,2,3
63,6,0,2,3
81,6,101,2,3
0,6,71,2,3
43,6,101,2,3
78,6,0,2,3
64,6,55,2,3
31,6,6,2,3
41,6,31,2,3
227,6,41,2,3
6,6,69,2,3
167,6,229,2,3
36,6,0,2,3
38,7,388,2,3
71,6,141,2,3
95,6,235,2,3
40,6,228,1,3
107,6,110,2,3
221,6,171,2,3
76,6,3,2,3
6,6,93,2,3
57,6,30,2,3
52,6,39,2,3
74,6,86,2,3
5,6,123,2,3
57,6,45,2,3
58,6,0,2,3
126,6,69,2,3
137,6,0,2,3
44,6,168,2,3
92,6,91,2,3
177,6,105,2,3
84,6,0,2,3
50,6,211,2,3
133,6,108,2,3
69,6,215,2,3
0,6,1,2,3
168,6,0,2,3
112,6,27,2,3
94,6,45,2,3
0,6,0,2,3
73,6,27,2,3
28,6,16,2,3
127,6,10,2,3
28,6,1,2,3
67,6,0,2,3
100,6,89,2,3
94,6,62,2,3
3,6,23,2,3
29,6,0,2,3
10,6,21,2,3
80,6,102,2,3
29,6,88,2,3
126,6,5,2,3
111,6,227,2,3
155,6,12,2,3
151,6,372,2,3
108,6,5,2,3
2,6,64,2,3
112,6,96,2,3
13,6,223,2,3
168,6,93,2,3
36,6,156,2,3
91,6,115,2,3
49,6,0,2,3
117,6,295,2,3
109,6,150,2,3
10,6,98,2,3
232,6,28,2,3
284,6,99,2,3
39,6,105,2,3
59,6,36,2,3
126,6,110,2,3
83,6,75,2,3
121,6,225,2,3
71,6,215,2,3
109,6,11,2,3
261,6,136,2,3
198,6,99,2,3
36,6,113,2,3
6,6,2,2,3
198,6,188,2,3
171,6,292,2,3
90,6,166,2,3
55,6,66,2,3
28,6,99,2,3
126,6,33,2,3
173,6,191,2,3
2,6,70,2,3
173,6,7,2,3
205,6,43,2,3
6,6,74,2,3
184,6,169,2,3
199,6,284,2,3
275,6,65,2,3
289,6,0,2,3
2,6,158,2,3
55,6,52,2,3
234,6,126,2,3
51,6,196,2,3
278,6,202,2,3
56,6,260,2,3
127,6,390,2,3
77,6,128,2,3
127,6,147,2,3
55,6,104,2,3
130,6,311,2,3
304,6,294,2,3
502,6,148,2,3
22,6,0,2,3
80,6,139,2,3
9,6,16,2,3
122,6,198,2,3
189,6,20,2,3
167,6,157,2,3
11,6,275,2,3
244,6,0,2,3
63,6,103,2,3
251,7,306,2,3
34,6,246,2,3
77,6,29,2,3
356,6,137,2,3
323,6,448,2,3
79,6,41,2,3
291,6,393,2,3
304,6,0,2,3
149,6,92,2,3
248,6,1,2,3
163,6,229,2,3
19,6,115,2,3
245,6,71,2,3
23,6,41,2,3
154,7,642,1,3
87,6,103,2,3
3,6,492,1,3
113,6,107,2,3
331,6,243,2,3
178,6,89,2,3
232,6,341,2,3
145,6,157,2,3
63,6,24,2,3
79,6,196,2,3
33,6,292,2,3
58,6,106,2,3
454,6,246,2,3
104,6,126,2,3
184,6,42,2,3
62,6,43,2,3
108,6,237,2,3
326,6,367,2,3
357,6,382,2,3
615,7,466,2,3
264,6,284,2,3
30,7,801,2,3
497,6,199,2,3
50,6,394,2,3
313,6,174,2,3
498,6,300,2,3
45,6,52,2,3
376,6,162,2,3
45,6,229,2,3
159,6,68,2,3
87,6,155,2,3
466,7,456,2,3
135,6,54,2,3
38,6,11,2,3
31,6,95,2,3
255,7,559,2,3
160,6,96,2,3
44,6,203,2,3
370,6,191,2,3
14,6,529,2,3
256,6,0,2,3
264,6,159,2,3
367,6,55,2,3
62,6,47,2,3
255,6,62,2,3
22,6,56,2,3
280,6,306,2,3
25,6,31,2,3
213,7,490,1,3
219,7,621,2,3
378,5,17,2,3
171,6,59,2,3
11,6,31,2,3
484,7,423,2,3
107,6,44,2,3
94,6,134,2,3
64,6,0,2,3
245,7,485,2,3
167,6,189,2,3
137,1023,988,0,3
234,671,1023,0,3
469,669,150,2,3
313,157,290,2,3
79,26,132,2,3
234,4,508,2,3
565,6,440,2,3
182,7,896,2,3
643,6,359,2,3
158,6,594,2,3
59,6,161,2,3
10,6,551,1,3
220,6,86,2,3
137,6,141,2,3
184,6,49,2,3
32,6,181,2,3
424,7,432,2,3
101,6,19,2,3
145,6,222,2,3
273,6,175,2,3
226,6,297,2,3
157,7,840,2,3
242,6,501,2,3
333,6,52,2,3
433,6,407,2,3
592,6,336,2,3
245,6,491,2,3
126,6,810,2,3
260,6,290,2,3
15,5,544,2,3
12,6,330,2,3
249,6,110,2,3
382,6,515,2,3
237,6,61,2,3
242,6,264,2,3
421,7,680,2,3
531,6,286,2,3
394,6,0,2,3
389,6,0,2,3
249,6,101,2,3
96,7,574,2,3
483,243,311,2,3
72,406,1023,2,3
778,85,6,2,3
394,11,329,2,3
236,5,141,2,3
266,6,677,2,3
127,12,885,1,3
353,5,0,2,3
161,6,467,2,3
376,6,115,2,3
51,6,478,2,3
341,6,285,2,3
11,8,875,1,3
324,5,378,2,3
418,6,249,2,3
73,7,796,2,3
317,5,267,2,3
187,5,49,2,3
114,6,0,2,3
22,6,601,2,3
21,6,127,2,3
536,8,1023,1,3
416,5,154,2,3
65,6,600,2,3
126,7,768,2,3
439,6,362,2,3
105,6,224,2,3
61,6,362,2,3
357,6,0,2,3
75,6,34,2,3
552,6,262,2,3
51,6,448,1,3
163,6,61,2,3
12,6,0,2,3
266,7,371,2,3
604,7,364,2,3
898,1023,692,0,3
163,547,0,2,3
497,119,327,2,3
190,18,192,2,3
292,5,37,2,3
600,6,38,2,3
242,6,73,2,3
233,1023,1023,0,3
67,749,1023,1,3
442,175,391,2,3
62,429,972,2,3
183,97,62,2,3
59,15,314,2,3
165,4,232,2,3
120,6,358,2,3
244,6,294,2,3
90,6,106,2,3
26,6,184,2,3
148,6,119,2,3
267,6,270,2,3
196,6,386,2,3
519,6,245,2,3
877,6,245,2,3
129,6,808,2,3
525,7,986,1,3
517,5,119,2,3
190,6,391,2,3
134,6,258,2,3
173,6,355,2,3
424,6,27,2,3
201,6,189,2,3
130,6,84,2,3
67,7,666,2,3
76,7,642,1,3
180,6,385,2,3
129,6,202,2,3
191,6,95,2,3
269,6,165,2,3
262,7,720,2,3
374,6,643,2,3
722,6,333,2,3
304,6,402,2,3
363,6,33,2,3
51,6,58,2,3
68,6,195,2,3
2,6,237,2,3
44,6,429,2,3
319,6,221,2,3
182,6,107,2,3
384,6,157,2,3
44,6,168,2,3
69,6,151,2,3
36,6,81,2,3
209,6,196,2,3
96,6,42,2,3
69,6,80,2,3
53,6,76,2,3
110,6,76,2,3
327,6,63,2,3
43,6,103,2,3
210,6,44,2,3
75,6,98,2,3
75,7,412,2,3
22,6,91,2,3
54,6,207,1,3
26,6,14,2,3
9,6,244,2,3
71,6,226,2,3
54,6,96,2,3
73,6,18,2,3
4,6,4,2,3
260,6,132,2,3
25,6,0,2,3
57,6,12,2,3
25,6,11,2,3
209,6,7,2,3
57,6,271,2,3
74,6,223,2,3
176,6,59,2,3
81,6,5,2,3
62,6,8,2,3
40,6,1,2,3
25,6,47,2,3
45,6,70,2,3
19,6,278,2,3
232,6,67,2,3
101,7,540,2,3
329,6,5,2,3
35,6,149,2,3
94,6,118,2,3
113,6,131,2,3
88,6,171,2,3
149,6,0,2,3
53,6,220,2,3
59,6,79,2,3
75,6,86,2,3
23,6,34,2,3
64,6,41,2,3
20,6,74,2,3
48,6,45,2,3
5,6,36,2,3
9,6,0,2,3
153,6,48,2,3
22,6,62,2,3
102,6,40,2,3
199,6,0,2,3
171,6,115,2,3
63,6,5,2,3
172,6,61,2,3
66,6,129,2,3
122,6,104,2,3
4,6,120,2,3
134,6,195,2,3
278,7,232,2,3
148,6,0,2,3
118,6,312,2,3
89,6,110,2,3
183,6,167,2,3
93,6,76,2,3
133,6,147,2,3
28,6,86,2,3
106,6,11,2,3
0,6,49,2,3
38,6,0,2,3
8,6,60,2,3
1,6,189,2,3
5,6,11,2,3
12,6,226,2,3
171,6,55,2,3
106,6,198,2,3
43,6,100,2,3
227,6,0,2,3
29,6,47,2,3
171,6,40,2,3
195,6,68,2,3
102,6,47,2,3
100,6,0,2,3
66,6,274,2,3
2,6,166,2,3
50,6,13,2,3
49,6,9,2,3
239,6,89,2,3
69,6,116,2,3
15,6,54,2,3
148,6,142,2,3
286,6,68,2,3
151,6,102,2,3
104,6,73,2,3
90,6,144,2,3
62,6,62,2,3
226,6,47,2,3
239,6,20,2,3
24,6,58,2,3
222,6,212,2,3
266,6,136,2,3
285,6,191,2,3
59,6,64,2,3
124,6,7,2,3
9,6,146,2,3
177,6,51,2,3
23,7,225,2,3
108,6,42,2,3
122,6,68,2,3
159,6,184,2,3
129,7,345,2,3
495,6,93,2,3
391,6,176,2,3
17,6,92,2,3
75,6,214,2,3
65,7,457,2,3
317,6,554,2,3
64,6,56,2,3
97,6,171,2,3
207,6,156,2,3
84,7,363,2,3
14,6,71,2,3
55,6,90,2,3
105,6,17,2,3
7,6,252,2,3
42,6,60,2,3
51,6,39,2,3
193,6,356,1,3
17,6,36,2,3
41,7,492,2,3
37,6,148,2,3
127,6,493,2,3
119,6,84,2,3
19,6,243,2,3
123,6,22,2,3
31,6,237,2,3
91,6,197,2,3
196,6,106,2,3
10,6,0,2,3
24,6,31,2,3
98,6,9,2,3
83,6,59,2,3
84,6,256,2,3
214,6,51,2,3
199,6,207,2,3
91,6,257,1,3
73,6,25,2,3
130,6,42,2,3
29,6,154,2,3
51,6,117,2,3
103,6,33,2,3
69,6,182,1,3
98,6,73,2,3
10,6,207,2,3
92,6,72,2,3
130,6,173,2,3
51,6,83,2,3
64,6,25,2,3
12,6,264,2,3
1,6,283,2,3
325,6,15,2,3
202,6,279,2,3
44,6,13,2,3
0,6,75,2,3
52,6,32,2,3
355,6,119,2,3
22,6,61,2,3
114,6,130,2,3
185,6,3,2,3
3,6,68,2,3
59,6,56,2,3
196,6,100,2,3
157,6,27,2,3
60,6,84,2,3
167,6,72,2,3
1,6,38,2,3
207,6,112,2,3
217,6,138,2,3
63,6,60,2,3
78,7,311,2,3
149,6,220,2,3
79,6,52,2,3
204,6,42,2,3
19,6,14,2,3
240,6,121,2,3
217,6,59,2,3
5,6,101,2,3
27,6,87,2,3
53,6,61,2,3
31,6,3,2,3
185,6,115,2,3
126,6,37,2,3
118,6,5,2,3
25,6,76,2,3
35,6,85,2,3
85,6,158,2,3
35,6,24,2,3
133,6,99,2,3
175,6,169,2,3
6,6,43,2,3
216,6,0,2,3
222,6,27,2,3
165,6,28,2,3
273,7,262,2,3
17,6,38,2,3
120,6,161,2,3
2,6,125,2,3
92,6,6,2,3
20,6,44,2,3
132,6,3,2,3
50,6,262,2,3
208,6,110,2,3
260,7,251,2,3
67,6,17,2,3
1,6,97,2,3
81,6,182,2,3
5,6,43,2,3
16,6,90,2,3
112,6,46,2,3
75,6,43,2,3
63,6,13,2,3
59,6,94,2,3
75,6,89,2,3
33,6,213,2,3
110,6,103,2,3
29,6,251,2,3
108,6,66,2,3
162,6,20,2,3
6,6,153,2,3
1,6,3,2,3
32,6,10,2,3
48,6,75,2,3
31,6,29,2,3
141,6,188,2,3
136,6,147,2,3
4,6,12,2,3
178,6,71,2,3
227,6,111,2,3
293,6,189,2,3
17,6,24,2,3
54,6,184,2,3
7,6,32,2,3
180,6,25,2,3
224,6,68,2,3
139,6,16,2,3
14,6,15,2,3
4,6,53,2,3
12,6,63,2,3
138,6,152,2,3
63,6,0,2,3
24,6,55,2,3
122,6,93,2,3
101,6,25,2,3
111,6,17,2,3
83,6,6,2,3
204,6,3,2,3
88,6,67,2,3
87,6,203,2,3
115,6,0,2,3
161,6,255,2,3
1,6,84,2,3
79,6,53,2,3
50,6,78,2,3
28,6,0,2,3
83,6,44,2,3
37,6,476,2,3
24,6,97,2,3
10,6,260,2,3
141,6,48,2,3
214,6,22,2,3
233,6,54,2,3
165,6,132,2,3
54,6,158,2,3
153,6,121,2,3
208,6,295,2,3
98,6,51,2,3
310,6,211,2,3
189,6,103,2,3
393,6,23,2,3
141,6,59,2,3
207,6,40,2,3
723,7,71,2,3
291,6,101,2,3
87,6,190,2,3
269,6,113,2,3
155,6,0,2,3
152,6,221,2,3
97,6,195,2,3
109,6,64,2,3
275,6,109,2,3
71,6,33,2,3
46,6,2,2,3
189,6,108,2,3
84,6,146,2,3
198,6,269,2,3
25,6,15,2,3
209,6,118,2,3
112,6,174,2,3
24,6,33,2,3
296,6,223,2,3
204,6,139,2,3
128,6,78,2,3
323,6,168,2,3
122,6,95,2,3
430,6,18,2,3
161,6,79,2,3
279,6,376,2,3
253,6,181,2,3
465,7,391,2,3
453,6,271,2,3
283,6,164,2,3
310,6,132,2,3
38,6,387,2,3
130,7,690,2,3
252,6,109,2,3
16,6,261,2,3
224,6,119,2,3
615,6,286,2,3
464,6,435,2,3
503,6,280,2,3
137,6,355,2,3
260,6,58,2,3
456,6,40,2,3
271,6,212,2,3
411,6,175,2,3
395,6,237,2,3
139,6,245,2,3
73,6,243,2,3
194,6,163,2,3
149,6,456,2,3
87,6,53,2,3
225,6,253,2,3
181,6,208,2,3
210,7,380,2,3
91,6,73,2,3
55,7,536,1,3
361,6,232,2,3
275,6,377,2,3
281,6,117,2,3
5,6,0,2,3
151,6,200,2,3
267,6,36,2,3
183,6,370,2,3
271,6,0,2,3
818,6,97,2,3
39,6,11,2,3
18,7,555,2,3
226,7,685,2,3
347,6,654,1,3
391,5,110,2,3
85,7,1001,1,3
98,5,292,2,3
132,6,259,2,3
170,6,323,2,3
159,6,346,2,3
15,6,44,2,3
76,7,423,2,3
704,6,12,2,3
340,6,212,2,3
80,6,405,2,3
56,6,86,2,3
16,7,426,2,3
11,6,179,2,3
389,6,28,2,3
305,6,257,2,3
135,6,100,2,3
269,6,54,2,3
284,6,113,2,3
344,6,67,2,3
21,6,11,2,3
183,6,269,1,3
34,6,237,2,3
50,7,506,2,3
153,6,381,2,3
203,7,959,2,3
618,620,182,2,3
302,303,587,2,3
42,58,204,2,3
188,8,162,2,3
229,5,164,2,3
30,7,736,2,3
319,6,576,1,3
20,6,473,2,3
358,6,415,2,3
81,6,100,2,3
273,6,234,2,3
173,6,609,2,3
437,6,365,2,3
305,6,247,2,3
229,6,395,1,3
190,6,116,2,3
75,6,115,2,3
90,6,225,2,3
41,6,356,2,3
233,6,22,2,3
158,7,854,2,3
296,6,53,2,3
274,7,693,2,3
345,6,187,2,3
177,6,551,2,3
85,6,162,2,3
281,6,352,2,3
512,6,266,2,3
547,6,94,2,3
8,6,124,2,3
275,6,136,2,3
331,6,51,2,3
22,6,283,2,3
218,6,183,2,3
300,6,117,2,3
609,7,132,2,3
124,6,184,2,3
248,7,409,2,3
238,6,388,2,3
715,47,1023,1,3
1023,5,403,1,3
24,103,127,2,3
6,19,50,2,3
395,5,251,2,3
32,6,188,2,3
435,6,91,2,3
250,6,196,2,3
142,6,23,2,3
274,6,25,2,3
196,7,523,2,3
45,6,588,1,3
170,6,486,2,3
354,6,412,2,3
226,6,510,2,3
206,6,115,2,3
92,6,322,2,3
79,6,14,2,3
106,7,480,2,3
106,6,535,1,3
221,5,44,2,3
268,6,262,2,3
2,7,728,1,3
407,6,277,2,3
176,761,1023,0,3
127,770,103,2,3
111,218,442,2,3
218,38,357,2,3
392,6,88,2,3
