Ch1,Ch2,Ch3,Ch4,label
164,18,91,84,1
121,25,91,21,1
271,51,80,96,1
112,28,7,8,1
19,16,150,89,1
156,11,13,23,1
150,20,137,40,1
251,18,135,138,1
150,36,94,70,1
23,9,171,182,1
114,14,19,63,1
150,36,64,62,1
296,51,0,85,1
124,8,25,27,1
39,10,41,40,1
187,66,124,62,1
116,25,44,36,1
304,95,184,95,1
203,109,135,148,1
30,17,77,3,1
159,76,76,15,1
203,121,212,1,1
275,115,114,160,1
181,61,165,18,1
31,14,45,63,1
189,25,0,180,1
120,77,25,100,1
240,71,239,384,1
141,25,59,3,1
3,22,320,177,1
156,25,180,35,1
205,150,181,42,1
318,50,273,158,1
172,132,68,68,1
5,7,149,117,1
221,99,0,4,1
128,41,0,5,1
285,55,99,142,1
116,11,116,24,1
83,45,0,90,1
140,9,60,1,1
221,108,112,182,1
255,36,105,42,1
167,51,65,25,1
45,84,111,280,1
313,125,92,192,1
201,79,17,20,1
391,132,348,144,1
187,100,95,32,1
118,19,185,51,1
159,14,19,139,1
66,69,225,50,1
396,169,71,79,1
213,130,128,225,1
140,131,199,57,1
255,173,135,149,1
230,174,254,282,1
362,223,241,493,1
238,93,103,126,1
110,172,116,238,1
291,202,101,197,1
131,43,95,31,1
338,229,87,50,1
83,6,141,32,1
39,76,137,65,1
160,11,99,64,1
154,110,66,181,1
234,5,203,148,1
259,170,30,272,1
116,118,114,109,1
62,9,1,11,1
38,9,25,2,1
201,89,289,431,1
63,8,31,27,1
53,77,234,253,1
217,143,74,50,1
281,238,13,26,1
172,97,13,20,1
130,24,166,203,1
51,163,59,258,1
212,191,293,175,1
236,229,54,14,1
310,51,66,85,1
198,78,17,82,1
176,133,46,26,1
256,13,17,14,1
35,40,51,345,1
269,46,155,81,1
115,99,103,11,1
76,231,150,363,1
335,155,112,24,1
177,12,0,251,1
509,387,153,406,1
149,39,47,114,1
76,84,207,180,1
217,9,76,72,1
287,327,134,48,1
179,37,216,183,1
191,120,86,58,1
79,255,198,110,1
165,37,40,38,1
106,9,193,42,1
326,197,48,99,1
264,105,153,244,1
58,14,23,286,1
111,63,10,7,1
187,28,22,199,1
279,127,274,274,1
222,7,34,18,1
32,41,155,33,1
241,185,2,76,1
107,10,130,249,1
349,279,81,310,1
377,304,194,320,1
56,51,111,248,1
328,193,113,135,1
11,60,3,213,1
307,124,173,205,1
37,119,80,79,1
153,139,3,164,1
183,252,103,4,1
2,384,99,278,1
231,170,97,284,1
134,97,66,96,1
69,250,105,116,1
177,58,12,14,1
1,94,246,152,1
307,89,11,79,1
58,7,227,334,1
41,227,29,288,1
209,393,22,179,1
138,66,52,271,1
439,212,67,87,1
156,78,110,145,1
94,87,50,186,1
197,247,353,320,1
28,103,29,63,1
386,251,108,67,1
115,39,0,27,1
92,105,0,58,1
214,83,253,397,1
135,146,152,256,1
414,167,117,244,1
110,236,198,201,1
98,58,79,106,1
423,500,31,285,1
285,610,139,40,1
331,145,145,163,1
339,137,252,135,1
1,53,8,13,1
71,22,367,137,1
5,119,88,36,1
410,110,288,98,1
18,150,242,213,1
126,252,240,276,1
372,264,238,99,1
289,62,250,282,1
432,284,4,43,1
350,9,451,675,1
7,39,143,128,1
270,245,497,446,1
315,79,263,30,1
315,250,167,193,1
139,51,487,32,1
69,12,133,476,1
192,57,634,520,1
230,13,262,109,1
358,113,126,224,1
418,95,380,399,1
251,149,0,198,1
229,85,489,71,1
309,126,134,73,1
549,343,305,154,1
320,207,151,133,1
66,10,129,105,1
342,122,268,25,1
318,242,0,5,1
306,181,111,5,1
255,201,137,97,1
183,110,73,261,1
224,76,0,143,1
132,32,177,366,1
570,269,20,70,1
206,215,449,69,1
33,59,0,274,1
173,21,79,50,1
213,110,0,14,1
360,103,143,57,1
185,124,273,29,1
12,100,472,64,1
112,41,106,412,1
93,66,370,11,1
511,435,636,471,1
270,256,12,61,1
267,16,409,520,1
138,175,241,210,1
179,30,424,175,1
354,157,336,318,1
113,163,266,543,1
180,90,359,420,1
129,94,54,263,1
49,115,0,60,1
242,9,27,189,1
16,28,64,313,1
24,23,216,170,1
325,156,212,263,1
89,27,179,486,1
533,295,205,55,1
152,102,96,56,1
461,88,56,323,1
516,218,10,14,1
175,145,398,231,1
631,427,191,31,1
203,267,29,190,1
169,110,420,29,1
469,225,278,110,1
221,5,411,197,1
314,312,522,131,1
176,95,70,194,1
46,116,175,248,1
303,232,28,193,1
166,220,46,32,1
715,333,0,223,1
511,191,288,263,1
184,13,250,12,1
523,207,276,552,1
13,68,135,84,1
634,368,364,219,1
63,97,15,16,1
83,92,100,63,1
436,269,39,26,1
56,7,286,38,1
652,393,21,127,1
213,12,5,207,1
96,59,290,285,1
629,332,12,324,1
342,142,122,116,1
482,342,141,233,1
251,66,267,56,1
164,34,122,63,1
386,231,361,394,1
4,253,0,239,1
541,294,687,348,1
124,48,43,46,1
183,270,536,369,1
204,62,205,101,1
288,25,421,147,1
370,383,439,352,1
218,38,59,40,1
87,186,109,106,1
332,262,43,238,1
620,31,0,33,1
221,242,461,4,1
358,88,32,59,1
25,164,0,97,1
303,165,372,319,1
97,187,53,7,1
399,212,93,210,1
366,131,130,247,1
3,16,15,177,1
304,156,258,190,1
145,93,19,129,1
410,259,430,104,1
283,97,78,13,1
82,73,301,357,1
232,177,299,167,1
394,174,480,335,1
370,200,304,406,1
180,103,37,46,1
72,52,231,81,1
350,190,82,18,1
212,68,143,57,1
325,153,134,448,1
84,63,75,162,1
26,118,47,51,1
303,39,32,8,1
200,77,14,175,1
361,263,86,49,1
361,243,14,159,1
70,140,71,88,1
359,199,111,17,1
229,127,58,111,1
310,224,212,112,1
139,12,0,72,1
22,23,1,20,1
317,301,51,128,1
151,157,60,11,1
430,290,144,87,1
176,149,198,57,1
225,209,181,147,1
460,70,308,161,1
126,137,206,27,1
377,295,301,148,1
164,62,57,23,1
85,137,63,33,1
420,252,49,261,1
221,92,117,104,1
513,215,232,21,1
171,73,24,181,1
43,93,306,334,1
284,294,16,57,1
289,63,38,48,1
397,388,301,226,1
342,262,1,120,1
18,210,70,65,1
416,270,101,47,1
36,48,13,142,1
451,179,174,7,1
147,100,125,98,1
59,69,145,14,1
395,166,165,137,1
131,38,0,7,1
466,214,352,300,1
256,303,22,77,1
80,137,136,263,1
192,26,255,27,1
226,151,161,81,1
311,155,0,49,1
138,154,18,92,1
45,63,73,226,1
332,186,182,12,1
278,45,42,51,1
247,214,55,58,1
104,7,7,42,1
204,389,95,76,1
446,348,16,21,1
202,179,107,49,1
356,149,200,333,1
352,335,33,16,1
5,120,196,97,1
571,474,532,274,1
303,215,219,19,1
361,125,189,138,1
279,207,131,223,1
3,194,104,30,1
408,415,121,66,1
231,126,48,44,1
339,238,411,325,1
582,321,163,82,1
65,25,406,186,1
495,368,100,78,1
317,491,326,96,1
151,13,177,92,1
134,166,186,281,1
69,80,170,101,1
340,44,133,58,1
204,213,31,40,1
446,93,306,398,1
347,135,83,160,1
104,222,177,71,1
377,207,117,168,1
342,80,6,96,1
238,317,186,134,1
206,145,75,240,1
17,132,189,146,1
291,82,138,201,1
96,176,20,20,1
571,445,120,22,1
139,74,346,92,1
324,138,496,202,1
413,172,58,167,1
368,63,400,182,1
123,155,165,25,1
164,49,54,42,1
78,44,43,57,1
484,344,642,333,1
223,99,11,136,1
409,449,298,166,1
10,35,178,148,1
95,138,31,28,1
321,183,33,53,1
259,22,116,201,1
346,249,91,82,1
189,61,61,191,1
137,6,89,401,1
401,209,184,65,1
222,10,87,233,1
580,390,301,22,1
197,65,110,108,1
199,296,242,35,1
577,403,5,105,1
288,119,205,115,1
375,134,9,99,1
230,43,326,43,1
132,55,39,174,1
405,234,15,161,1
246,87,84,204,1
483,251,250,1,1
378,299,90,37,1
7,45,187,487,1
400,152,315,61,1
198,71,58,209,1
307,111,259,90,1
154,60,30,5,1
32,100,173,29,1
335,86,309,161,1
76,11,136,16,1
447,369,199,9,1
173,68,220,94,1
87,96,230,215,1
473,280,0,121,1
253,230,211,144,1
491,240,87,190,1
161,44,101,46,1
5,90,0,266,1
403,236,123,152,1
223,165,31,218,1
283,116,111,268,1
231,126,29,112,1
82,16,0,33,1
314,92,16,8,1
124,60,0,91,1
208,88,196,143,1
256,332,38,97,1
77,66,221,104,1
406,274,34,59,1
202,187,6,75,1
396,226,469,105,1
312,155,546,317,1
15,13,594,381,1
379,222,185,107,1
226,137,300,71,1
415,270,85,102,1
96,22,185,309,1
40,117,21,27,1
300,74,145,49,1
0,207,107,172,1
528,609,403,116,1
241,223,359,388,1
84,191,473,363,1
404,209,43,19,1
178,110,247,146,1
387,267,51,348,1
137,30,241,52,1
90,107,168,117,1
411,180,113,200,1
195,49,37,96,1
307,53,0,448,1
160,22,69,73,1
59,186,169,73,1
344,197,99,11,1
227,140,214,62,1
226,31,162,15,1
177,132,22,26,1
79,75,157,276,1
384,144,47,367,1
240,89,217,24,1
347,73,23,94,1
169,48,69,109,1
9,19,267,4,1
461,255,77,23,1
216,99,20,220,1
332,83,200,79,1
236,191,0,14,1
12,109,414,392,1
339,221,42,163,1
169,189,108,111,1
318,46,34,13,1
149,76,41,26,1
6,40,261,181,1
438,217,32,163,1
287,186,204,104,1
331,133,247,377,1
162,62,11,239,1
264,283,323,43,1
462,475,20,66,1
215,227,148,20,1
316,152,31,70,1
300,147,94,120,1
45,28,288,31,1
485,339,30,51,1
222,79,4,212,1
402,220,321,165,1
152,88,132,173,1
34,129,412,442,1
304,184,5,186,1
293,109,271,40,1
247,239,140,20,1
175,78,2,22,1
12,133,82,253,1
395,236,315,456,1
142,14,30,30,1
383,254,360,597,1
185,17,190,136,1
18,101,55,200,1
306,7,176,367,1
69,66,16,353,1
235,66,221,46,1
186,99,35,127,1
6,7,29,54,1
360,77,302,87,1
191,67,255,82,1
282,69,96,5,1
230,88,71,151,1
84,98,11,4,1
78,7,36,39,1
99,12,61,80,1
396,265,100,53,1
211,183,17,48,1
44,123,38,46,1
331,19,308,422,1
105,17,35,63,1
179,108,425,188,1
73,63,168,119,1
62,57,218,14,1
389,136,97,75,1
107,155,244,27,1
422,252,95,92,1
181,151,104,112,1
45,37,0,117,1
204,7,179,2,1
2,123,94,133,1
395,307,195,163,1
181,145,0,49,1
37,156,414,261,1
345,56,87,159,1
10,8,165,19,1
235,234,145,55,1
183,137,101,149,1
131,221,279,374,1
429,172,6,81,1
255,63,335,330,1
300,25,241,267,1
221,14,51,41,1
37,39,243,222,1
304,142,23,3,1
150,114,114,32,1
173,147,209,4,1
197,99,176,453,1
98,212,184,39,1
329,108,596,509,1
212,87,216,68,1
356,274,160,1,1
82,63,237,130,1
28,10,177,18,1
381,121,125,189,1
101,58,5,66,1
190,79,330,152,1
168,44,1,26,1
8,16,104,74,1
332,149,2,231,1
179,83,48,4,1
157,9,60,40,1
181,70,5,38,1
67,81,77,34,1
265,57,40,15,1
59,60,0,59,1
325,168,19,210,1
228,20,0,56,1
52,24,44,215,1
295,98,85,10,1
194,109,68,195,1
356,148,97,45,1
214,111,155,175,1
20,73,250,315,1
448,162,160,206,1
20,79,148,169,1
330,117,337,233,1
106,85,63,196,1
50,13,52,124,1
305,16,30,188,1
108,93,34,91,1
216,38,34,2,1
36,38,1,11,1
50,7,60,67,1
303,163,145,325,1
43,45,215,223,1
283,49,7,21,1
137,36,74,235,1
25,7,36,60,1
375,200,47,8,1
245,102,47,111,1
328,121,27,159,1
93,101,237,102,1
119,187,32,280,1
274,60,307,362,1
111,71,188,174,1
226,295,219,254,1
324,122,237,78,1
44,103,181,159,1
609,253,569,398,1
346,161,109,215,1
572,269,736,326,1
300,112,24,59,1
222,156,438,387,1
565,29,228,259,1
94,108,274,9,1
488,190,392,34,1
220,101,248,6,1
26,55,572,366,1
698,217,153,364,1
265,8,59,80,1
535,301,154,11,1
312,156,182,415,1
118,119,0,66,1
812,312,214,200,1
262,30,99,209,1
363,12,339,181,1
260,76,104,6,1
167,222,23,15,1
581,74,218,374,1
255,106,0,200,1
687,446,454,542,1
244,197,0,51,1
29,71,541,282,1
342,10,208,150,1
268,181,360,533,1
408,75,373,536,1
221,94,330,61,1
28,208,462,451,1
500,192,360,395,1
201,76,46,69,1
592,253,564,767,1
299,10,37,427,1
15,18,216,76,1
562,146,183,329,1
307,123,17,82,1
355,106,236,476,1
30,277,191,149,1
416,312,57,257,1
409,34,63,2,1
237,227,209,251,1
403,119,78,2,1
202,17,147,7,1
63,253,15,205,1
512,167,262,2,1
112,88,89,171,1
481,171,534,19,1
286,73,32,21,1
125,8,234,480,1
347,145,63,125,1
282,115,165,405,1
277,81,131,292,1
210,79,28,125,1
158,35,305,76,1
387,278,103,124,1
210,228,402,396,1
180,123,175,328,1
148,179,17,90,1
15,17,162,62,1
329,64,17,193,1
103,32,0,55,1
286,215,12,224,1
13,9,87,400,1
0,90,94,376,1
300,21,225,286,1
120,13,129,180,1
264,119,572,362,1
72,64,459,186,1
221,255,245,270,1
376,475,400,163,1
192,139,22,189,1
13,114,410,193,1
144,77,295,187,1
30,7,672,775,1
232,21,15,153,1
122,37,421,223,1
47,137,436,160,1
260,265,250,214,1
100,146,384,242,1
511,147,135,80,1
103,28,92,428,1
355,134,396,483,1
384,78,247,314,1
21,65,310,57,1
333,200,291,73,1
188,41,243,204,1
255,57,146,236,1
178,199,414,507,1
18,75,188,168,1
410,82,522,554,1
7,294,1,104,1
377,216,116,254,1
93,33,191,87,1
155,60,37,67,1
391,63,19,82,1
120,227,10,254,1
417,304,60,285,1
197,126,441,472,1
30,106,334,113,1
195,96,162,409,1
219,65,377,268,1
173,113,49,182,1
231,113,134,94,1
128,167,90,249,1
500,180,0,193,1
227,213,259,358,1
360,186,114,586,1
259,48,95,40,1
6,80,120,345,1
454,87,5,306,1
4,47,77,70,1
194,18,161,47,1
42,48,152,416,1
108,196,70,122,1
430,356,48,280,1
136,222,42,96,1
318,21,77,11,1
142,16,80,407,1
81,36,217,623,1
317,191,340,154,1
97,166,218,32,1
389,114,245,584,1
177,54,474,821,1
49,17,24,157,1
353,41,144,343,1
174,91,97,13,1
323,155,29,598,1
205,63,118,202,1
256,146,704,441,1
513,164,318,115,1
273,399,54,155,1
229,239,136,317,1
382,122,150,11,1
206,75,197,276,1
563,123,56,303,1
142,141,320,280,1
361,36,125,14,1
181,139,640,326,1
425,152,11,185,1
680,230,331,237,1
122,265,6,56,1
315,133,249,478,1
83,14,89,107,1
189,119,206,16,1
299,42,95,116,1
454,85,0,213,1
132,221,5,252,1
156,162,233,172,1
212,18,226,23,1
118,56,25,43,1
260,61,354,330,1
518,461,7,47,1
389,46,167,189,1
160,141,241,209,1
408,13,119,96,1
190,9,179,479,1
489,322,465,315,1
643,16,133,9,1
330,23,134,307,1
396,62,74,311,1
381,158,86,614,1
330,58,143,163,1
273,74,301,441,1
248,122,185,170,1
278,178,131,332,1
56,137,296,18,1
98,284,445,119,1
15,111,39,4,1
251,88,216,162,1
643,407,142,20,1
17,37,31,32,1
291,266,258,59,1
7,67,86,242,1
140,157,58,35,1
382,460,258,391,1
50,154,179,222,1
362,349,217,44,1
157,214,237,588,1
9,67,21,257,1
388,264,213,140,1
87,18,12,69,1
105,180,484,33,1
81,121,251,171,1
547,24,73,356,1
111,172,106,178,1
359,72,118,130,1
155,206,262,433,1
556,139,131,104,1
247,10,8,234,1
387,233,54,72,1
52,30,0,113,1
241,76,54,22,1
63,137,113,101,1
11,14,70,103,1
571,331,15,34,1
158,202,85,54,1
301,267,64,111,1
251,116,74,215,1
90,46,139,313,1
481,248,96,205,1
429,197,30,162,1
211,99,0,46,1
319,73,161,15,1
82,130,116,79,1
492,400,0,6,1
403,40,192,74,1
186,166,149,182,1
132,10,0,76,1
36,26,245,187,1
345,162,339,385,1
184,117,5,87,1
301,189,212,195,1
217,65,0,26,1
96,63,237,96,1
501,300,209,107,1
173,165,9,8,1
292,205,274,250,1
66,15,157,130,1
62,107,170,220,1
342,146,202,120,1
331,207,23,103,1
362,162,109,56,1
166,25,186,134,1
34,102,0,112,1
575,331,405,315,1
294,176,94,3,1
426,225,399,150,1
186,103,47,136,1
141,104,267,152,1
553,189,296,136,1
234,123,6,24,1
405,70,297,176,1
250,107,37,73,1
120,50,159,58,1
518,299,173,103,1
269,163,29,1,1
413,160,284,409,1
215,181,178,84,1
229,59,170,160,1
330,126,332,151,1
209,57,4,374,1
203,135,294,312,1
159,21,48,137,1
129,144,86,51,1
347,142,205,197,1
19,15,87,144,1
318,315,253,131,1
229,325,65,56,1
155,8,132,7,1
434,135,353,218,1
75,88,71,175,1
475,103,477,218,1
206,80,168,208,1
364,53,256,249,1
287,214,7,208,1
338,47,19,63,1
83,181,32,56,1
62,14,66,123,1
227,146,58,227,1
163,118,174,2,1
158,153,10,201,1
231,169,282,90,1
250,31,146,122,1
129,48,145,275,1
515,235,269,191,1
45,33,135,115,1
423,157,203,116,1
329,180,425,186,1
158,24,0,391,1
795,251,226,75,1
154,36,5,24,1
623,154,201,33,1
348,82,46,158,1
21,7,106,123,1
412,139,0,143,1
158,107,21,280,1
624,465,0,66,1
372,201,172,24,1
25,39,46,83,1
439,231,187,123,1
176,88,333,116,1
107,183,101,121,1
263,37,167,8,1
487,50,0,64,1
348,211,42,3,1
458,287,126,8,1
239,57,302,86,1
52,46,17,66,1
11,95,145,265,1
513,274,23,59,1
247,143,10,150,1
403,230,20,236,1
244,23,161,153,1
86,66,47,278,1
328,150,200,204,1
63,54,0,369,1
388,292,81,52,1
217,88,204,20,1
178,77,170,389,1
611,406,74,169,1
317,63,180,199,1
184,172,175,144,1
222,133,5,214,1
106,131,121,41,1
607,76,143,269,1
334,184,195,477,1
199,99,499,488,1
130,115,221,155,1
30,125,406,10,1
530,387,208,90,1
73,43,344,38,1
344,310,30,176,1
248,396,128,176,1
113,176,183,23,1
453,109,10,3,1
247,268,60,53,1
232,185,105,274,1
186,73,59,94,1
101,8,94,297,1
417,264,370,373,1
240,181,98,8,1
365,160,369,397,1
103,46,57,13,1
25,8,385,40,1
496,293,30,382,1
218,148,76,159,1
210,59,373,21,1
88,79,33,356,1
65,7,475,358,1
365,318,249,334,1
76,127,278,235,1
274,284,0,42,1
179,108,104,38,1
1,21,216,129,1
434,234,299,131,1
107,94,212,36,1
254,217,339,71,1
147,155,439,138,1
9,6,72,168,1
530,221,222,468,1
161,9,25,6,1
550,237,146,234,1
234,156,59,17,1
84,63,94,273,1
320,158,49,281,1
67,15,20,91,1
348,229,197,182,1
91,21,106,136,1
4,108,146,109,1
344,89,27,180,1
249,191,22,109,1
267,127,56,46,1
264,134,32,73,1
103,10,173,151,1
397,301,38,104,1
187,10,36,234,1
276,230,175,109,1
200,9,71,213,1
76,59,113,22,1
359,84,612,410,1
109,31,301,90,1
129,47,427,275,1
182,181,5,94,1
17,139,248,151,1
403,262,0,122,1
136,42,17,82,1
206,164,167,50,1
93,50,103,122,1
20,8,15,76,1
380,188,114,42,1
128,69,41,10,1
181,187,124,53,1
141,84,119,163,1
17,23,222,152,1
349,151,11,123,1
170,133,209,84,1
55,8,219,26,1
120,13,299,213,1
93,78,76,3,1
317,151,26,172,1
313,206,21,145,1
151,62,2,51,1
251,55,161,102,1
98,82,232,264,1
384,91,288,285,1
127,122,266,264,1
292,124,240,64,1
146,47,103,238,1
2,11,52,63,1
324,75,50,219,1
99,7,59,111,1
216,173,237,44,1
107,8,122,208,1
167,18,16,100,1
260,128,311,262,1
178,95,113,36,1
147,63,208,209,1
69,84,103,70,1
28,14,51,49,1
226,84,95,7,1
115,7,42,40,1
252,138,136,4,1
234,114,4,24,1
4,25,208,76,1
370,138,3,10,1
37,10,37,130,1
129,18,209,197,1
162,41,28,5,1
7,20,97,85,1
358,85,287,215,1
224,33,263,166,1
217,62,325,83,1
124,57,161,240,1
159,39,135,12,1
332,85,7,32,1
214,35,182,2,1
124,20,60,92,1
136,11,188,52,1
59,66,103,28,1
343,245,119,5,1
189,103,47,2,1
177,52,122,24,1
135,11,85,16,1
122,7,432,84,1
267,77,546,327,1
195,104,92,144,1
116,21,294,111,1
132,43,36,131,1
57,14,209,205,1
241,81,75,2,1
129,114,177,57,1
155,37,123,68,1
218,153,240,139,1
43,64,295,12,1
415,280,0,82,1
159,60,30,30,1
264,191,193,78,1
137,54,132,2,1
49,33,16,57,1
248,26,123,132,1
184,72,167,31,1
170,5,81,17,1
170,143,5,3,1
66,59,53,39,1
338,99,11,5,1
64,54,129,4,1
95,7,91,14,1
184,80,187,80,1
127,83,214,183,1
345,57,130,23,1
199,72,45,10,1
214,36,130,9,1
88,113,314,83,1
179,147,222,47,1
260,6,108,138,1
79,9,88,41,1
164,22,304,188,1
225,40,98,18,1
15,127,355,151,1
266,27,117,5,1
152,90,102,2,1
157,88,69,20,1
70,81,38,31,1
123,93,62,67,1
333,36,67,263,1
112,7,34,15,1
135,48,13,92,1
140,17,95,147,1
62,76,57,51,1
324,58,281,259,1
196,148,0,38,1
342,30,266,193,1
175,135,139,172,1
176,5,173,5,1
403,86,136,56,1
12,57,39,77,1
108,42,266,1,1
255,171,46,149,1
53,139,141,28,1
181,21,234,307,1
217,59,0,70,1
265,35,365,265,1
250,216,106,79,1
253,71,5,32,1
401,159,133,116,1
234,149,24,142,1
105,81,348,144,1
182,150,6,171,1
1,49,70,21,1
325,133,15,88,1
98,95,199,60,1
144,72,22,78,1
198,156,73,189,1
43,55,98,43,1
152,8,181,57,1
76,107,0,165,1
230,9,123,9,1
241,22,0,104,1
142,20,25,325,1
271,23,273,865,1
20,95,40,96,1
170,97,500,396,1
283,313,18,16,1
71,156,495,337,1
282,222,231,290,1
262,51,189,13,1
443,286,387,471,1
230,148,167,281,1
238,148,236,180,1
286,44,219,341,1
127,92,9,219,1
21,78,139,85,1
49,113,15,3,1
108,199,93,115,1
208,95,85,67,1
324,125,0,12,1
228,20,100,11,1
174,75,91,154,1
136,23,142,306,1
447,207,193,439,1
267,140,78,229,1
292,220,368,463,1
123,49,120,246,1
11,74,429,304,1
181,62,243,11,1
208,190,176,224,1
182,40,40,194,1
313,235,53,185,1
211,47,141,83,1
326,5,194,33,1
40,124,25,163,1
176,103,368,246,1
39,20,354,291,1
11,19,130,212,1
170,74,491,575,1
127,123,197,14,1
98,19,272,462,1
3,99,345,218,1
41,99,257,426,1
265,76,30,137,1
176,155,179,85,1
154,82,40,196,1
204,30,353,291,1
48,106,50,50,1
301,22,244,139,1
176,58,190,428,1
138,128,272,232,1
110,103,178,80,1
38,151,2,23,1
353,117,202,614,1
190,237,30,104,1
227,8,345,549,1
91,89,281,290,1
39,40,281,493,1
319,63,484,533,1
100,67,174,403,1
80,129,700,586,1
0,99,15,252,1
71,10,374,364,1
260,168,164,89,1
267,283,312,13,1
74,113,493,165,1
127,5,251,425,1
42,78,295,243,1
577,143,381,124,1
343,105,37,601,1
208,119,217,146,1
393,224,0,12,1
93,10,376,345,1
300,159,35,324,1
408,194,674,580,1
47,97,515,43,1
264,218,416,478,1
63,53,408,149,1
309,232,48,432,1
162,131,170,224,1
222,401,213,4,1
239,261,474,793,1
25,110,305,490,1
316,333,106,30,1
265,121,229,408,1
181,89,121,320,1
89,17,0,180,1
44,65,99,102,1
404,55,19,59,1
115,120,0,118,1
335,132,0,64,1
401,144,0,234,1
305,186,328,308,1
196,207,8,389,1
291,181,285,156,1
106,139,81,153,1
252,151,323,243,1
114,73,46,47,1
497,150,274,1023,1
18,17,179,94,1
430,193,477,376,1
259,153,3,1023,1
119,88,30,175,1
217,151,384,151,1
463,314,316,14,1
350,269,222,234,1
607,420,155,95,1
201,147,54,18,1
396,141,216,52,1
47,109,424,549,1
375,171,0,2,1
355,227,319,271,1
10,63,328,242,1
524,329,177,6,1
216,157,97,157,1
312,181,57,27,1
165,41,0,176,1
119,129,15,708,1
557,415,71,492,1
205,192,260,10,1
214,114,33,263,1
183,52,165,99,1
309,238,4,148,1
773,399,55,239,1
222,30,107,524,1
226,392,223,11,1
369,156,343,131,1
12,30,299,218,1
629,289,235,251,1
16,29,121,256,1
28,24,26,217,1
186,32,292,395,1
25,7,251,290,1
411,144,574,116,1
122,78,304,572,1
267,339,689,175,1
49,272,62,295,1
62,65,321,50,1
532,210,7,198,1
265,134,330,255,1
285,151,26,24,1
9,98,187,219,1
5,96,70,7,1
601,281,12,579,1
250,223,431,858,1
287,63,13,193,1
117,84,567,763,1
25,8,296,59,1
816,380,452,626,1
475,52,0,24,1
286,304,356,282,1
1,202,297,63,1
9,56,217,320,1
544,257,277,111,1
330,106,364,417,1
294,455,156,551,1
163,234,149,86,1
66,47,589,695,1
474,321,273,171,1
205,159,574,317,1
249,69,235,4,1
27,92,380,253,1
146,68,120,208,1
181,56,31,19,1
265,150,77,528,1
183,302,191,312,1
287,70,45,152,1
42,73,197,279,1
629,549,573,491,1
396,150,109,161,1
395,267,49,65,1
274,143,234,222,1
15,95,115,105,1
387,179,183,435,1
356,9,58,247,1
332,208,77,104,1
333,172,15,84,1
662,13,116,71,1
149,290,283,287,1
259,56,349,42,1
157,13,310,11,1
496,170,111,344,1
206,205,79,296,1
739,233,434,600,1
409,138,106,319,1
90,158,178,320,1
213,85,50,12,1
124,60,0,51,1
673,276,261,219,1
258,90,14,42,1
194,165,77,190,1
210,7,34,3,1
111,75,239,99,1
560,332,138,182,1
98,63,202,59,1
195,164,219,13,1
100,43,40,30,1
131,73,120,210,1
325,382,0,7,1
143,77,0,14,1
200,45,130,2,1
213,225,0,57,1
54,117,434,367,1
309,218,106,229,1
166,127,41,135,1
171,183,78,62,1
133,11,64,218,1
14,25,0,94,1
369,163,3,176,1
77,51,229,210,1
203,196,111,105,1
180,94,33,6,1
35,244,196,52,1
671,476,288,230,1
197,81,126,93,1
370,220,63,28,1
105,107,8,58,1
100,68,40,217,1
433,278,245,143,1
145,16,190,149,1
392,358,13,185,1
345,136,21,85,1
198,152,100,3,1
437,82,0,25,1
99,6,268,338,1
159,84,30,267,1
244,174,0,90,1
246,36,122,282,1
291,81,24,21,1
180,112,0,120,1
211,275,291,44,1
306,230,7,13,1
272,35,76,109,1
231,298,134,257,1
201,139,43,38,1
263,91,0,522,1
23,72,86,145,1
145,16,30,4,1
27,182,244,4,1
4,164,0,10,1
356,46,150,14,1
355,96,135,45,1
36,81,252,7,1
393,283,93,347,1
211,113,0,67,1
204,66,0,161,1
314,137,9,68,1
175,19,13,165,1
444,163,190,150,1
4,89,0,55,1
488,143,100,131,1
242,174,0,19,1
75,70,0,170,1
138,224,269,82,1
22,17,170,5,1
251,280,311,213,1
77,282,266,83,1
20,233,262,181,1
579,327,422,254,1
140,116,101,2,1
501,267,335,81,1
233,75,39,17,1
61,151,65,540,1
709,282,135,133,1
130,39,135,228,1
297,116,314,282,1
302,146,242,628,1
241,78,70,328,1
481,286,296,142,1
225,151,42,69,1
245,236,193,36,1
363,89,105,115,1
40,72,94,63,1
644,379,62,82,1
260,172,171,101,1
197,146,183,88,1
64,49,58,419,1
47,39,103,118,1
329,331,81,89,1
205,95,0,51,1
84,219,18,322,1
165,276,351,161,1
131,234,203,17,1
717,406,166,101,1
74,79,158,11,1
354,90,349,99,1
190,53,133,77,1
81,40,0,3,1
560,169,284,62,1
126,6,133,36,1
357,160,275,1,1
246,59,76,152,1
39,12,284,145,1
467,115,150,218,1
42,48,31,407,1
355,176,532,559,1
245,188,0,21,1
207,143,275,116,1
186,199,273,236,1
383,384,58,333,1
97,93,93,19,1
281,332,273,303,1
131,65,80,42,1
425,261,15,242,1
228,39,67,253,1
380,617,36,731,1
400,304,5,1,1
91,114,10,192,1
403,225,159,30,1
108,87,133,225,1
303,156,184,298,1
431,55,6,83,1
376,55,20,222,1
456,164,261,278,1
165,121,17,26,1
212,124,255,16,1
154,56,142,33,1
157,150,118,224,1
678,335,107,45,1
271,112,99,52,1
281,145,180,75,1
243,101,426,546,1
97,64,174,403,1
309,49,0,430,1
203,19,29,5,1
219,94,93,33,1
189,85,240,290,1
105,52,158,27,1
517,340,215,168,1
138,137,82,83,1
251,217,175,16,1
197,184,0,50,1
81,12,133,218,1
363,241,81,47,1
144,24,28,46,1
249,145,6,34,1
190,6,70,133,1
175,162,113,416,1
481,273,36,114,1
260,86,150,245,1
155,217,75,93,1
76,101,66,16,1
112,107,142,488,1
310,111,196,54,1
105,90,67,48,1
177,9,266,130,1
187,124,14,128,1
19,59,29,24,1
415,216,160,153,1
152,51,19,304,1
240,98,111,33,1
299,122,124,377,1
17,30,52,106,1
338,206,203,162,1
308,156,132,122,1
176,50,179,6,1
343,86,214,63,1
161,150,243,45,1
449,344,218,61,1
154,204,24,97,1
90,19,119,182,1
136,10,34,66,1
91,155,207,363,1
128,49,103,49,1
43,56,218,312,1
99,70,4,87,1
270,207,29,39,1
135,27,25,28,1
392,200,177,23,1
156,44,146,206,1
156,15,481,231,1
227,185,156,419,1
11,32,398,129,1
393,154,257,129,1
112,33,90,398,1
196,26,425,263,1
108,15,180,132,1
23,123,153,429,1
260,99,175,368,1
125,60,0,16,1
166,100,0,70,1
177,110,152,182,1
22,95,171,300,1
233,152,275,122,1
208,55,72,81,1
123,34,441,255,1
21,88,0,13,1
69,128,293,194,1
412,162,178,78,1
102,54,258,148,1
38,29,29,197,1
84,72,186,47,1
136,8,0,106,1
365,161,105,83,1
126,34,88,48,1
194,41,126,142,1
234,8,53,4,1
188,117,220,98,1
400,144,43,34,1
145,55,238,43,1
113,56,211,146,1
184,67,72,109,1
24,7,145,62,1
399,161,177,171,1
256,108,81,1,1
229,40,381,328,1
152,19,33,132,1
52,14,209,298,1
326,144,322,48,1
92,68,96,14,1
128,78,19,19,1
173,52,77,9,1
203,169,34,111,1
287,111,293,181,1
253,262,27,108,1
14,215,0,22,1
181,62,54,151,1
106,77,40,47,1
335,194,91,224,1
174,75,157,61,1
69,11,0,134,1
157,25,21,168,1
118,51,0,69,1
308,66,105,37,1
229,242,142,1,1
138,10,46,26,1
116,105,420,45,1
166,110,21,243,1
300,47,529,318,1
102,49,125,3,1
6,85,251,135,1
26,186,47,8,1
39,67,7,21,1
274,78,262,118,1
116,56,278,465,1
150,41,202,19,1
99,21,552,182,1
130,59,157,179,1
300,73,98,3,1
107,44,143,184,1
135,177,141,5,1
199,63,0,44,1
27,68,32,64,1
281,106,34,50,1
132,48,9,65,1
137,41,167,29,1
128,7,162,82,1
149,142,117,60,1
267,121,65,295,1
125,39,109,91,1
48,37,34,38,1
164,10,55,19,1
207,145,304,84,1
135,8,79,138,1
257,161,250,4,1
56,48,85,33,1
105,13,203,235,1
29,127,116,78,1
301,9,33,8,1
149,34,95,147,1
107,147,306,94,1
128,42,31,11,1
159,111,284,294,1
214,5,293,413,1
182,84,95,25,1
52,23,117,76,1
13,52,179,164,1
46,88,93,6,1
213,6,99,211,1
97,76,168,154,1
57,7,8,88,1
97,23,146,224,1
135,36,99,127,1
215,17,201,320,1
149,92,93,53,1
192,81,50,19,1
185,56,0,41,1
54,67,57,156,1
285,55,51,137,1
221,128,146,173,1
72,216,18,102,1
163,93,0,62,1
58,6,67,129,1
211,133,43,214,1
282,105,5,87,1
273,11,97,49,1
106,149,156,213,1
214,45,269,136,1
495,217,162,232,1
30,7,244,24,1
104,12,117,197,1
289,34,51,114,1
168,15,128,116,1
282,26,124,151,1
86,171,51,68,1
155,9,131,105,1
244,32,99,98,1
69,58,164,44,1
281,26,115,42,1
168,9,180,188,1
171,39,262,508,1
65,19,126,278,1
146,25,212,469,1
327,49,44,304,1
114,95,217,145,1
48,21,208,139,1
212,47,97,59,1
78,79,186,162,1
245,51,57,269,1
188,28,67,43,1
177,68,396,194,1
84,148,59,183,1
209,42,189,33,1
384,241,7,54,1
140,83,15,82,1
152,115,132,83,1
363,85,98,288,1
41,46,143,162,1
258,69,280,507,1
105,77,0,225,1
156,77,181,92,1
19,67,0,155,1
148,11,31,85,1
378,29,261,211,1
164,168,114,179,1
85,122,5,106,1
40,78,49,49,1
8,76,130,196,1
264,9,179,92,1
81,104,137,234,1
221,138,168,108,1
179,90,206,390,1
229,100,109,57,1
313,14,189,27,1
66,300,85,170,1
111,49,23,173,1
186,11,86,125,1
67,77,0,5,1
298,239,0,187,1
311,128,0,5,1
147,263,63,40,1
60,20,41,166,1
98,52,38,100,1
409,78,144,20,1
228,277,173,573,1
6,212,90,595,1
94,290,29,74,1
4,89,301,412,1
292,266,57,146,1
257,188,74,4,1
38,86,43,41,1
0,90,26,49,1
194,21,170,458,1
97,40,33,121,1
129,126,82,16,1
9,83,27,40,1
151,59,190,76,1
130,83,251,155,1
306,45,141,91,1
91,26,3,93,1
227,108,44,124,1
71,13,40,106,1
58,11,6,96,1
325,39,245,62,1
207,132,91,12,1
12,9,94,246,1
28,98,134,75,1
153,111,6,8,1
112,164,299,642,1
87,170,0,70,1
14,106,119,131,1
16,111,218,74,1
147,111,269,5,1
267,15,37,363,1
135,357,142,199,1
196,165,16,347,1
160,19,0,134,1
52,103,166,13,1
224,69,11,121,1
39,76,226,25,1
88,59,241,115,1
141,204,50,56,1
19,50,29,387,1
400,5,342,686,1
71,123,263,506,1
145,101,210,25,1
185,131,38,22,1
245,48,11,172,1
352,359,150,206,1
220,99,98,384,1
35,8,268,228,1
273,248,265,42,1
213,111,328,43,1
376,196,41,118,1
153,38,201,51,1
146,141,43,55,1
11,103,310,245,1
103,215,106,49,1
270,70,490,128,1
145,88,72,298,1
135,92,746,776,1
127,42,218,27,1
206,14,325,319,1
344,322,58,202,1
138,36,65,130,1
234,172,288,166,1
133,131,108,74,1
363,68,190,526,1
223,162,255,652,1
128,213,243,212,1
119,434,160,8,1
105,32,469,34,1
62,34,272,71,1
200,85,244,74,1
135,127,130,5,1
104,236,91,150,1
34,6,30,716,1
302,570,214,681,1
383,102,20,299,1
444,278,268,47,1
7,71,240,330,1
318,245,121,306,1
337,108,338,574,1
313,92,295,190,1
226,23,82,419,1
226,70,182,305,1
157,42,371,313,1
220,112,368,803,1
418,160,1002,945,1
23,115,26,3,1
482,190,244,174,1
300,82,138,249,1
22,19,117,850,1
416,193,423,890,1
163,224,520,519,1
403,76,70,91,1
356,78,280,281,1
376,168,248,497,1
360,19,309,475,1
233,25,384,7,1
248,61,42,1,1
105,53,339,336,1
6,99,93,53,1
433,135,446,205,1
101,32,25,372,1
191,210,670,496,1
19,9,132,158,1
273,179,122,366,1
239,163,206,73,1
79,251,79,555,1
226,185,173,92,1
56,45,92,11,1
40,164,4,3,1
344,201,256,227,1
280,101,188,27,1
141,389,371,383,1
300,106,276,160,1
106,59,402,315,1
657,211,0,32,1
316,101,156,416,1
9,219,24,254,1
36,72,9,99,1
105,69,168,113,1
564,262,439,181,1
385,147,131,13,1
443,223,117,35,1
254,84,27,42,1
124,51,121,24,1
502,183,440,594,1
270,216,259,291,1
84,72,291,166,1
132,247,307,87,1
69,368,456,56,1
311,78,32,276,1
169,87,126,398,1
199,159,252,258,1
159,172,120,552,1
165,53,32,47,1
267,188,457,400,1
175,116,40,73,1
123,47,355,413,1
267,160,139,210,1
371,426,120,24,1
398,254,159,525,1
148,126,137,145,1
189,193,142,140,1
259,174,245,79,1
183,114,123,258,1
390,171,150,165,1
202,31,206,66,1
152,249,197,140,1
259,125,80,14,1
297,113,174,19,1
324,169,52,83,1
256,189,100,43,1
175,173,194,76,1
144,162,0,31,1
197,88,108,6,1
400,298,93,72,1
337,324,354,343,1
8,22,127,132,1
254,163,22,40,1
146,21,111,219,1
356,187,223,184,1
121,60,118,83,1
191,132,143,177,1
240,73,40,52,1
94,49,26,111,1
312,169,277,223,1
117,84,59,79,1
188,142,240,14,1
300,183,159,54,1
117,135,0,5,1
456,176,393,137,1
224,129,127,110,1
276,170,235,45,1
297,48,44,9,1
266,19,280,45,1
479,376,102,132,1
445,260,358,129,1
28,6,231,72,1
159,96,0,164,1
116,94,274,141,1
485,432,314,111,1
288,155,132,292,1
156,196,287,286,1
374,318,116,69,1
421,274,212,8,1
497,218,244,228,1
322,262,210,226,1
334,189,108,23,1
293,278,69,64,1
60,91,79,56,1
366,277,33,48,1
234,43,163,407,1
153,99,16,184,1
137,31,150,178,1
3,101,245,33,1
527,333,158,87,1
210,227,14,128,1
13,78,311,195,1
142,148,32,144,1
49,23,332,266,1
352,250,191,39,1
91,23,141,150,1
249,94,212,60,1
130,6,58,34,1
20,87,154,154,1
388,384,314,439,1
194,144,24,16,1
113,225,103,365,1
267,110,51,142,1
241,62,21,31,1
202,231,204,194,1
253,114,95,40,1
323,33,249,158,1
239,183,263,203,1
92,165,106,85,1
415,226,284,227,1
336,180,6,224,1
288,171,119,43,1
348,252,59,212,1
85,160,38,7,1
461,131,56,69,1
267,39,52,2,1
24,43,79,284,1
312,158,23,81,1
171,127,273,139,1
779,190,383,177,1
588,142,479,113,1
48,42,386,173,1
63,18,0,7,1
258,276,32,73,1
579,282,392,131,1
186,141,0,126,1
283,229,80,37,1
101,64,289,177,1
112,152,24,118,1
435,167,134,55,1
249,48,11,192,1
32,9,269,91,1
99,24,3,152,1
42,68,0,126,1
563,240,327,30,1
223,19,7,274,1
275,314,41,80,1
293,134,20,25,1
61,204,60,51,1
759,391,248,96,1
1,263,0,11,1
391,35,355,119,1
8,187,41,112,1
47,47,3,3,1
520,354,164,7,1
216,202,177,199,1
226,34,20,15,1
24,69,157,596,1
25,121,119,411,1
326,273,85,82,1
159,119,211,103,1
138,33,198,323,1
291,118,96,93,1
286,177,108,277,1
404,133,0,7,1
213,103,13,134,1
193,81,8,136,1
116,80,9,227,1
49,151,0,482,1
475,93,122,255,1
448,204,23,259,1
58,123,348,160,1
280,206,0,124,1
4,213,10,73,1
503,286,553,255,1
122,25,130,209,1
113,68,262,148,1
125,8,40,40,1
180,114,347,42,1
367,197,209,201,1
123,151,52,213,1
95,18,0,379,1
173,186,14,15,1
4,54,64,39,1
526,297,194,330,1
95,31,114,146,1
177,111,153,190,1
45,108,178,105,1
266,103,0,8,1
81,83,225,227,1
278,118,116,18,1
30,66,407,307,1
132,188,109,53,1
78,5,149,230,1
438,342,470,146,1
205,155,52,270,1
95,25,524,481,1
95,174,216,282,1
115,61,52,57,1
424,344,244,84,1
125,216,22,195,1
54,39,195,126,1
106,231,240,443,1
115,142,60,191,1
369,296,155,94,1
186,131,100,238,1
76,107,114,67,1
35,71,25,16,1
114,43,0,111,1
232,165,105,444,1
150,191,185,58,1
106,42,348,313,1
192,70,122,126,1
79,20,229,162,1
288,89,47,1,1
158,141,314,77,1
132,158,165,27,1
209,175,81,87,1
205,126,121,186,1
139,86,126,20,1
114,28,41,120,1
13,53,19,152,1
205,83,60,216,1
170,9,220,111,1
339,160,144,7,1
229,265,19,211,1
173,31,259,80,1
157,39,152,344,1
71,87,298,209,1
311,105,166,200,1
34,27,115,113,1
28,79,137,102,1
144,19,33,99,1
56,28,114,85,1
386,321,277,170,1
214,98,19,109,1
101,37,178,107,1
103,73,0,44,1
77,84,63,97,1
232,209,0,6,1
85,72,0,2,1
43,9,35,16,1
197,77,11,6,1
154,84,44,52,1
298,72,414,311,1
251,209,24,37,1
29,15,381,265,1
114,45,45,15,1
9,38,254,6,1
252,132,297,15,1
155,14,119,1,1
11,9,224,13,1
183,125,92,4,1
143,169,134,103,1
254,138,160,66,1
152,146,3,8,1
30,49,61,78,1
169,110,252,194,1
199,198,92,78,1
396,171,70,65,1
219,164,50,88,1
8,63,49,56,1
162,33,73,45,1
200,41,54,4,1
50,110,302,278,1
189,119,0,5,1
6,175,238,194,1
81,8,0,18,1
98,10,199,74,1
143,7,0,72,1
138,100,180,35,1
7,120,131,49,1
144,47,75,10,1
32,21,43,17,1
193,12,281,5,1
66,37,87,101,1
15,10,11,27,1
100,30,127,16,1
131,11,34,75,1
278,77,189,148,1
152,7,153,118,1
11,16,230,161,1
128,12,231,156,1
114,62,13,63,1
246,35,346,395,1
220,121,51,44,1
1,194,201,269,1
153,11,151,46,1
99,52,115,84,1
246,31,65,10,1
116,95,71,4,1
12,28,201,90,1
231,108,33,42,1
145,97,34,16,1
282,27,108,88,1
129,8,25,11,1
53,37,83,34,1
118,13,63,117,1
178,61,103,32,1
265,43,184,158,1
174,33,0,48,1
18,57,54,81,1
190,85,0,71,1
130,27,48,53,1
205,35,53,163,1
181,79,89,21,1
18,94,235,67,1
117,10,138,28,1
125,62,30,9,1
273,7,124,123,1
205,236,66,8,1
66,242,194,143,1
114,63,5,74,1
117,42,36,37,1
190,21,247,308,1
166,81,83,145,1
60,22,301,244,1
193,62,271,101,1
148,53,212,119,1
283,91,428,260,1
243,217,43,12,1
17,92,263,133,1
137,55,52,88,1
113,103,160,55,1
239,46,220,87,1
205,181,0,162,1
41,31,225,18,1
400,270,119,51,1
279,180,67,2,1
323,20,223,224,1
182,69,0,11,1
17,42,39,55,1
156,127,68,91,1
138,62,13,106,1
325,72,309,84,1
219,163,126,115,1
12,53,75,129,1
167,16,190,241,1
240,75,42,48,1
267,75,96,134,1
103,76,12,31,1
39,10,99,63,1
203,37,75,1,1
78,65,108,309,1
296,135,250,200,1
145,44,195,327,1
83,61,384,176,1
266,19,306,8,1
29,56,97,278,1
388,137,339,284,1
156,123,83,177,1
35,86,220,103,1
173,49,156,318,1
106,58,98,152,1
99,146,55,216,1
164,39,18,138,1
112,70,108,162,1
278,152,206,111,1
167,173,18,44,1
330,6,309,362,1
86,23,49,46,1
20,83,266,88,1
183,38,0,154,1
128,54,176,83,1
318,19,34,259,1
182,87,0,213,1
140,49,0,292,1
113,39,72,220,1
111,126,154,36,1
267,60,59,93,1
146,22,156,259,1
69,84,153,28,1
216,106,1,246,1
57,29,26,28,1
175,21,167,20,1
211,201,40,183,1
118,33,405,126,1
17,91,213,72,1
106,31,268,28,1
239,18,448,80,1
128,130,86,183,1
169,197,145,112,1
41,220,71,252,1
117,7,60,121,1
169,73,241,471,1
254,306,7,13,1
84,334,212,275,1
236,122,35,141,1
230,303,193,204,1
191,7,8,61,1
196,38,200,58,1
98,35,55,150,1
201,165,65,49,1
159,7,0,48,1
275,98,107,66,1
121,30,138,182,1
27,200,5,71,1
168,385,0,8,1
110,90,311,97,1
150,74,171,13,1
162,86,62,228,1
18,97,255,17,1
350,81,11,364,1
320,276,242,389,1
127,88,7,473,1
48,93,19,295,1
24,189,128,318,1
192,207,125,143,1
41,70,244,243,1
213,28,64,614,1
394,351,156,248,1
75,212,67,13,1
130,111,0,53,1
46,259,105,98,1
622,551,208,54,1
190,190,86,196,1
194,79,160,43,1
278,9,103,28,1
84,10,131,117,1
257,27,75,274,1
359,178,0,840,1
112,84,45,221,1
273,324,183,416,1
306,227,308,209,1
224,7,0,24,1
108,115,140,414,1
220,23,226,492,1
234,128,6,54,1
3,14,0,29,1
238,12,26,305,1
137,30,146,635,1
70,181,50,273,1
217,133,83,188,1
178,36,183,228,1
469,192,425,552,1
165,166,483,200,1
60,162,231,386,1
73,18,105,38,1
209,108,38,188,1
146,78,239,50,1
286,36,10,174,1
11,252,256,371,1
144,201,2,17,1
129,53,130,116,1
184,63,263,266,1
485,7,43,148,1
45,93,373,648,1
386,158,96,123,1
94,73,215,224,1
543,250,86,90,1
315,17,153,160,1
89,59,297,21,1
447,228,151,98,1
332,292,202,386,1
253,120,0,669,1
184,46,162,379,1
42,379,259,750,1
136,6,91,147,1
158,107,15,622,1
449,262,151,30,1
249,203,47,261,1
323,302,0,198,1
336,103,236,251,1
286,42,59,213,1
165,137,53,447,1
237,43,4,209,1
156,249,463,202,1
441,105,53,118,1
293,187,350,635,1
491,273,417,95,1
199,56,62,121,1
155,23,8,808,1
350,118,22,634,1
196,90,52,92,1
413,107,772,13,1
644,266,0,122,1
192,85,584,281,1
310,598,46,318,1
285,161,131,116,1
421,365,248,532,1
328,25,203,658,1
96,199,241,327,1
508,260,199,104,1
17,146,143,4,1
626,308,285,243,1
300,236,51,26,1
207,147,116,311,1
426,276,268,87,1
226,13,143,258,1
503,222,434,484,1
176,99,120,48,1
283,96,10,116,1
312,136,65,156,1
75,11,2,149,1
506,251,313,113,1
275,179,133,103,1
36,254,516,549,1
222,63,358,225,1
163,106,338,360,1
373,239,668,359,1
90,63,276,337,1
91,51,498,109,1
217,250,128,130,1
176,32,17,7,1
170,313,186,304,1
174,150,18,2,1
5,36,236,139,1
248,194,86,116,1
125,23,256,56,1
438,303,306,179,1
179,99,23,79,1
12,128,8,250,1
408,619,210,184,1
144,274,139,131,1
318,148,293,173,1
277,127,28,377,1
38,59,332,299,1
283,10,88,242,1
12,140,244,234,1
462,241,388,456,1
49,25,156,344,1
11,133,0,20,1
289,106,20,83,1
213,76,151,368,1
228,99,193,61,1
207,117,10,246,1
38,226,413,28,1
337,396,9,273,1
205,8,396,173,1
370,96,408,287,1
341,57,242,112,1
21,59,209,12,1
331,109,37,135,1
146,35,282,49,1
287,208,305,138,1
71,9,153,7,1
128,175,352,122,1
280,151,46,36,1
104,75,169,59,1
422,188,225,18,1
191,27,108,240,1
33,249,134,384,1
166,152,147,321,1
100,47,36,2,1
404,359,306,133,1
115,168,0,12,1
120,131,6,31,1
435,229,144,310,1
246,89,152,28,1
409,248,415,426,1
139,38,150,45,1
142,220,5,114,1
411,191,208,161,1
154,27,0,204,1
420,338,236,112,1
276,100,84,37,1
80,224,247,1,1
247,76,208,216,1
218,23,17,159,1
518,272,11,101,1
199,59,415,95,1
61,83,264,176,1
274,283,202,28,1
208,124,291,199,1
338,262,426,451,1
140,127,31,85,1
8,12,165,91,1
150,89,16,59,1
171,125,63,142,1
524,420,257,110,1
472,466,199,91,1
25,37,14,111,1
455,167,73,45,1
46,36,239,153,1
422,255,24,108,1
180,63,270,204,1
42,29,162,222,1
323,319,23,23,1
251,255,304,125,1
373,200,209,139,1
250,225,191,73,1
4,241,57,247,1
406,289,3,69,1
89,112,36,186,1
373,308,136,34,1
169,70,6,211,1
133,82,119,238,1
102,111,162,121,1
105,125,106,151,1
127,54,416,304,1
166,178,53,54,1
63,31,207,193,1
630,168,101,197,1
157,184,241,189,1
322,85,383,534,1
33,7,132,7,1
31,92,42,225,1
333,242,5,211,1
33,89,162,59,1
362,143,292,131,1
178,86,109,166,1
5,46,166,71,1
258,67,159,20,1
273,47,184,258,1
203,53,202,212,1
21,8,236,171,1
55,61,330,252,1
342,329,348,78,1
280,253,91,121,1
333,262,181,401,1
248,338,221,318,1
160,25,348,88,1
226,213,51,42,1
123,125,93,31,1
531,167,214,200,1
249,143,27,72,1
49,91,30,21,1
188,182,159,87,1
279,239,145,422,1
123,26,355,348,1
201,26,3,213,1
100,58,153,755,1
245,100,45,464,1
68,165,43,3,1
424,83,303,616,1
164,66,70,324,1
7,65,207,81,1
320,164,248,157,1
45,128,115,235,1
355,175,337,129,1
128,82,50,310,1
9,18,44,170,1
234,164,8,264,1
102,12,115,479,1
296,7,285,153,1
180,9,89,401,1
118,191,20,38,1
320,174,145,403,1
34,11,14,209,1
472,275,0,188,1
271,145,69,504,1
1,62,1,114,1
475,223,180,446,1
260,231,28,14,1
255,55,413,502,1
12,22,1,42,1
55,63,97,47,1
133,30,363,119,1
163,43,306,266,1
320,98,164,332,1
146,16,108,298,1
38,86,362,206,1
339,106,0,97,1
132,74,28,104,1
233,95,290,70,1
204,27,95,605,1
6,32,290,480,1
315,82,143,359,1
144,76,326,34,1
274,163,23,4,1
141,73,0,83,1
32,7,139,247,1
201,9,243,284,1
164,61,0,71,1
380,183,63,607,1
104,25,75,223,1
28,52,28,215,1
210,140,324,301,1
61,47,328,61,1
356,309,453,195,1
167,180,27,359,1
76,158,190,105,1
246,114,35,63,1
26,134,49,78,1
313,18,318,470,1
139,226,19,18,1
50,25,149,168,1
203,60,229,360,1
83,89,9,4,1
306,129,220,105,1
130,55,84,518,1
41,47,97,15,1
222,131,34,220,1
89,11,20,2,1
385,190,13,12,1
146,37,40,131,1
2,35,80,17,1
208,79,15,34,1
32,160,46,35,1
389,189,68,115,1
121,60,148,348,1
2,48,201,232,1
227,171,115,310,1
108,37,202,73,1
326,136,0,623,1
214,67,0,372,1
29,52,0,278,1
259,111,74,507,1
154,105,0,7,1
257,48,67,137,1
92,32,30,195,1
25,6,174,646,1
311,123,28,260,1
241,107,34,90,1
172,99,288,10,1
173,7,35,169,1
33,61,20,211,1
255,185,26,98,1
208,71,10,682,1
244,202,126,555,1
181,56,117,446,1
4,57,179,199,1
291,245,76,190,1
114,52,74,140,1
296,71,137,703,1
133,33,70,45,1
109,130,74,308,1
289,26,104,32,1
175,6,25,384,1
179,146,137,127,1
108,22,141,349,1
4,11,137,96,1
266,85,67,69,1
41,18,4,22,1
180,20,243,270,1
195,119,118,164,1
7,62,96,6,1
291,69,286,225,1
135,29,29,43,1
255,9,251,252,1
177,43,132,195,1
16,66,192,323,1
274,129,128,226,1
93,29,125,86,1
304,192,49,17,1
55,40,55,226,1
2,82,245,102,1
159,57,227,576,1
173,189,163,186,1
122,14,199,341,1
50,66,32,110,1
75,76,308,73,1
306,10,0,212,1
155,98,155,142,1
169,130,324,52,1
148,66,170,45,1
39,20,228,40,1
275,113,47,18,1
218,127,150,190,1
214,48,128,44,1
116,38,110,134,1
103,149,173,35,1
284,25,129,18,1
203,49,91,5,1
248,52,167,48,1
101,6,24,25,1
16,99,161,98,1
330,152,209,80,1
258,177,1,158,1
219,25,94,18,1
153,32,49,79,1
40,91,100,40,1
257,167,0,17,1
182,45,2,157,1
210,21,228,4,1
181,10,0,25,1
19,7,9,2,1
222,58,347,111,1
173,84,0,141,1
290,85,214,193,1
142,35,128,164,1
55,78,35,94,1
296,81,149,35,1
138,67,33,33,1
185,11,284,133,1
125,21,175,58,1
46,19,40,101,1
274,116,103,36,1
125,25,21,192,1
254,49,259,146,1
135,27,102,163,1
34,7,69,151,1
289,93,39,76,1
274,108,45,76,1
186,26,391,295,1
215,101,0,61,1
18,52,161,20,1
288,30,96,129,1
116,53,133,8,1
234,50,209,32,1
181,7,238,240,1
33,84,19,39,1
320,31,313,318,1
125,29,8,247,1
310,109,281,72,1
267,112,1,101,1
87,19,299,69,1
257,31,14,92,1
247,155,412,70,1
195,64,320,114,1
133,56,61,7,1
12,152,150,230,1
411,286,124,98,1
170,151,179,313,1
265,81,228,161,1
271,101,229,144,1
123,99,153,100,1
83,117,37,23,1
194,120,143,22,1
143,29,354,124,1
221,119,50,194,1
109,140,219,164,1
312,35,87,21,1
177,158,41,193,1
132,64,284,5,1
222,95,0,180,1
12,6,322,206,1
237,89,62,100,1
193,173,176,204,1
106,141,140,154,1
126,116,121,51,1
190,247,126,100,1
394,135,0,39,1
307,57,36,250,1
120,194,260,29,1
66,132,143,263,1
23,31,290,376,1
207,53,30,350,1
207,65,198,88,1
207,105,148,216,1
92,37,262,15,1
136,29,328,137,1
414,181,127,400,1
80,75,251,51,1
7,176,587,299,1
96,242,176,402,1
15,107,394,319,1
164,66,135,75,1
135,65,93,146,1
248,198,70,140,1
61,29,371,15,1
35,151,1,119,1
236,32,283,12,1
124,130,222,133,1
180,43,156,150,1
2,173,116,5,1
15,117,328,160,1
283,47,5,32,1
254,194,275,767,1
176,77,190,275,1
148,12,155,50,1
47,42,460,204,1
249,154,34,95,1
171,77,66,5,1
208,23,117,189,1
138,49,90,198,1
46,57,26,125,1
315,82,69,216,1
39,26,51,483,1
168,9,81,8,1
37,207,179,181,1
61,157,214,60,1
238,62,120,223,1
144,53,252,3,1
130,142,227,82,1
206,155,202,277,1
255,162,7,79,1
361,161,348,387,1
62,19,194,383,1
115,83,303,602,1
160,160,290,185,1
52,189,268,256,1
179,165,267,155,1
192,93,154,205,1
165,89,38,240,1
74,63,160,428,1
247,78,0,161,1
276,300,331,223,1
1,101,117,454,1
192,124,0,115,1
239,19,130,21,1
48,58,271,263,1
533,337,136,275,1
281,25,88,40,1
272,104,481,391,1
98,133,196,158,1
2,33,203,554,1
285,61,485,784,1
95,109,255,8,1
91,413,643,688,1
86,262,67,101,1
65,54,202,27,1
273,91,46,102,1
37,37,102,182,1
290,19,0,119,1
26,21,0,208,1
158,101,211,11,1
181,35,504,481,1
142,323,118,29,1
54,48,302,340,1
270,126,0,452,1
255,227,126,240,1
476,291,49,175,1
323,304,180,384,1
385,97,397,336,1
110,96,437,522,1
205,277,59,41,1
423,197,440,257,1
80,124,144,24,1
209,125,388,141,1
79,21,143,72,1
27,18,11,576,1
258,166,218,142,1
226,41,29,88,1
201,46,735,382,1
265,437,238,86,1
43,17,56,125,1
310,182,256,234,1
38,330,29,373,1
387,233,183,299,1
3,93,139,175,1
22,131,169,85,1
220,263,45,74,1
5,15,23,294,1
116,164,269,17,1
140,48,40,203,1
307,196,104,583,1
411,15,280,327,1
104,67,9,350,1
302,178,388,479,1
41,151,256,246,1
31,249,344,181,1
178,13,254,243,1
249,305,134,172,1
49,48,51,24,1
97,203,51,624,1
118,84,24,642,1
306,65,364,190,1
196,121,369,724,1
291,96,9,82,1
89,77,0,29,1
96,87,526,432,1
410,253,3,50,1
13,78,669,12,1
260,116,87,165,1
229,46,639,25,1
165,225,381,400,1
424,401,242,396,1
423,196,353,222,1
136,77,5,100,1
95,206,25,52,1
115,114,296,224,1
353,199,745,63,1
155,183,10,419,1
252,148,660,847,1
103,42,244,94,1
159,129,346,52,1
94,106,47,24,1
115,11,28,152,1
270,72,156,97,1
30,52,181,6,1
248,41,506,475,1
600,207,339,280,1
17,28,50,49,1
705,375,335,204,1
20,29,143,136,1
209,96,623,660,1
595,413,342,231,1
225,7,219,327,1
374,265,332,339,1
323,75,12,7,1
19,36,189,190,1
547,459,142,52,1
98,191,117,33,1
301,74,95,57,1
175,23,634,203,1
37,115,169,98,1
455,190,392,173,1
253,198,33,62,1
259,362,141,60,1
96,71,61,170,1
21,17,176,243,1
539,197,373,459,1
191,64,109,253,1
562,450,280,582,1
231,273,545,673,1
285,68,205,192,1
659,350,383,316,1
74,198,203,387,1
361,367,0,172,1
299,364,8,284,1
239,113,40,406,1
312,175,202,74,1
366,167,413,482,1
166,83,78,202,1
254,44,6,212,1
114,96,31,184,1
541,360,7,76,1
313,292,148,40,1
476,370,91,183,1
416,503,592,314,1
49,30,427,54,1
680,174,515,323,1
483,368,385,193,1
235,251,210,125,1
242,206,122,51,1
176,78,92,210,1
437,217,41,339,1
413,43,246,279,1
299,225,149,236,1
290,54,454,805,1
197,104,98,39,1
647,243,269,543,1
273,141,17,65,1
196,27,498,9,1
339,216,106,115,1
167,53,79,169,1
454,542,237,187,1
236,86,299,136,1
295,261,136,54,1
148,67,29,89,1
99,257,0,100,1
488,302,145,207,1
42,86,31,141,1
83,141,267,120,1
74,48,318,154,1
66,11,17,3,1
379,268,362,73,1
244,35,187,130,1
268,186,316,401,1
248,83,87,94,1
141,29,546,353,1
449,112,270,201,1
190,93,550,269,1
140,175,425,321,1
190,199,224,6,1
136,84,416,248,1
348,262,224,287,1
184,81,138,168,1
231,166,111,45,1
245,148,468,430,1
88,8,48,43,1
460,247,189,103,1
12,103,4,24,1
492,352,37,248,1
178,50,0,95,1
163,85,166,66,1
204,168,139,4,1
249,54,1,21,1
182,218,82,257,1
244,114,61,10,1
122,53,136,30,1
395,282,163,88,1
185,182,83,95,1
104,129,318,404,1
173,88,129,106,1
68,74,345,276,1
365,181,149,130,1
229,51,29,20,1
83,6,156,10,1
54,79,49,151,1
5,26,105,96,1
311,264,19,58,1
157,109,10,23,1
273,427,16,85,1
258,116,61,36,1
9,37,152,74,1
357,144,236,200,1
177,22,222,112,1
166,129,219,130,1
76,46,109,163,1
12,257,229,276,1
342,155,199,169,1
107,72,28,135,1
406,136,0,122,1
323,58,66,42,1
62,66,32,588,1
479,138,183,56,1
124,6,7,48,1
387,20,368,55,1
176,9,20,85,1
18,13,469,54,1
469,370,0,77,1
166,123,156,62,1
95,12,222,132,1
93,8,186,142,1
13,28,0,163,1
435,247,268,44,1
150,18,135,97,1
300,217,88,3,1
351,98,0,273,1
73,134,119,37,1
549,210,130,238,1
267,75,2,175,1
340,259,0,8,1
161,93,341,115,1
18,39,82,251,1
449,257,73,9,1
220,7,170,106,1
422,267,353,30,1
292,96,108,80,1
119,14,54,32,1
442,154,374,279,1
169,37,13,156,1
88,125,176,48,1
310,138,113,98,1
120,7,289,100,1
529,284,46,72,1
163,30,90,214,1
193,101,352,241,1
254,132,0,207,1
160,143,133,37,1
352,15,20,174,1
23,64,142,132,1
438,220,422,166,1
190,86,72,82,1
29,147,250,5,1
410,283,104,56,1
26,47,24,3,1
199,57,425,72,1
163,106,112,35,1
94,155,251,181,1
307,166,89,171,1
57,9,18,159,1
549,222,164,85,1
275,153,95,139,1
70,8,207,56,1
495,211,154,405,1
242,141,3,283,1
216,178,179,110,1
244,125,2,4,1
96,9,108,280,1
395,95,248,165,1
156,11,0,32,1
162,32,542,20,1
150,56,0,152,1
142,23,136,22,1
409,117,173,166,1
262,86,98,49,1
113,70,160,5,1
38,27,32,61,1
182,76,183,5,1
488,249,0,8,1
360,42,189,12,1
220,78,409,76,1
5,166,119,103,1
160,173,0,134,1
548,329,419,159,1
190,229,523,462,1
163,53,573,702,1
98,169,68,84,1
83,30,292,445,1
528,369,108,203,1
236,129,118,56,1
202,112,414,215,1
266,86,182,62,1
182,33,79,73,1
412,51,343,87,1
133,116,165,3,1
307,109,231,331,1
259,114,206,151,1
153,148,47,257,1
342,229,100,193,1
154,106,59,33,1
268,10,200,172,1
316,289,0,237,1
109,231,239,429,1
347,155,296,76,1
211,253,339,126,1
120,53,260,58,1
166,77,39,227,1
6,131,156,23,1
407,356,10,816,1
187,85,39,178,1
131,95,217,417,1
215,168,0,27,1
141,43,100,73,1
357,69,44,27,1
176,209,0,40,1
250,46,28,178,1
254,253,15,245,1
260,232,210,51,1
477,129,192,81,1
219,133,40,68,1
158,12,445,316,1
166,27,46,254,1
46,86,55,270,1
322,25,169,447,1
189,147,0,104,1
169,15,195,260,1
108,13,183,228,1
22,113,241,174,1
316,19,172,195,1
41,125,184,106,1
186,77,219,267,1
117,22,103,341,1
38,81,73,444,1
238,87,127,371,1
136,38,183,289,1
155,46,130,28,1
166,133,34,67,1
106,48,132,102,1
349,166,69,38,1
156,120,56,158,1
66,35,293,168,1
107,70,141,139,1
38,7,231,172,1
324,186,209,92,1
139,47,190,11,1
76,11,272,228,1
107,37,51,64,1
112,103,111,9,1
318,82,83,230,1
104,7,70,76,1
79,35,76,314,1
182,181,83,76,1
106,107,13,94,1
309,183,97,122,1
160,5,10,10,1
239,142,40,12,1
243,51,1,40,1
116,7,10,13,1
348,247,25,583,1
216,107,241,72,1
101,14,342,471,1
40,42,175,151,1
50,54,173,119,1
281,92,374,348,1
232,141,66,68,1
66,28,194,136,1
41,88,0,1,1
129,9,54,33,1
262,22,29,124,1
23,11,149,148,1
111,77,227,137,1
214,126,69,2,1
114,78,87,85,1
220,175,113,34,1
106,14,270,100,1
170,144,181,97,1
64,39,238,108,1
136,57,0,51,1
256,149,108,1,1
95,6,138,47,1
76,7,36,175,1
138,14,4,64,1
106,33,30,186,1
276,113,0,126,1
120,18,78,7,1
105,6,0,43,1
49,74,17,29,1
95,10,91,164,1
336,33,12,72,1
129,46,10,60,1
58,45,231,139,1
103,44,144,73,1
21,37,334,87,1
221,43,175,155,1
59,17,55,11,1
173,37,89,32,1
202,110,167,76,1
89,70,44,1,1
319,34,294,255,1
107,12,1,101,1
39,56,280,89,1
193,20,868,233,1
97,107,127,30,1
268,25,211,11,1
237,67,106,142,1
150,12,64,76,1
153,18,66,48,1
188,167,116,53,1
291,23,81,120,1
141,84,87,197,1
171,82,227,260,1
171,95,0,152,1
165,21,3,97,1
278,58,36,27,1
94,14,315,111,1
127,67,272,2,1
281,118,206,17,1
56,80,271,148,1
280,47,10,92,1
179,64,273,12,1
57,58,624,70,1
113,16,289,15,1
125,83,258,27,1
189,154,0,81,1
177,38,86,169,1
36,87,80,10,1
111,76,21,246,1
51,54,34,209,1
255,23,27,100,1
148,20,107,24,1
69,10,166,73,1
273,191,95,19,1
230,354,0,35,1
250,49,167,240,1
260,156,251,390,1
5,178,229,80,1
167,21,54,123,1
131,143,0,47,1
429,114,127,357,1
130,7,100,178,1
149,131,213,25,1
239,141,201,199,1
9,31,177,110,1
220,15,290,233,1
234,113,87,54,1
159,197,229,57,1
53,55,15,39,1
141,55,54,3,1
381,130,78,153,1
45,6,11,303,1
217,103,6,77,1
264,229,215,337,1
87,62,68,27,1
270,167,435,377,1
2,107,116,1,1
123,120,237,287,1
173,119,127,128,1
117,105,324,192,1
409,191,95,222,1
296,162,252,6,1
118,69,171,17,1
192,21,0,15,1
123,51,54,168,1
266,105,163,294,1
170,15,76,229,1
159,101,446,504,1
217,49,157,553,1
29,24,376,3,1
255,95,3,253,1
59,269,170,55,1
415,449,114,207,1
113,17,572,392,1
156,100,186,154,1
372,19,272,2,1
94,164,0,3,1
30,25,10,306,1
40,130,34,35,1
26,18,0,337,1
136,40,254,137,1
336,100,0,3,1
51,251,407,34,1
295,37,87,260,1
182,22,216,21,1
355,204,267,18,1
66,13,0,248,1
195,48,20,152,1
288,74,126,400,1
273,322,207,426,1
285,17,471,489,1
135,113,12,79,1
239,147,448,377,1
79,126,0,33,1
54,70,154,236,1
144,51,107,70,1
0,7,35,266,1
53,41,254,368,1
79,120,70,47,1
197,142,429,298,1
306,21,99,335,1
61,66,194,241,1
109,234,26,80,1
91,10,217,39,1
16,179,11,23,1
305,168,105,7,1
50,54,123,170,1
80,114,142,86,1
153,99,8,23,1
199,116,158,97,1
211,43,201,596,1
299,281,186,93,1
21,77,244,610,1
119,225,70,41,1
203,270,40,45,1
368,121,324,331,1
135,66,89,10,1
110,121,346,194,1
211,101,246,178,1
3,77,243,7,1
230,154,316,61,1
95,72,200,96,1
12,8,36,260,1
82,163,139,239,1
118,346,352,359,1
384,421,239,93,1
268,96,206,89,1
202,135,24,2,1
191,21,84,41,1
75,218,65,22,1
357,125,289,174,1
137,42,211,338,1
216,22,35,73,1
295,282,407,607,1
305,115,342,118,1
275,69,264,344,1
164,49,113,185,1
93,182,9,44,1
6,231,114,157,1
92,91,88,187,1
419,46,146,285,1
120,7,256,33,1
18,339,156,751,1
358,266,127,351,1
0,5,247,30,1
304,10,263,359,1
19,146,0,440,1
76,140,48,76,1
148,128,144,425,1
150,75,197,399,1
367,127,189,158,1
98,15,428,239,1
283,231,143,76,1
347,65,52,10,1
332,286,31,20,1
226,9,461,701,1
476,112,574,192,1
55,53,78,49,1
344,29,281,109,1
32,33,334,187,1
353,290,201,91,1
31,78,3,1023,1
101,120,67,581,1
249,13,0,103,1
55,314,5,109,1
226,91,147,22,1
200,220,448,422,1
107,14,53,8,1
206,32,137,166,1
61,89,97,58,1
342,227,176,268,1
131,134,194,71,1
22,169,68,11,1
128,11,414,111,1
190,19,170,277,1
381,267,418,274,1
332,242,81,177,1
105,130,79,315,1
27,55,154,356,1
149,26,17,41,1
251,11,46,231,1
37,115,70,22,1
168,171,47,151,1
122,9,158,32,1
207,84,275,163,1
163,81,103,110,1
112,61,255,310,1
235,178,401,188,1
231,276,454,105,1
286,377,128,458,1
601,109,823,670,1
44,86,274,597,1
294,158,1013,425,1
8,107,92,292,1
21,188,60,198,1
401,231,104,132,1
280,126,290,78,1
347,61,257,409,1
314,179,427,123,1
133,6,271,574,1
628,384,243,121,1
205,85,338,301,1
178,187,7,408,1
4,11,451,704,1
235,351,39,110,1
441,191,405,113,1
396,371,155,20,1
425,290,424,157,1
0,200,248,75,1
107,71,320,133,1
422,62,455,348,1
261,43,410,632,1
205,99,655,179,1
43,12,273,351,1
404,27,583,161,1
101,112,366,32,1
297,8,313,226,1
61,128,502,122,1
267,364,95,616,1
112,26,202,40,1
623,321,412,269,1
54,46,4,240,1
236,215,162,240,1
89,127,152,576,1
80,93,6,20,1
486,226,232,365,1
150,225,340,282,1
357,140,108,44,1
60,159,89,15,1
201,41,313,408,1
169,99,27,49,1
121,9,231,387,1
10,13,299,228,1
21,207,165,75,1
177,34,250,477,1
305,371,224,213,1
18,49,41,178,1
38,82,263,25,1
32,109,62,128,1
70,17,120,294,1
469,266,26,104,1
221,20,144,643,1
180,125,65,185,1
220,112,33,87,1
227,62,331,57,1
294,59,92,178,1
74,98,49,177,1
161,137,350,16,1
153,21,1,127,1
210,116,326,394,1
381,234,538,72,1
82,162,117,249,1
88,17,251,327,1
149,13,94,150,1
158,100,232,249,1
281,135,406,190,1
296,165,59,326,1
123,60,419,411,1
28,16,31,78,1
164,18,210,111,1
450,203,165,107,1
173,129,217,83,1
72,10,8,550,1
40,139,241,444,1
98,16,26,322,1
299,92,30,145,1
166,68,173,161,1
163,122,0,554,1
284,101,296,483,1
238,103,268,111,1
328,115,251,34,1
187,195,191,253,1
154,497,565,36,1
192,131,197,26,1
32,8,534,543,1
490,399,287,495,1
313,224,311,305,1
120,66,363,214,1
201,121,44,138,1
293,255,339,263,1
204,111,241,29,1
131,258,26,188,1
129,91,97,374,1
231,129,263,204,1
161,180,142,336,1
479,336,360,188,1
324,23,87,410,1
100,184,439,152,1
7,159,108,50,1
201,8,247,374,1
168,110,22,89,1
324,123,78,130,1
42,32,345,152,1
181,51,335,462,1
311,124,346,110,1
393,270,184,159,1
298,129,321,193,1
158,16,264,184,1
230,139,248,257,1
145,57,144,74,1
370,29,313,189,1
278,25,25,311,1
21,11,346,31,1
142,12,45,336,1
239,187,359,419,1
434,100,85,117,1
623,122,128,146,1
25,82,189,269,1
283,148,183,191,1
34,19,32,457,1
453,222,434,258,1
171,251,51,100,1
129,69,467,158,1
266,187,0,210,1
321,48,5,116,1
405,203,1,22,1
386,116,79,72,1
27,122,296,192,1
216,114,330,125,1
310,293,265,114,1
361,270,595,189,1
372,382,54,185,1
56,92,117,95,1
313,191,48,190,1
414,202,33,81,1
398,304,223,58,1
277,202,233,133,1
297,150,468,98,1
257,141,30,46,1
156,119,146,114,1
394,237,38,2,1
223,22,131,154,1
147,125,213,25,1
60,31,172,71,1
5,26,253,15,1
526,272,106,5,1
284,29,122,74,1
10,233,301,55,1
104,6,0,287,1
92,93,460,65,1
628,224,431,86,1
262,14,233,566,1
135,231,118,527,1
94,13,49,28,1
171,16,258,282,1
357,160,409,141,1
194,63,47,50,1
96,58,307,117,1
248,70,40,10,1
240,20,21,136,1
325,113,544,216,1
149,9,154,70,1
103,127,176,165,1
121,8,89,55,1
45,166,19,28,1
367,57,20,81,1
178,106,120,84,1
127,100,256,169,1
262,236,36,9,1
306,164,384,114,1
361,153,318,10,1
264,144,71,1,1
163,62,252,135,1
163,79,267,26,1
120,9,98,37,1
450,208,591,321,1
283,158,175,57,1
218,47,595,409,1
189,200,214,181,1
155,131,361,486,1
338,37,86,28,1
180,112,200,51,1
139,83,145,10,1
94,75,103,162,1
445,311,94,215,1
330,176,404,430,1
312,115,64,151,1
45,46,406,151,1
115,156,105,420,1
53,14,260,17,1
354,244,86,74,1
353,194,1,172,1
9,44,93,250,1
58,65,118,138,1
92,82,1,129,1
376,62,0,42,1
160,48,28,130,1
71,95,118,166,1
102,11,87,180,1
184,44,47,22,1
227,145,8,142,1
26,17,49,89,1
48,117,94,5,1
157,60,363,387,1
291,241,8,214,1
157,11,373,185,1
287,115,203,169,1
126,33,95,180,1
65,95,251,265,1
96,70,22,23,1
312,48,232,249,1
123,97,134,170,1
8,6,13,332,1
199,63,39,263,1
114,14,9,263,1
224,31,728,734,1
269,138,93,9,1
22,40,560,631,1
103,70,11,137,1
196,150,351,403,1
295,183,180,89,1
179,11,96,45,1
9,87,137,173,1
141,50,130,8,1
33,220,53,65,1
348,306,210,51,1
210,181,79,168,1
9,8,187,160,1
182,155,167,133,1
174,70,96,114,1
288,145,197,296,1
62,131,0,161,1
100,78,31,169,1
202,139,7,30,1
91,12,13,30,1
217,70,100,6,1
168,87,15,5,1
95,5,170,166,1
244,61,133,308,1
143,23,85,189,1
229,78,129,137,1
92,99,0,90,1
130,149,176,229,1
74,159,194,29,1
114,131,321,88,1
297,164,215,283,1
229,57,117,138,1
58,157,119,245,1
113,11,407,50,1
171,118,111,119,1
200,6,106,139,1
106,28,95,162,1
54,47,150,309,1
126,197,206,236,1
170,202,161,250,1
175,43,67,200,1
154,263,219,755,1
47,41,318,221,1
145,34,65,347,1
176,16,41,5,1
236,38,22,21,1
155,158,26,76,1
38,51,232,9,1
81,141,76,20,1
90,86,19,276,1
304,84,86,93,1
249,163,0,254,1
1,98,5,73,1
94,8,16,21,1
114,76,96,194,1
198,21,193,104,1
193,11,187,115,1
40,83,193,27,1
132,52,105,114,1
58,55,25,55,1
316,116,330,363,1
273,173,86,56,1
61,35,0,48,1
179,52,21,9,1
194,157,0,105,1
204,107,282,115,1
96,8,160,43,1
21,10,406,91,1
233,79,33,24,1
135,122,34,36,1
211,113,254,229,1
150,202,173,154,1
161,8,96,12,1
238,166,236,134,1
319,178,108,133,1
255,20,134,7,1
91,38,105,189,1
8,87,228,110,1
211,22,194,53,1
111,20,42,322,1
119,13,0,39,1
220,78,188,50,1
8,85,219,174,1
221,186,181,366,1
156,135,253,86,1
365,95,63,51,1
120,42,314,61,1
23,15,386,127,1
144,101,22,98,1
146,123,30,21,1
225,9,266,189,1
300,135,23,137,1
143,68,195,202,1
92,86,99,75,1
183,83,314,33,1
224,12,4,137,1
88,74,110,28,1
11,64,146,193,1
182,6,155,21,1
12,98,0,32,1
395,252,7,455,1
206,33,130,42,1
8,32,269,284,1
181,176,178,99,1
44,77,87,20,1
251,113,0,65,1
203,42,95,71,1
79,61,495,97,1
253,67,45,17,1
154,51,208,282,1
208,20,172,470,1
143,43,59,385,1
32,26,23,60,1
195,35,123,187,1
135,35,95,131,1
297,87,450,342,1
173,44,416,571,1
112,134,237,491,1
94,98,0,12,1
78,8,492,485,1
233,63,377,453,1
216,192,212,422,1
48,149,176,91,1
105,180,41,12,1
224,111,192,96,1
355,146,37,153,1
171,120,160,132,1
92,49,228,142,1
384,110,25,97,1
34,112,3,262,1
115,7,793,615,1
136,7,917,679,1
42,55,325,188,1
99,11,12,148,1
208,152,126,58,1
316,80,247,376,1
226,130,0,16,1
11,44,183,163,1
199,171,110,112,1
171,113,103,154,1
366,242,131,85,1
209,204,219,118,1
6,70,7,163,1
183,146,141,194,1
165,189,57,385,1
347,58,129,172,1
159,6,239,20,1
27,103,415,268,1
170,83,174,117,1
103,51,103,118,1
388,231,3,19,1
78,127,124,116,1
37,17,35,340,1
296,162,116,61,1
199,55,126,196,1
297,20,294,69,1
198,14,64,151,1
79,47,332,116,1
117,36,146,91,1
170,19,103,25,1
339,5,340,281,1
167,35,103,23,1
52,121,382,131,1
135,62,138,62,1
21,42,89,163,1
341,94,618,194,1
177,8,174,71,1
67,62,106,182,1
220,111,248,222,1
199,99,6,47,1
275,59,242,403,1
211,175,39,89,1
59,108,0,60,1
139,11,220,313,1
42,74,23,235,1
136,250,357,239,1
182,14,98,19,1
14,108,290,377,1
96,12,247,38,1
139,65,110,311,1
232,41,212,4,1
117,77,40,41,1
25,114,20,81,1
198,39,143,222,1
52,20,11,253,1
257,17,176,48,1
206,8,129,31,1
63,35,199,29,1
237,222,239,103,1
125,188,61,114,1
260,42,41,72,1
35,97,0,85,1
93,120,237,567,1
27,118,0,14,1
92,26,352,362,1
78,211,138,18,1
280,48,375,168,1
6,332,74,274,1
7,137,131,282,1
188,142,63,177,1
91,182,28,351,1
42,23,248,344,1
7,46,14,67,1
220,143,90,235,1
79,92,32,477,1
166,164,87,470,1
198,60,61,56,1
38,141,7,69,1
129,9,0,81,1
194,24,4,86,1
195,67,487,471,1
172,95,188,274,1
65,104,379,237,1
103,20,241,516,1
102,180,68,223,1
151,88,77,719,1
208,79,264,1023,1
76,71,51,11,1
154,113,438,803,1
15,41,371,130,1
260,14,337,512,1
112,306,333,160,1
5,86,131,22,1
56,10,138,76,1
37,211,168,211,1
262,263,321,240,1
152,111,220,634,1
18,141,137,176,1
61,435,161,96,1
120,283,147,101,1
252,74,223,27,1
151,62,172,489,1
2,24,2,733,1
146,83,248,505,1
66,20,297,443,1
289,71,136,446,1
97,81,246,313,1
82,499,226,243,1
20,12,217,747,1
42,92,207,442,1
191,9,421,343,1
306,52,166,289,1
53,140,187,726,1
146,188,375,998,1
229,193,184,7,1
240,18,577,762,1
126,150,274,89,1
15,110,433,252,1
65,92,343,107,1
189,250,0,134,1
183,8,40,86,1
279,180,0,141,1
42,80,285,7,1
142,48,4,169,1
25,400,164,151,1
433,366,91,153,1
190,165,420,79,1
100,93,97,40,1
289,54,295,174,1
140,39,524,8,1
531,173,31,141,1
122,293,294,18,1
80,178,193,78,1
209,36,423,1023,1
171,328,108,324,1
312,116,167,850,1
27,71,142,63,1
200,125,635,855,1
21,185,15,688,1
41,35,712,325,1
10,124,321,148,1
323,68,487,202,1
125,94,551,49,1
32,245,9,136,1
116,22,341,186,1
614,165,106,241,1
281,133,238,177,1
214,197,171,173,1
540,195,669,121,1
692,14,186,803,1
260,39,360,345,1
510,19,33,460,1
193,19,32,25,1
651,333,140,227,1
31,107,489,285,1
626,101,156,212,1
233,59,262,292,1
104,48,29,324,1
63,49,276,277,1
224,151,200,129,1
129,375,343,301,1
55,73,85,179,1
2,20,265,437,1
414,206,310,261,1
154,66,257,477,1
701,115,209,93,1
230,11,327,197,1
204,149,204,137,1
27,70,400,11,1
103,79,31,98,1
177,72,148,89,1
48,110,146,48,1
87,208,6,50,1
113,127,261,79,1
135,62,181,231,1
371,204,178,59,1
617,234,13,1023,1
77,214,64,1023,1
358,233,124,182,1
60,45,298,362,1
324,119,507,618,1
470,7,75,268,1
264,253,112,162,1
22,168,7,280,1
345,311,75,43,1
274,93,127,148,1
421,29,8,98,1
93,117,78,122,1
281,130,191,296,1
100,33,34,372,1
589,188,122,524,1
246,119,44,219,1
17,139,487,349,1
86,190,107,9,1
125,269,363,667,1
413,197,119,389,1
204,205,384,666,1
299,49,53,148,1
527,247,14,498,1
533,34,211,75,1
504,336,501,274,1
334,228,510,211,1
132,61,631,669,1
516,146,520,408,1
82,11,262,364,1
434,95,353,432,1
238,174,37,275,1
224,47,155,302,1
275,79,64,385,1
291,145,411,336,1
651,151,186,329,1
536,41,223,313,1
38,11,550,330,1
529,282,159,149,1
342,200,366,365,1
779,477,299,198,1
646,365,154,7,1
304,39,496,19,1
334,283,311,127,1
182,37,173,11,1
360,225,343,378,1
94,133,99,187,1
129,110,139,40,1
302,201,238,283,1
178,52,313,324,1
665,158,161,17,1
403,25,162,119,1
18,118,117,131,1
349,57,122,173,1
164,78,137,42,1
401,56,0,129,1
269,28,0,116,1
71,45,166,80,1
285,163,205,257,1
358,295,135,334,1
409,180,268,172,1
298,141,203,259,1
230,41,138,9,1
519,303,228,295,1
76,6,132,152,1
689,446,162,193,1
264,202,74,72,1
187,13,84,40,1
531,219,74,35,1
229,319,64,13,1
332,233,8,8,1
295,290,153,112,1
178,217,82,119,1
521,270,116,93,1
343,40,43,32,1
300,289,1,38,1
191,47,59,43,1
175,35,63,8,1
330,79,172,84,1
257,179,10,18,1
496,292,196,7,1
110,134,175,411,1
8,52,183,178,1
132,154,44,25,1
312,204,223,19,1
464,207,265,125,1
312,6,237,136,1
181,247,251,182,1
245,344,266,301,1
26,38,6,43,1
459,170,332,218,1
328,259,109,47,1
23,15,247,215,1
164,213,19,14,1
202,127,0,52,1
405,282,76,48,1
519,145,66,33,1
294,147,0,200,1
116,97,27,99,1
6,93,208,68,1
431,252,156,27,1
159,10,192,25,1
17,201,249,146,1
183,207,0,52,1
259,151,135,13,1
442,235,31,48,1
388,179,183,235,1
338,297,51,117,1
722,684,1,36,1
24,9,69,16,1
174,180,131,19,1
17,206,222,141,1
31,44,238,39,1
124,53,180,147,1
65,37,46,54,1
301,302,76,280,1
111,19,196,433,1
35,31,0,27,1
171,22,0,407,1
333,113,15,93,1
206,200,358,213,1
310,207,54,205,1
93,48,431,126,1
179,294,92,22,1
172,7,69,27,1
237,71,241,164,1
146,41,155,55,1
120,35,59,46,1
332,60,245,31,1
138,86,259,161,1
330,306,415,193,1
100,87,136,34,1
123,12,188,79,1
403,289,15,8,1
214,83,274,3,1
377,356,475,533,1
73,15,78,132,1
94,267,453,72,1
183,249,25,40,1
62,108,23,65,1
233,382,213,86,1
171,29,122,168,1
126,101,292,221,1
413,284,0,50,1
6,106,201,181,1
366,223,16,99,1
140,89,0,289,1
255,118,212,13,1
311,170,9,149,1
306,172,2,14,1
243,59,107,255,1
216,74,64,434,1
109,51,184,449,1
231,65,136,238,1
221,224,165,187,1
211,16,540,343,1
95,296,155,176,1
0,145,178,160,1
171,70,276,291,1
76,108,85,221,1
185,186,327,295,1
16,58,15,167,1
115,10,82,257,1
161,211,105,174,1
338,206,43,131,1
383,52,255,5,1
267,10,314,138,1
302,81,99,89,1
332,173,271,201,1
42,79,100,85,1
170,283,131,1,1
52,70,15,19,1
220,207,190,11,1
591,124,204,133,1
135,11,99,221,1
395,245,139,63,1
139,138,43,298,1
22,12,252,301,1
233,14,142,410,1
243,132,48,255,1
260,55,158,235,1
95,65,0,63,1
5,151,287,2,1
385,135,149,790,1
314,313,125,481,1
277,85,145,275,1
226,152,207,23,1
246,297,283,84,1
257,66,166,97,1
250,107,91,164,1
130,50,0,47,1
107,23,78,112,1
153,105,129,246,1
104,89,17,125,1
154,155,238,432,1
207,101,139,269,1
157,22,356,15,1
61,10,41,225,1
268,49,28,411,1
182,35,94,169,1
214,69,129,379,1
128,61,53,25,1
144,278,228,67,1
221,49,23,66,1
167,49,115,65,1
345,194,45,43,1
259,100,2,189,1
72,127,4,195,1
297,56,7,588,1
248,162,180,63,1
232,144,48,41,1
192,143,0,65,1
17,42,31,199,1
306,160,237,300,1
4,5,46,35,1
179,99,331,48,1
51,7,103,49,1
0,102,81,22,1
11,147,233,201,1
76,19,112,33,1
244,14,259,129,1
110,139,85,94,1
132,110,80,76,1
307,232,197,26,1
75,20,68,168,1
244,13,116,188,1
252,20,71,67,1
95,97,244,379,1
275,12,155,206,1
379,258,112,67,1
198,29,318,144,1
76,6,50,70,1
8,7,94,42,1
248,118,12,99,1
127,46,51,62,1
244,133,42,115,1
140,48,81,32,1
26,7,65,158,1
240,99,202,39,1
171,61,99,81,1
186,72,178,57,1
48,31,222,202,1
76,88,43,89,1
261,87,66,86,1
112,65,153,340,1
202,164,4,173,1
180,66,47,37,1
12,76,0,84,1
313,113,238,344,1
212,150,26,76,1
294,118,219,192,1
154,125,223,109,1
32,99,104,88,1
235,67,0,143,1
37,49,23,268,1
67,51,290,278,1
119,13,172,468,1
19,129,142,118,1
281,130,432,328,1
42,64,0,169,1
213,39,126,142,1
162,11,23,183,1
63,7,0,99,1
289,71,70,66,1
108,114,84,24,1
139,87,309,227,1
190,133,316,123,1
48,77,35,7,1
174,41,0,151,1
223,47,203,143,1
341,149,75,296,1
151,74,70,150,1
76,48,89,52,1
354,233,194,138,1
234,166,345,68,1
200,13,369,328,1
103,6,219,3,1
118,59,215,224,1
297,59,58,67,1
112,27,26,43,1
296,76,19,2,1
135,29,0,54,1
105,41,236,114,1
348,137,357,58,1
118,59,127,122,1
217,39,128,148,1
170,19,84,91,1
26,13,65,17,1
277,87,38,158,1
181,8,176,187,1
283,43,18,188,1
148,18,47,309,1
77,109,0,184,1
258,95,75,58,1
151,23,106,47,1
229,79,308,63,1
148,40,67,64,1
7,5,401,117,1
256,46,0,149,1
183,22,90,25,1
292,78,363,166,1
127,103,67,80,1
150,108,238,78,1
490,135,116,60,1
186,157,84,215,1
210,38,142,65,1
261,84,13,17,1
12,64,727,80,1
300,99,60,66,1
220,65,91,82,1
271,40,430,205,1
158,15,18,40,1
74,71,158,95,1
352,73,86,80,1
140,9,83,95,1
173,17,234,160,1
64,18,0,142,1
63,33,96,2,1
298,14,171,134,1
236,56,0,59,1
248,15,158,260,1
125,22,837,183,1
37,54,35,58,1
274,65,17,15,1
167,26,3,53,1
354,53,172,180,1
187,95,75,28,1
41,105,107,101,1
290,53,23,197,1
192,61,25,44,1
261,30,78,154,1
218,23,138,114,1
5,18,96,149,1
239,28,117,36,1
192,9,137,85,1
379,61,7,157,1
166,107,131,30,1
89,83,42,42,1
279,29,42,43,1
85,73,267,50,1
198,48,198,76,1
217,43,28,63,1
11,117,49,22,1
473,219,156,88,1
298,219,155,3,1
262,18,118,159,1
44,26,159,276,1
89,55,100,93,1
312,20,374,390,1
158,69,236,4,1
255,9,304,129,1
164,102,233,2,1
7,135,137,243,1
236,145,39,110,1
113,12,92,87,1
212,81,34,53,1
163,46,94,108,1
47,53,10,63,1
295,7,62,53,1
147,114,218,158,1
238,31,174,115,2
236,9,179,162,2
7,79,242,192,2
242,7,9,7,2
218,39,149,188,2
222,6,164,83,2
77,73,3,100,2
19,7,14,20,2
334,21,121,15,2
130,61,19,234,2
109,66,347,642,2
184,67,186,328,2
31,18,267,213,2
272,81,299,550,2
154,57,173,2,2
243,79,508,185,2
137,113,32,61,2
58,64,183,124,2
284,71,19,53,2
157,130,4,46,2
109,19,0,179,2
182,68,55,282,2
60,5,0,226,2
199,83,269,249,2
175,84,81,70,2
227,7,371,84,2
0,75,169,23,2
78,111,34,179,2
74,94,323,172,2
141,48,151,413,2
109,117,316,10,2
108,144,157,144,2
53,11,136,109,2
249,133,298,158,2
136,31,173,58,2
147,125,234,495,2
147,15,191,249,2
121,187,202,322,2
287,105,158,117,2
191,221,18,74,2
38,148,10,315,2
184,107,61,63,2
91,132,4,160,2
385,158,56,229,2
164,343,97,93,2
135,11,22,69,2
102,193,171,185,2
66,84,107,59,2
318,176,24,61,2
170,22,72,243,2
388,259,127,73,2
187,78,108,194,2
2,389,131,35,2
286,307,54,352,2
259,194,4,7,2
81,8,288,229,2
204,183,90,484,2
121,187,238,18,2
178,180,80,88,2
90,8,0,145,2
370,20,3,20,2
255,130,54,168,2
73,190,28,139,2
415,74,280,261,2
42,159,28,65,2
376,280,28,132,2
43,129,183,69,2
275,140,221,249,2
165,130,361,378,2
45,96,338,244,2
208,9,56,229,2
74,96,466,292,2
19,140,52,11,2
366,189,374,21,2
139,81,195,30,2
39,111,97,26,2
93,65,226,13,2
52,242,171,168,2
291,36,377,64,2
23,68,244,382,2
334,225,418,151,2
168,63,8,109,2
23,129,557,97,2
311,149,29,76,2
79,50,203,70,2
228,163,2,374,2
270,6,427,502,2
38,278,73,223,2
268,217,268,91,2
241,28,141,143,2
13,330,337,286,2
43,154,145,36,2
76,224,32,344,2
315,66,43,63,2
128,120,540,683,2
74,116,282,533,2
162,124,235,329,2
65,56,0,207,2
198,91,274,394,2
197,31,498,31,2
267,191,449,178,2
3,190,458,320,2
416,29,84,69,2
190,15,20,370,2
61,73,330,1023,2
194,11,123,273,2
223,19,42,140,2
198,137,184,364,2
67,159,243,467,2
107,44,57,310,2
4,138,417,211,2
73,40,379,120,2
127,561,362,108,2
483,7,605,350,2
146,226,130,215,2
520,270,516,25,2
56,111,323,28,2
289,155,44,161,2
335,34,86,142,2
39,203,84,658,2
196,122,271,117,2
198,17,289,18,2
131,98,127,246,2
284,75,58,280,2
120,36,162,243,2
200,47,117,219,2
654,248,18,338,2
18,145,135,152,2
524,64,226,201,2
98,243,193,99,2
270,91,285,272,2
28,178,169,632,2
287,341,466,301,2
621,173,206,322,2
126,282,34,280,2
433,348,66,16,2
164,7,175,6,2
121,36,485,105,2
404,120,298,127,2
169,12,538,375,2
385,274,187,120,2
48,255,332,46,2
261,369,107,17,2
456,527,19,111,2
373,458,180,173,2
251,57,356,299,2
10,7,0,22,2
24,127,262,124,2
474,251,395,96,2
377,157,330,31,2
531,50,473,192,2
273,13,534,71,2
36,48,146,100,2
573,346,775,284,2
158,23,53,265,2
433,10,585,390,2
391,491,627,267,2
44,167,1023,465,2
317,414,60,8,2
43,148,390,238,2
398,82,346,5,2
91,161,374,426,2
14,123,27,11,2
491,43,13,192,2
242,156,562,50,2
231,131,0,490,2
718,161,373,925,2
169,81,211,391,2
335,19,388,320,2
320,204,654,389,2
392,49,556,868,2
220,14,448,734,2
88,109,533,427,2
539,313,372,602,2
130,8,0,73,2
401,282,74,56,2
17,368,293,382,2
95,124,0,181,2
573,468,143,32,2
292,104,335,217,2
219,36,169,105,2
273,262,314,326,2
221,180,324,15,2
467,232,164,263,2
167,54,145,203,2
446,236,83,543,2
295,143,24,119,2
40,86,206,143,2
584,273,40,112,2
134,12,97,49,2
504,135,0,68,2
309,265,1,498,2
178,19,488,358,2
385,164,31,485,2
191,49,200,328,2
323,7,253,274,2
203,63,607,440,2
19,21,351,272,2
467,232,120,513,2
101,170,106,94,2
367,17,686,340,2
184,170,110,75,2
3,103,165,133,2
611,333,324,371,2
200,84,83,66,2
394,282,23,194,2
338,177,0,65,2
253,144,187,29,2
351,98,221,227,2
252,209,293,71,2
274,73,392,178,2
160,129,238,51,2
50,5,85,140,2
475,270,238,13,2
230,107,60,56,2
271,165,163,9,2
387,218,24,304,2
4,99,101,31,2
579,490,292,120,2
313,161,0,7,2
299,108,587,550,2
88,20,66,306,2
186,32,63,8,2
381,190,439,185,2
244,84,163,152,2
177,270,319,81,2
203,219,119,3,2
131,45,47,60,2
425,225,41,207,2
361,211,3,9,2
261,36,4,330,2
69,82,20,47,2
111,56,0,94,2
397,110,259,303,2
205,14,132,117,2
137,398,281,101,2
1,184,279,170,2
118,117,83,53,2
342,51,4,58,2
255,18,52,93,2
280,251,250,27,2
194,321,238,265,2
93,316,11,81,2
522,409,137,92,2
99,268,180,22,2
321,201,114,117,2
247,47,286,463,2
138,129,83,97,2
784,612,169,168,2
306,168,56,88,2
272,62,208,9,2
186,132,167,132,2
249,259,0,74,2
298,218,409,353,2
331,153,0,138,2
175,141,527,661,2
25,411,95,281,2
14,54,457,478,2
238,171,69,27,2
287,119,111,216,2
274,294,193,519,2
283,233,26,102,2
179,241,0,142,2
565,213,95,55,2
236,157,26,118,2
358,274,283,246,2
138,11,57,390,2
258,74,178,448,2
573,394,80,161,2
372,261,0,82,2
342,84,175,109,2
234,56,100,193,2
173,69,129,116,2
267,180,375,169,2
189,87,11,57,2
269,224,380,163,2
316,411,55,27,2
16,256,198,112,2
409,149,16,63,2
207,20,47,61,2
370,205,27,4,2
290,48,112,82,2
142,172,50,102,2
421,290,92,279,2
228,61,15,28,2
332,119,234,36,2
11,32,65,177,2
9,102,47,123,2
421,243,77,13,2
136,136,53,63,2
257,73,264,79,2
65,297,321,221,2
79,161,96,101,2
385,103,466,446,2
0,84,49,331,2
512,51,693,417,2
274,112,0,78,2
87,260,306,284,2
149,174,0,56,2
79,75,10,196,2
356,199,295,219,2
190,53,207,171,2
2,65,443,100,2
395,27,192,363,2
8,5,36,346,2
284,9,190,820,2
84,299,33,743,2
4,18,107,30,2
392,5,106,14,2
39,146,40,13,2
412,316,358,218,2
38,73,138,49,2
133,178,237,285,2
193,133,163,151,2
258,98,0,96,2
254,162,282,34,2
146,95,217,267,2
93,42,65,49,2
180,165,33,27,2
74,204,0,122,2
275,61,124,136,2
72,31,328,123,2
7,11,421,715,2
348,264,51,229,2
150,9,44,266,2
142,16,449,338,2
55,108,268,7,2
10,23,228,39,2
321,51,183,1,2
54,81,191,22,2
109,72,4,9,2
133,11,75,239,2
103,20,169,428,2
365,195,47,83,2
155,47,0,778,2
300,81,375,1023,2
82,15,306,258,2
40,171,321,934,2
316,352,5,39,2
63,51,170,40,2
239,174,228,167,2
230,157,125,56,2
103,120,66,253,2
151,10,169,300,2
117,47,140,162,2
197,11,314,395,2
186,171,104,372,2
148,126,244,192,2
216,167,277,388,2
39,115,369,45,2
327,207,245,35,2
60,42,170,90,2
102,6,341,382,2
412,255,134,253,2
237,317,351,590,2
110,111,150,88,2
82,15,194,249,2
10,43,74,227,2
447,129,94,52,2
61,92,90,5,2
266,162,58,22,2
74,10,32,83,2
117,125,49,285,2
379,120,91,149,2
120,7,55,314,2
163,174,199,1023,2
212,106,3,507,2
57,27,9,182,2
182,17,14,200,2
215,18,153,750,2
107,126,246,311,2
71,57,63,307,2
110,103,120,102,2
371,172,32,51,2
53,33,27,26,2
233,37,384,88,2
177,25,33,933,2
6,80,134,404,2
315,177,85,449,2
248,84,69,92,2
168,6,48,83,2
142,216,32,87,2
105,7,234,27,2
180,160,358,180,2
189,193,96,366,2
152,65,240,418,2
122,162,166,294,2
41,13,7,195,2
223,63,264,241,2
85,7,0,193,2
101,45,385,410,2
252,157,110,220,2
119,174,315,510,2
339,128,137,100,2
77,100,132,311,2
207,19,213,58,2
118,13,126,15,2
17,94,28,68,2
331,31,86,25,2
193,53,93,273,2
292,11,55,146,2
104,45,156,201,2
56,65,186,211,2
198,101,471,12,2
108,13,37,131,2
153,9,415,193,2
191,63,76,23,2
20,13,154,46,2
407,226,131,63,2
128,13,115,52,2
259,164,0,291,2
78,56,97,495,2
122,119,176,337,2
232,56,75,730,2
69,62,186,293,2
150,6,337,361,2
147,44,99,168,2
58,38,74,3,2
244,12,5,177,2
132,7,254,97,2
276,159,159,279,2
69,29,37,126,2
42,23,188,124,2
244,15,244,267,2
165,27,2,10,2
149,86,157,106,2
117,5,27,192,2
30,23,88,32,2
240,23,88,145,2
253,118,134,430,2
188,42,40,145,2
56,17,49,146,2
133,116,29,5,2
327,62,0,138,2
85,61,29,28,2
178,35,492,235,2
139,13,37,47,2
9,10,0,25,2
260,87,259,143,2
185,30,49,29,2
285,43,22,205,2
127,39,8,4,2
46,63,132,64,2
490,194,59,81,2
123,56,246,73,2
193,31,377,217,2
216,51,228,25,2
75,45,417,182,2
286,22,68,183,2
288,49,263,44,2
209,10,127,123,2
217,117,23,3,2
191,170,57,114,2
411,62,278,307,2
55,69,170,46,2
53,145,17,205,2
154,222,264,2,2
51,40,119,12,2
238,39,450,280,2
268,46,126,103,2
257,7,38,31,2
144,24,233,3,2
72,31,0,52,2
353,45,59,107,2
87,18,127,9,2
219,27,274,199,2
249,87,72,43,2
18,37,368,73,2
243,7,172,318,2
143,37,445,53,2
203,12,38,241,2
200,45,189,9,2
11,27,284,189,2
413,59,0,64,2
211,78,234,24,2
156,67,197,190,2
139,13,17,131,2
43,10,62,85,2
351,30,195,401,2
135,11,20,137,2
178,61,340,296,2
308,73,159,56,2
104,162,468,67,2
358,110,382,67,2
264,105,222,71,2
304,36,329,242,2
87,27,51,29,2
61,11,155,103,2
334,29,141,140,2
155,134,218,195,2
143,38,67,145,2
309,195,345,107,2
39,54,22,32,2
332,169,205,59,2
255,157,130,29,2
209,63,101,126,2
136,59,0,40,2
131,95,65,102,2
366,19,323,315,2
113,80,223,52,2
157,35,131,156,2
68,89,201,5,2
14,89,134,83,2
287,17,3,6,2
150,73,209,74,2
236,59,54,4,2
121,112,47,38,2
123,162,148,133,2
253,33,168,133,2
54,44,91,42,2
151,6,220,35,2
133,50,57,3,2
93,37,167,57,2
397,123,56,85,2
212,108,35,37,2
174,91,50,283,2
96,22,101,113,2
14,47,0,26,2
380,112,95,85,2
127,19,24,56,2
130,12,204,240,2
56,81,44,92,2
40,5,314,381,2
231,29,118,160,2
53,14,107,264,2
239,114,52,55,2
109,262,12,119,2
3,121,68,185,2
412,40,20,47,2
90,6,83,316,2
103,88,75,337,2
109,19,175,117,2
35,69,296,308,2
254,89,174,116,2
84,66,166,63,2
174,50,80,135,2
138,143,59,430,2
25,83,139,108,2
361,69,31,442,2
221,202,294,65,2
206,29,89,77,2
155,74,448,566,2
108,168,20,398,2
214,27,32,450,2
152,11,42,188,2
195,68,141,58,2
137,94,189,232,2
1,152,0,193,2
213,11,61,230,2
183,131,147,295,2
8,241,127,453,2
175,15,125,514,2
46,163,221,199,2
283,67,147,396,2
185,10,43,15,2
110,132,183,99,2
222,81,107,70,2
12,82,46,123,2
344,59,369,241,2
92,55,19,5,2
89,19,474,513,2
108,156,30,291,2
71,138,524,9,2
240,71,79,189,2
170,11,316,95,2
92,81,107,507,2
118,237,184,77,2
260,281,64,264,2
195,40,172,345,2
69,62,287,428,2
244,230,183,174,2
182,17,182,94,2
29,154,116,99,2
215,114,215,55,2
52,33,394,10,2
76,59,299,31,2
56,10,195,61,2
82,16,380,199,2
172,133,89,391,2
104,52,117,252,2
222,72,55,219,2
246,108,371,370,2
42,93,160,269,2
376,128,485,367,2
191,7,157,318,2
41,29,104,67,2
8,323,52,430,2
40,47,182,16,2
117,172,212,699,2
381,209,34,154,2
79,131,205,382,2
116,80,254,70,2
77,20,266,170,2
270,27,128,513,2
111,115,234,488,2
418,7,470,609,2
172,118,73,32,2
155,147,549,817,2
323,112,74,106,2
19,24,373,303,2
299,76,0,546,2
25,200,243,294,2
48,198,13,376,2
132,10,183,792,2
17,81,137,284,2
210,12,180,540,2
677,144,575,848,2
206,12,506,402,2
413,225,215,436,2
67,135,504,846,2
149,18,0,41,2
141,67,159,370,2
96,204,51,7,2
476,412,249,123,2
297,105,228,39,2
78,168,72,73,2
315,191,17,162,2
217,165,13,306,2
418,204,172,30,2
159,95,17,153,2
293,39,694,572,2
83,135,281,187,2
25,172,240,98,2
325,212,434,206,2
10,214,151,85,2
343,81,597,192,2
139,26,247,27,2
135,407,192,126,2
349,80,703,711,2
285,363,254,395,2
519,66,383,513,2
23,92,153,241,2
68,76,423,257,2
361,148,565,296,2
170,9,7,54,2
141,67,305,19,2
264,33,26,143,2
35,200,4,251,2
346,70,262,18,2
152,108,307,5,2
113,24,86,193,2
45,21,233,284,2
40,113,170,7,2
533,85,64,225,2
134,124,67,111,2
123,6,114,414,2
376,89,30,427,2
458,157,195,10,2
249,39,231,9,2
305,276,41,134,2
141,85,385,251,2
89,309,53,591,2
249,390,277,101,2
406,333,358,295,2
156,318,559,699,2
342,79,628,224,2
18,30,197,164,2
38,77,631,570,2
360,100,127,621,2
273,85,573,439,2
164,110,478,589,2
93,160,28,65,2
20,11,283,112,2
561,301,200,160,2
103,238,72,2,2
355,59,107,187,2
205,36,13,429,2
132,108,240,242,2
620,188,208,222,2
404,402,217,166,2
450,55,127,432,2
433,63,214,572,2
1,44,0,49,2
289,177,312,414,2
267,20,203,52,2
409,100,301,67,2
378,219,32,324,2
285,156,545,313,2
714,293,499,777,2
151,65,267,85,2
555,337,671,668,2
328,175,185,42,2
72,8,39,21,2
575,182,330,155,2
288,297,104,360,2
291,142,419,298,2
108,158,77,160,2
96,8,14,4,2
430,155,299,125,2
74,9,458,200,2
155,23,334,216,2
237,7,7,265,2
181,89,204,7,2
651,283,437,253,2
38,35,202,88,2
463,124,217,165,2
56,6,220,16,2
176,14,0,77,2
457,163,488,75,2
430,411,33,63,2
350,133,690,603,2
166,57,309,167,2
67,59,93,9,2
596,272,510,803,2
363,222,0,10,2
268,74,298,110,2
243,114,269,202,2
117,7,216,75,2
628,300,273,185,2
244,124,20,233,2
132,230,441,518,2
166,121,194,7,2
218,127,0,127,2
623,381,82,97,2
577,396,43,58,2
222,171,176,48,2
150,154,0,188,2
151,156,458,159,2
488,355,0,249,2
315,17,299,108,2
287,265,201,156,2
180,8,270,171,2
161,64,159,12,2
456,178,71,45,2
129,13,203,99,2
133,145,360,113,2
67,80,19,149,2
5,13,261,153,2
481,381,129,57,2
228,12,132,48,2
154,321,208,183,2
42,9,181,121,2
304,173,55,99,2
220,34,314,417,2
153,87,129,132,2
280,185,0,39,2
284,44,23,41,2
165,10,83,58,2
249,43,87,150,2
493,294,12,20,2
28,16,278,212,2
145,153,275,541,2
15,33,16,318,2
518,371,53,193,2
118,171,157,214,2
102,209,240,235,2
88,50,152,124,2
180,97,319,195,2
462,349,176,12,2
339,9,146,60,2
45,268,81,21,2
159,42,80,293,2
127,19,5,114,2
659,357,376,296,2
646,146,152,185,2
110,119,323,484,2
83,59,46,195,2
134,69,262,335,2
336,66,125,189,2
200,13,0,72,2
497,240,102,78,2
399,163,227,458,2
64,23,57,36,2
788,356,188,283,2
512,422,119,108,2
339,117,341,102,2
15,28,231,84,2
257,130,204,92,2
300,25,241,100,2
41,26,116,102,2
248,420,199,187,2
501,493,0,18,2
37,41,174,57,2
580,131,56,116,2
221,35,153,55,2
328,61,95,142,2
222,156,1,76,2
209,162,5,167,2
661,412,183,10,2
382,164,106,8,2
93,80,492,327,2
155,103,99,25,2
31,173,307,520,2
486,360,162,161,2
102,30,23,73,2
342,395,249,363,2
161,76,47,407,2
73,99,7,106,2
224,34,216,145,2
194,157,152,188,2
273,356,553,92,2
16,22,43,292,2
51,61,235,201,2
712,296,365,217,2
428,232,91,398,2
159,59,338,313,2
28,231,104,148,2
21,9,61,17,2
417,197,103,47,2
618,459,139,153,2
253,14,209,72,2
172,64,140,238,2
91,87,231,41,2
426,251,272,125,2
182,126,75,262,2
271,224,5,224,2
209,148,36,3,2
52,14,118,81,2
434,37,76,251,2
251,85,8,137,2
156,63,146,166,2
283,145,55,135,2
82,106,114,20,2
386,164,204,55,2
30,10,29,173,2
262,187,426,82,2
178,21,166,207,2
13,8,0,4,2
481,161,174,143,2
255,214,20,31,2
350,134,399,70,2
233,87,60,36,2
537,151,15,22,2
17,194,136,33,2
197,58,21,121,2
206,94,259,33,2
175,257,120,128,2
133,195,258,40,2
443,240,76,60,2
284,62,185,50,2
26,10,212,277,2
2,234,46,14,2
2,149,171,329,2
531,125,127,158,2
147,105,34,337,2
266,9,199,110,2
129,137,41,140,2
31,121,48,100,2
463,86,321,19,2
336,100,54,16,2
343,121,135,10,2
472,284,306,102,2
25,13,348,6,2
434,250,0,70,2
188,245,0,396,2
158,53,186,35,2
157,122,308,299,2
52,169,40,48,2
176,98,144,17,2
201,12,296,6,2
169,97,0,1,2
0,5,53,3,2
5,8,202,143,2
293,227,49,193,2
103,21,155,240,2
257,323,163,166,2
344,99,43,212,2
67,49,186,29,2
333,156,370,366,2
111,127,0,125,2
146,205,416,323,2
160,13,212,61,2
132,191,502,394,2
406,277,281,399,2
161,373,191,142,2
69,18,330,384,2
84,174,135,179,2
31,58,204,31,2
291,73,90,297,2
90,82,37,31,2
243,231,6,129,2
200,145,8,10,2
4,29,228,283,2
341,216,53,103,2
137,67,26,54,2
203,17,348,117,2
336,16,43,176,2
2,13,40,28,2
383,171,65,196,2
32,70,0,356,2
147,61,116,9,2
24,177,112,294,2
86,6,121,215,2
228,212,8,77,2
158,83,56,204,2
81,72,318,76,2
24,13,287,90,2
43,71,69,572,2
258,113,228,15,2
324,284,45,174,2
186,31,244,155,2
182,108,0,80,2
53,40,82,237,2
269,65,32,257,2
79,63,90,66,2
87,13,167,108,2
98,30,137,29,2
174,27,84,30,2
274,191,331,241,2
214,40,42,117,2
161,39,240,584,2
129,40,159,72,2
84,32,241,224,2
115,8,540,333,2
94,68,91,144,2
122,21,531,399,2
250,183,593,295,2
14,15,45,55,2
298,187,216,321,2
118,53,203,166,2
97,117,85,55,2
42,24,75,121,2
80,34,92,86,2
147,15,194,133,2
35,27,176,169,2
89,31,261,215,2
145,102,16,81,2
0,44,183,236,2
254,115,221,102,2
147,142,110,218,2
115,116,323,113,2
225,194,110,232,2
95,64,149,202,2
404,431,99,57,2
306,338,310,3,2
164,33,17,3,2
167,60,31,201,2
31,50,89,90,2
467,238,165,173,2
213,73,256,436,2
188,118,272,376,2
58,10,81,167,2
99,72,137,197,2
234,71,151,107,2
130,29,150,3,2
29,63,88,54,2
245,193,186,173,2
260,226,228,163,2
373,39,187,129,2
313,81,11,97,2
190,38,136,189,2
105,36,20,155,2
76,98,260,62,2
279,27,214,187,2
147,69,206,108,2
69,39,29,12,2
103,87,244,220,2
3,15,137,73,2
330,194,112,117,2
214,66,41,327,2
188,75,260,105,2
77,58,0,102,2
104,49,24,438,2
292,6,278,30,2
91,5,390,167,2
69,92,0,203,2
70,90,41,242,2
20,100,61,25,2
211,65,143,81,2
262,181,108,130,2
225,99,39,15,2
148,81,128,7,2
164,101,105,20,2
399,106,109,46,2
254,78,570,71,2
3,71,270,135,2
151,8,339,175,2
29,102,61,164,2
510,229,144,178,2
150,89,152,104,2
127,80,323,248,2
20,58,69,146,2
202,50,8,146,2
472,149,411,215,2
47,61,19,70,2
90,29,231,32,2
208,78,405,61,2
48,100,30,140,2
277,10,50,117,2
172,158,443,68,2
275,71,54,129,2
22,36,126,94,2
115,11,54,55,2
376,63,39,54,2
14,21,38,62,2
11,101,477,346,2
285,29,191,50,2
59,114,206,253,2
113,15,583,195,2
247,31,528,189,2
288,9,469,282,2
125,27,1,293,2
101,7,14,101,2
463,209,213,155,2
54,138,44,130,2
264,222,287,135,2
228,67,87,28,2
89,76,31,40,2
415,220,54,42,2
146,56,66,22,2
167,14,305,354,2
82,81,274,676,2
35,25,4,149,2
334,78,122,207,2
75,7,31,113,2
267,24,593,159,2
59,7,204,167,2
92,34,413,285,2
281,107,23,78,2
90,19,225,411,2
92,72,76,137,2
140,138,157,5,2
97,169,175,264,2
107,33,463,346,2
132,13,225,95,2
184,110,286,268,2
67,9,33,161,2
127,126,106,37,2
383,15,205,126,2
152,143,454,306,2
173,160,680,405,2
311,220,14,23,2
59,87,159,53,2
338,259,0,245,2
263,87,69,612,2
180,8,108,40,2
195,151,0,273,2
131,86,22,105,2
680,339,51,192,2
115,163,111,398,2
43,83,117,643,2
161,29,152,36,2
124,173,141,334,2
205,18,171,315,2
249,97,23,120,2
155,99,434,270,2
153,45,91,68,2
10,6,223,191,2
473,234,108,30,2
184,326,248,196,2
181,93,323,183,2
154,138,3,27,2
102,94,31,102,2
319,9,151,7,2
150,55,0,870,2
98,84,7,148,2
9,41,339,573,2
37,74,300,472,2
351,120,358,422,2
76,50,195,204,2
285,156,172,35,2
253,69,131,242,2
209,326,327,123,2
181,54,453,585,2
138,111,392,621,2
112,189,533,585,2
44,63,149,237,2
37,15,279,264,2
278,220,43,40,2
143,114,263,67,2
296,278,108,190,2
247,198,0,409,2
123,204,173,297,2
298,99,0,325,2
127,96,401,273,2
54,12,131,221,2
157,259,107,386,2
68,17,27,338,2
378,245,87,216,2
20,155,191,241,2
181,43,137,131,2
42,105,236,402,2
82,120,45,120,2
273,20,100,5,2
126,71,59,4,2
80,102,310,139,2
163,119,55,127,2
98,189,255,225,2
245,16,341,663,2
218,123,319,6,2
41,87,125,330,2
20,24,126,52,2
161,329,66,630,2
118,252,292,689,2
139,245,54,201,2
38,94,249,3,2
85,35,338,96,2
83,82,95,58,2
222,123,537,158,2
72,200,78,437,2
146,95,201,223,2
95,156,75,187,2
41,92,44,15,2
203,64,285,657,2
104,6,67,25,2
215,34,118,256,2
35,63,441,362,2
24,89,34,5,2
262,223,178,129,2
111,35,38,141,2
42,32,74,156,2
248,139,167,503,2
103,100,412,382,2
359,99,281,258,2
203,39,576,756,2
67,86,69,70,2
172,168,358,280,2
186,24,524,216,2
249,51,47,91,2
73,245,374,17,2
210,123,498,522,2
56,223,315,484,2
15,27,522,859,2
398,26,400,786,2
82,88,467,463,2
213,127,629,211,2
0,38,135,280,2
81,183,529,188,2
215,48,24,189,2
241,50,142,210,2
244,171,116,289,2
213,52,30,80,2
112,168,475,1023,2
185,220,44,577,2
106,16,320,402,2
188,130,125,620,2
239,32,283,575,2
61,168,77,255,2
298,44,408,273,2
184,228,379,519,2
260,76,484,447,2
48,118,404,438,2
37,75,350,82,2
237,99,89,269,2
239,81,341,102,2
40,140,250,262,2
33,8,1,294,2
200,93,24,254,2
268,117,29,126,2
246,102,68,113,2
56,134,124,234,2
8,25,240,668,2
40,203,120,207,2
327,226,10,570,2
40,35,143,390,2
214,99,765,1023,2
183,67,471,226,2
1,13,652,697,2
151,58,609,521,2
26,13,463,453,2
98,155,451,412,2
21,77,132,109,2
293,12,618,297,2
178,169,284,469,2
118,23,17,360,2
59,97,215,376,2
182,42,370,1023,2
131,28,484,711,2
452,269,8,157,2
275,129,99,208,2
324,97,314,174,2
225,109,245,129,2
271,37,202,50,2
493,212,928,368,2
38,19,168,296,2
333,12,644,50,2
80,14,0,217,2
140,54,0,107,2
239,176,33,648,2
236,14,360,829,2
532,599,325,59,2
647,670,208,535,2
111,120,387,545,2
331,45,174,11,2
211,27,392,120,2
159,51,53,129,2
238,107,665,216,2
93,18,660,193,2
68,67,279,248,2
16,93,825,664,2
246,109,74,31,2
27,66,299,755,2
5,31,378,181,2
232,361,278,66,2
25,216,205,245,2
439,192,322,266,2
299,39,0,157,2
196,121,0,96,2
175,40,82,338,2
20,45,144,131,2
136,16,227,277,2
172,31,212,154,2
454,31,57,37,2
368,342,403,165,2
270,133,30,106,2
313,47,0,170,2
349,196,39,257,2
150,49,253,5,2
739,107,75,115,2
213,143,12,48,2
585,303,91,7,2
306,96,0,371,2
157,19,376,327,2
527,385,38,2,2
104,56,154,265,2
38,43,50,8,2
108,128,100,95,2
110,6,0,233,2
265,246,195,115,2
106,163,107,22,2
196,266,882,525,2
180,29,67,138,2
98,103,731,327,2
473,551,236,265,2
212,376,600,935,2
267,152,608,598,2
0,13,281,289,2
155,12,300,304,2
152,447,626,199,2
94,21,0,113,2
121,294,577,241,2
137,54,45,14,2
314,155,37,233,2
478,312,12,718,2
94,46,94,76,2
314,418,151,42,2
312,154,35,55,2
6,150,74,77,2
480,271,70,284,2
191,45,54,22,2
269,101,143,133,2
56,71,19,131,2
10,14,40,205,2
624,314,284,202,2
384,187,62,215,2
180,207,175,111,2
66,10,20,73,2
89,8,144,156,2
637,252,11,105,2
267,108,107,65,2
337,231,237,139,2
340,300,150,193,2
12,117,343,343,2
523,190,194,267,2
260,244,149,34,2
128,67,516,177,2
207,216,71,43,2
161,257,821,51,2
7,345,11,104,2
136,15,46,78,2
219,161,107,134,2
186,97,0,15,2
132,91,232,102,2
600,381,185,90,2
265,74,39,179,2
125,304,190,59,2
131,281,232,229,2
62,142,385,132,2
402,213,192,12,2
125,12,157,153,2
273,210,219,159,2
162,99,328,263,2
26,12,249,7,2
262,39,466,550,2
173,14,155,13,2
14,71,282,29,2
0,123,0,184,2
77,97,148,208,2
533,97,440,1,2
423,119,0,220,2
276,145,608,299,2
10,38,120,5,2
5,12,225,225,2
320,184,247,158,2
33,39,144,149,2
201,225,49,94,2
77,101,226,305,2
7,7,251,55,2
20,51,102,45,2
44,161,355,277,2
163,75,321,228,2
225,178,142,118,2
237,32,252,372,2
383,270,212,11,2
68,100,30,110,2
452,256,194,345,2
259,149,219,119,2
9,201,49,58,2
204,267,78,149,2
156,9,51,199,2
140,61,212,88,2
320,141,243,226,2
94,100,25,46,2
383,139,392,256,2
4,212,40,56,2
403,261,266,183,2
137,149,127,230,2
22,86,286,132,2
642,334,30,3,2
95,42,67,56,2
428,237,19,361,2
103,71,42,192,2
156,95,291,220,2
453,316,305,419,2
32,127,175,429,2
528,448,433,292,2
6,307,317,347,2
49,222,57,73,2
537,237,245,85,2
739,123,199,204,2
19,87,211,11,2
213,43,233,152,2
8,224,40,199,2
581,93,293,193,2
221,103,12,37,2
55,184,222,76,2
113,197,0,102,2
23,110,137,4,2
502,11,154,295,2
214,47,60,62,2
159,7,153,61,2
300,18,32,24,2
172,162,85,40,2
547,269,264,54,2
165,234,52,119,2
509,242,355,210,2
295,119,25,17,2
124,101,374,53,2
238,303,111,128,2
76,114,153,13,2
149,31,447,99,2
133,66,61,185,2
130,112,9,143,2
489,259,181,112,2
353,118,69,359,2
254,276,447,5,2
413,76,0,7,2
142,35,66,146,2
429,207,77,52,2
291,158,153,17,2
17,146,8,20,2
252,155,162,117,2
211,46,43,42,2
403,262,463,8,2
189,25,246,284,2
272,62,588,195,2
107,41,124,182,2
2,63,359,134,2
167,265,24,200,2
94,194,93,126,2
196,40,113,97,2
173,55,99,421,2
103,40,386,372,2
449,347,80,183,2
308,234,152,43,2
203,154,315,177,2
451,145,37,513,2
157,60,368,147,2
402,139,156,261,2
70,11,157,66,2
233,95,324,194,2
0,81,185,37,2
19,43,338,436,2
349,127,18,86,2
368,191,70,298,2
47,110,304,92,2
226,179,12,180,2
135,78,121,9,2
480,217,318,345,2
264,291,220,81,2
161,105,132,238,2
42,60,0,80,2
40,87,405,60,2
248,279,9,99,2
223,206,15,50,2
205,12,235,6,2
217,192,28,52,2
9,310,0,316,2
397,53,165,262,2
201,40,0,15,2
182,7,93,56,2
280,111,0,179,2
20,77,165,342,2
494,278,0,182,2
134,158,0,57,2
371,267,156,19,2
56,27,13,206,2
8,8,207,34,2
86,114,336,103,2
91,13,7,116,2
118,53,200,114,2
241,25,51,164,2
113,137,190,21,2
357,167,20,62,2
4,7,152,199,2
290,379,88,27,2
114,86,50,7,2
12,44,37,16,2
479,242,451,219,2
157,179,40,145,2
293,103,408,151,2
144,34,4,166,2
0,5,223,96,2
286,264,129,185,2
180,187,141,4,2
58,79,126,128,2
35,135,0,78,2
87,95,119,70,2
187,151,100,6,2
329,11,129,14,2
162,326,32,132,2
246,113,110,228,2
23,85,25,391,2
363,295,57,203,2
80,164,187,59,2
269,166,117,139,2
173,149,219,152,2
104,219,0,26,2
258,116,85,282,2
106,116,217,296,2
254,142,32,57,2
101,49,223,392,2
24,46,141,167,2
371,198,71,143,2
129,94,18,158,2
254,79,214,239,2
144,177,66,53,2
50,65,14,133,2
237,72,181,220,2
215,39,234,170,2
56,298,122,362,2
21,86,222,310,2
30,7,274,573,2
334,148,118,312,2
229,144,293,363,2
178,21,163,341,2
25,43,51,32,2
35,40,5,196,2
309,46,211,261,2
82,92,22,90,2
267,115,90,42,2
58,14,79,8,2
93,61,131,27,2
273,167,40,38,2
47,111,103,31,2
289,172,383,310,2
267,137,1,138,2
30,66,149,352,2
229,88,185,287,2
243,14,34,89,2
133,22,374,315,2
135,20,3,81,2
125,121,88,121,2
361,55,30,141,2
133,60,151,27,2
225,137,204,32,2
201,169,13,69,2
31,69,153,14,2
349,293,215,175,2
102,36,261,22,2
193,51,727,432,2
124,80,82,185,2
188,204,263,144,2
238,121,42,189,2
150,41,191,111,2
107,7,86,157,2
192,99,13,7,2
76,28,44,78,2
322,164,117,163,2
89,39,46,125,2
174,11,0,20,2
100,45,16,15,2
59,49,135,74,2
329,253,0,45,2
314,355,180,164,2
106,74,284,132,2
222,80,126,131,2
17,57,74,57,2
335,69,1,114,2
219,71,71,10,2
174,39,3,3,2
120,11,146,27,2
111,119,125,59,2
416,212,179,138,2
166,137,134,9,2
188,22,348,528,2
231,187,157,232,2
67,182,147,235,2
352,114,198,95,2
126,58,20,53,2
177,14,255,53,2
182,121,213,119,2
6,97,189,1,2
416,137,72,71,2
206,110,74,77,2
239,47,64,300,2
202,24,198,136,2
1,23,69,235,2
223,8,95,7,2
221,163,112,34,2
206,176,160,101,2
218,155,345,109,2
105,87,461,182,2
338,143,532,178,2
229,8,115,18,2
186,8,191,156,2
235,107,149,9,2
7,35,5,12,2
187,122,27,61,2
224,24,65,84,2
251,54,357,252,2
121,27,77,11,2
68,6,255,53,2
312,145,279,56,2
127,118,225,13,2
196,93,473,111,2
209,28,28,80,2
10,38,333,1,2
229,6,198,199,2
228,36,219,382,2
330,111,148,222,2
138,150,218,245,2
179,111,142,254,2
395,79,48,75,2
121,152,66,8,2
48,25,422,51,2
274,301,19,50,2
19,185,76,170,2
321,97,14,5,2
159,8,199,88,2
252,90,0,21,2
121,27,25,133,2
50,95,189,135,2
273,72,44,44,2
239,50,313,38,2
137,175,173,153,2
319,133,134,159,2
68,280,466,365,2
218,166,159,93,2
54,11,248,20,2
96,6,282,65,2
90,32,204,28,2
166,229,475,82,2
211,29,73,147,2
354,63,65,197,2
158,96,146,134,2
113,85,165,23,2
94,110,200,160,2
330,136,506,264,2
47,71,192,235,2
200,50,469,201,2
228,97,323,186,2
6,34,150,75,2
304,51,73,163,2
156,44,2,120,2
256,30,347,320,2
111,11,100,93,2
65,24,185,14,2
325,16,250,191,2
200,37,0,12,2
19,288,152,167,2
142,30,279,6,2
95,183,171,342,2
154,63,219,198,2
167,117,82,273,2
254,46,367,301,2
121,61,154,25,2
31,5,141,77,2
329,77,238,273,2
148,73,17,2,2
171,42,27,12,2
186,6,2,11,2
141,94,98,18,2
330,99,5,14,2
244,253,157,76,2
399,91,26,53,2
94,90,7,17,2
21,19,119,68,2
253,7,1,252,2
199,170,287,147,2
11,154,126,183,2
231,118,227,303,2
225,203,168,24,2
219,75,0,77,2
311,32,173,109,2
30,99,290,130,2
86,120,41,123,2
62,16,115,188,2
381,45,105,101,2
235,97,80,3,2
131,91,99,12,2
5,171,68,247,2
134,310,31,259,2
125,175,565,343,2
131,123,114,369,2
187,26,447,600,2
139,60,159,143,2
14,83,305,387,2
132,29,115,29,2
68,10,183,131,2
74,163,254,66,2
240,34,97,38,2
221,33,217,3,2
161,77,19,87,2
235,77,142,19,2
79,89,300,51,2
45,183,135,141,2
66,143,439,375,2
154,29,37,494,2
485,429,287,288,2
61,456,58,515,2
243,55,49,149,2
121,295,24,15,2
282,137,169,238,2
250,120,0,127,2
79,30,370,680,2
158,135,7,41,2
58,22,363,368,2
123,250,58,380,2
137,10,256,147,2
166,7,427,11,2
176,64,127,285,2
126,85,306,402,2
344,159,89,213,2
173,55,91,30,2
418,289,95,216,2
168,122,145,476,2
11,155,129,209,2
348,249,20,386,2
36,6,172,69,2
31,19,31,178,2
98,110,292,76,2
452,281,225,71,2
144,13,227,351,2
300,211,27,164,2
386,6,398,29,2
350,193,36,1023,2
18,25,282,184,2
253,196,37,633,2
102,149,278,406,2
169,97,304,427,2
102,81,58,152,2
187,198,265,237,2
161,13,270,131,2
90,13,0,121,2
348,169,214,15,2
230,83,23,75,2
37,37,191,82,2
428,215,128,234,2
161,21,248,55,2
262,130,249,146,2
189,9,180,362,2
116,19,159,4,2
21,131,178,254,2
203,112,8,166,2
134,190,552,525,2
322,109,2,240,2
99,129,293,138,2
115,246,72,484,2
107,108,78,180,2
253,34,37,260,2
417,12,0,749,2
176,322,239,8,2
187,39,482,696,2
44,491,35,53,2
326,22,518,616,2
235,144,5,15,2
4,6,489,193,2
256,209,407,194,2
158,13,161,324,2
572,235,233,22,2
240,115,106,162,2
62,301,89,374,2
167,276,198,370,2
109,254,190,155,2
311,47,524,357,2
124,118,227,23,2
10,19,136,76,2
300,151,12,142,2
208,133,233,153,2
443,171,210,230,2
158,293,9,155,2
217,24,330,313,2
528,424,186,51,2
148,76,291,97,2
2,175,289,101,2
105,140,250,68,2
179,207,68,102,2
554,47,453,301,2
165,6,1,99,2
318,12,346,236,2
44,29,37,1,2
342,209,430,76,2
130,91,38,8,2
206,218,243,105,2
231,14,301,240,2
243,8,9,92,2
56,44,124,640,2
218,59,215,93,2
125,255,137,984,2
1023,291,395,472,2
381,143,78,351,2
286,66,320,247,2
287,53,103,93,2
248,88,412,371,2
294,223,138,77,2
298,130,538,89,2
48,212,60,279,2
435,218,591,751,2
183,264,505,712,2
481,53,5,98,2
123,84,63,253,2
39,127,377,873,2
432,245,317,719,2
141,315,314,119,2
432,116,437,231,2
216,142,252,87,2
312,6,498,602,2
173,235,371,139,2
61,419,94,171,2
460,132,645,75,2
0,54,229,137,2
13,109,202,222,2
335,203,236,186,2
697,273,82,67,2
94,186,146,217,2
387,208,319,395,2
321,136,333,33,2
208,158,434,389,2
32,164,137,660,2
418,237,701,529,2
6,105,51,371,2
0,19,351,797,2
431,129,361,236,2
531,68,23,144,2
367,160,240,69,2
394,182,63,3,2
176,44,361,579,2
88,207,95,119,2
247,82,353,125,2
427,509,513,203,2
152,299,55,60,2
206,25,321,206,2
635,421,433,472,2
3,126,398,183,2
386,223,303,319,2
98,154,44,112,2
41,34,473,228,2
561,197,328,149,2
85,270,137,155,2
404,239,121,223,2
145,277,38,22,2
50,52,0,259,2
485,275,205,126,2
223,23,51,57,2
187,118,309,303,2
103,337,240,376,2
99,144,261,309,2
406,443,182,91,2
265,242,430,221,2
204,173,284,56,2
142,92,50,75,2
122,67,65,459,2
290,237,211,260,2
71,20,39,29,2
474,462,67,110,2
130,271,0,29,2
13,213,0,200,2
454,136,2,28,2
296,51,115,88,2
343,252,256,198,2
285,128,100,112,2
122,49,21,115,2
425,85,30,58,2
327,9,63,406,2
221,67,43,19,2
140,24,175,1,2
39,159,37,110,2
586,281,186,150,2
187,34,179,221,2
216,124,99,183,2
15,32,91,494,2
120,14,26,9,2
361,203,265,107,2
248,106,0,81,2
314,26,196,90,2
292,72,22,57,2
228,62,108,47,2
768,205,128,50,2
157,203,0,29,2
287,117,364,494,2
101,135,42,102,2
327,33,85,442,2
378,308,24,91,2
397,67,0,43,2
183,15,508,30,2
290,21,325,264,2
235,95,376,238,2
517,122,463,380,2
39,97,79,129,2
330,137,369,259,2
236,133,175,128,2
32,146,159,115,2
243,101,134,148,2
111,11,0,2,2
526,149,114,91,2
172,103,194,543,2
51,34,161,94,2
174,102,119,133,2
253,239,155,18,2
191,23,289,222,2
256,18,257,83,2
321,85,289,19,2
88,283,6,177,2
165,151,73,209,2
66,154,230,231,2
9,47,24,77,2
227,183,33,31,2
243,41,124,219,2
366,232,0,42,2
305,102,260,208,2
157,103,24,46,2
12,20,23,71,2
236,204,229,236,2
286,155,50,19,2
431,129,246,69,2
206,79,11,66,2
136,33,125,38,2
515,221,222,98,2
521,172,0,65,2
113,10,272,167,2
157,39,96,5,2
59,211,73,114,2
276,68,91,9,2
193,24,3,4,2
8,259,244,31,2
9,117,202,1,2
5,26,42,33,2
376,300,158,171,2
277,237,277,278,2
279,157,359,166,2
330,172,71,66,2
11,28,302,24,2
592,320,20,110,2
297,113,182,102,2
377,226,383,423,2
251,122,230,400,2
139,120,152,60,2
363,257,312,36,2
393,142,74,31,2
441,168,333,22,2
454,159,47,110,2
25,50,43,51,2
416,79,55,157,2
219,29,127,122,2
319,115,473,292,2
265,154,41,60,2
139,106,407,314,2
99,84,49,435,2
89,33,262,244,2
190,286,160,141,2
61,130,16,271,2
80,66,43,180,2
468,129,65,11,2
297,6,176,43,2
121,192,260,241,2
62,73,85,179,2
127,78,87,8,2
163,35,195,170,2
164,137,88,293,2
156,141,297,323,2
126,159,99,56,2
5,70,146,28,2
548,264,34,54,2
229,147,185,101,2
557,185,89,88,2
291,37,200,148,2
11,5,67,45,2
223,56,397,266,2
135,83,493,94,2
316,239,168,38,2
135,7,51,92,2
253,49,272,31,2
255,87,109,135,2
245,270,0,6,2
458,14,446,629,2
346,151,225,223,2
59,32,115,215,2
486,124,75,130,2
103,6,108,63,2
264,110,132,237,2
20,89,207,344,2
271,196,100,6,2
326,168,123,514,2
0,22,12,302,2
281,46,300,203,2
28,31,36,301,2
61,111,70,39,2
240,283,140,290,2
149,191,58,46,2
389,36,135,338,2
179,94,234,357,2
136,10,98,93,2
370,143,263,457,2
4,65,170,101,2
388,82,340,239,2
41,40,151,340,2
143,9,182,214,2
124,50,202,258,2
102,133,210,213,2
252,113,208,184,2
126,76,64,41,2
73,11,172,259,2
353,137,166,214,2
29,97,31,366,2
447,317,409,270,2
28,37,60,89,2
97,77,156,30,2
77,96,163,93,2
347,250,66,132,2
46,166,95,187,2
53,35,75,307,2
3,106,36,8,2
137,23,186,312,2
70,46,0,21,2
197,32,365,212,2
309,126,96,11,2
104,77,248,90,2
288,61,30,85,2
157,170,29,255,2
295,114,115,97,2
157,153,114,167,2
23,59,55,215,2
353,176,205,321,2
15,23,14,124,2
254,62,205,168,2
142,178,40,121,2
44,24,61,52,2
314,216,275,271,2
284,210,125,88,2
175,5,457,316,2
107,6,74,226,2
17,36,86,35,2
407,144,32,220,2
180,49,94,178,2
277,54,249,353,2
123,140,171,166,2
78,98,281,177,2
270,169,132,147,2
85,55,130,11,2
195,110,155,140,2
167,222,170,71,2
59,54,81,32,2
240,117,238,144,2
78,69,10,3,2
144,124,229,198,2
96,5,131,111,2
73,127,162,113,2
325,187,166,330,2
197,7,205,327,2
298,158,165,339,2
122,96,62,198,2
69,62,211,151,2
368,100,0,3,2
133,62,220,1,2
259,134,65,168,2
141,19,1,1,2
22,7,42,90,2
195,21,192,75,2
155,56,80,39,2
273,146,128,192,2
186,233,20,32,2
65,53,194,116,2
330,200,13,159,2
109,17,3,253,2
161,35,245,290,2
179,30,0,364,2
27,7,59,57,2
265,89,0,185,2
238,148,43,46,2
217,64,159,242,2
177,85,3,31,2
66,31,81,119,2
285,228,110,14,2
129,108,58,19,2
70,25,111,131,2
138,47,0,41,2
158,196,62,143,2
139,23,198,234,2
243,48,63,150,2
245,16,271,299,2
140,89,42,126,2
74,116,158,232,2
350,223,230,36,2
116,23,24,298,2
201,146,38,42,2
149,59,0,82,2
85,52,84,141,2
252,164,132,9,2
244,105,125,69,2
230,59,64,71,2
159,39,88,61,2
79,87,54,6,2
309,73,47,71,2
84,62,16,27,2
67,49,314,95,2
264,95,55,210,2
0,141,55,40,2
98,37,154,55,2
279,10,157,22,2
264,13,358,274,2
164,23,57,145,2
94,111,211,142,2
260,43,45,119,2
193,195,45,56,2
202,21,299,153,2
187,80,105,67,2
3,66,71,91,2
256,16,15,14,2
147,26,141,20,2
294,69,168,138,2
131,7,52,74,2
54,191,158,189,2
83,77,0,79,2
76,38,13,36,2
296,7,174,28,2
156,48,30,44,2
61,27,47,59,2
295,72,167,79,2
148,83,180,45,2
259,140,132,87,2
216,69,150,78,2
11,35,23,41,2
187,36,104,106,2
213,64,23,12,2
355,84,206,144,2
176,116,263,28,2
65,59,393,6,2
246,23,78,111,2
9,78,176,2,2
133,50,136,112,2
135,59,57,14,2
53,162,200,140,2
184,15,85,115,2
211,73,62,118,2
278,9,54,119,2
87,64,71,119,2
129,113,96,274,2
160,40,287,173,2
71,28,167,380,2
235,47,97,225,2
208,44,159,83,2
82,126,159,159,2
196,136,11,18,2
225,268,50,86,2
248,44,37,121,2
94,6,78,1,2
21,25,19,54,2
282,97,15,62,2
234,46,229,116,2
201,19,34,86,2
218,7,90,21,2
4,17,44,172,2
273,20,179,188,2
103,6,126,44,2
182,39,245,100,2
40,24,133,83,2
41,99,79,96,2
213,67,120,185,2
177,100,0,2,2
164,42,1,66,2
175,7,119,218,2
34,12,12,154,2
160,73,235,129,2
188,92,174,32,2
133,76,182,105,2
111,93,0,110,2
30,124,41,19,2
302,37,272,318,2
126,15,200,88,2
351,225,235,424,2
123,13,46,404,2
41,24,282,193,2
204,59,79,137,2
124,169,391,178,2
231,61,10,54,2
69,93,39,266,2
8,23,18,85,2
150,100,181,76,2
136,91,2,73,2
145,212,103,201,2
192,27,43,184,2
29,36,110,89,2
309,43,290,334,2
108,66,143,34,2
404,95,327,155,2
201,8,83,43,2
57,55,187,127,2
260,148,386,339,2
180,40,73,25,2
212,41,68,440,2
162,40,145,35,2
67,244,85,2,2
169,69,167,222,2
4,36,8,86,2
332,89,309,84,2
226,37,212,46,2
11,116,135,106,2
245,38,57,25,2
279,131,18,22,2
4,183,29,320,2
55,86,5,101,2
153,105,124,217,2
209,206,2,374,2
313,243,174,515,2
153,51,116,51,2
63,7,20,205,2
110,238,6,179,2
291,193,41,54,2
230,25,60,103,2
288,39,58,450,2
272,17,388,1023,2
25,42,1,147,2
346,59,479,800,2
110,113,112,168,2
71,135,300,323,2
240,184,236,363,2
27,11,85,298,2
226,119,22,189,2
64,358,102,21,2
250,103,157,37,2
324,221,156,5,2
55,48,70,122,2
361,242,187,63,2
199,49,346,237,2
347,53,293,118,2
103,98,450,489,2
46,16,197,368,2
66,94,61,154,2
99,127,193,495,2
1,72,61,225,2
134,22,119,274,2
139,35,374,315,2
195,156,23,48,2
311,308,367,248,2
295,129,315,305,2
223,293,237,83,2
94,289,18,17,2
137,118,311,179,2
149,108,286,336,2
386,237,386,339,2
370,453,60,49,2
68,140,397,532,2
229,70,151,461,2
56,30,116,98,2
24,29,340,571,2
152,67,261,346,2
125,30,12,289,2
244,19,304,198,2
224,209,0,163,2
121,45,133,81,2
79,135,290,111,2
203,80,0,357,2
310,134,526,249,2
224,15,77,154,2
273,119,342,226,2
206,79,111,13,2
269,125,234,82,2
217,51,142,361,2
484,146,176,330,2
113,43,212,431,2
137,76,49,22,2
241,209,624,1023,2
467,244,127,244,2
142,15,571,704,2
446,235,267,450,2
18,42,2,4,2
219,5,214,280,2
31,112,376,483,2
155,77,136,256,2
304,135,45,247,2
154,15,65,130,2
116,162,60,317,2
258,27,34,40,2
196,67,10,19,2
366,22,305,302,2
44,102,25,15,2
224,5,627,828,2
194,218,736,823,2
180,255,354,295,2
93,173,494,843,2
203,105,0,266,2
360,192,216,6,2
209,117,198,160,2
24,148,53,183,2
183,82,195,276,2
43,15,480,367,2
4,147,66,119,2
340,67,494,127,2
501,306,44,273,2
335,523,85,606,2
408,381,39,310,2
180,103,128,154,2
241,106,11,199,2
234,204,140,176,2
313,43,250,390,2
150,98,38,601,2
74,114,139,74,2
98,137,51,212,2
157,31,0,1023,2
195,23,261,1023,2
93,90,89,385,2
165,36,186,19,2
453,66,125,538,2
819,395,100,7,2
513,271,257,250,2
248,262,415,135,2
6,16,95,150,2
67,12,751,148,2
593,220,333,260,2
127,34,108,72,2
151,273,592,608,2
59,33,58,265,2
599,18,351,698,2
204,22,253,1,2
566,191,291,196,2
405,350,24,47,2
22,131,250,130,2
169,144,402,3,2
293,139,104,17,2
204,127,7,231,2
137,95,20,510,2
233,22,81,147,2
229,157,243,98,2
321,139,518,249,2
402,119,328,123,2
704,196,361,19,2
347,30,84,316,2
469,197,467,682,2
398,257,403,444,2
284,7,537,213,2
225,122,503,15,2
174,147,131,615,2
168,263,606,531,2
171,242,182,157,2
557,399,474,220,2
55,220,367,39,2
177,10,157,129,2
468,125,44,27,2
333,347,152,42,2
783,261,260,101,2
696,420,0,224,2
250,65,398,452,2
532,333,562,132,2
214,107,385,513,2
612,386,431,59,2
483,282,607,353,2
103,140,203,42,2
297,93,126,285,2
542,223,7,450,2
59,89,352,182,2
201,300,220,40,2
95,145,283,420,2
125,109,24,181,2
262,136,464,246,2
392,269,470,180,2
316,198,131,342,2
10,172,110,426,2
315,11,373,252,2
112,11,119,401,2
308,17,239,89,2
285,109,594,20,2
86,153,132,53,2
169,69,162,110,2
30,37,166,108,2
375,271,522,199,2
397,367,170,102,2
309,50,39,143,2
143,57,270,125,2
459,254,74,234,2
134,184,139,102,2
297,362,131,214,2
86,255,69,130,2
404,13,23,101,2
364,20,207,108,2
395,254,0,175,2
276,132,140,201,2
25,66,74,164,2
329,219,331,79,2
316,151,133,148,2
424,221,42,234,2
203,15,275,69,2
158,25,218,21,2
303,239,79,73,2
526,415,128,81,2
157,107,53,56,2
326,10,103,68,2
176,445,49,99,2
380,316,47,153,2
329,287,282,65,2
293,7,74,196,2
371,11,436,216,2
265,85,13,55,2
326,69,51,93,2
315,70,164,11,2
158,143,10,32,2
222,153,264,37,2
42,100,36,59,2
231,16,62,48,2
289,55,270,242,2
279,310,352,23,2
113,175,56,202,2
11,185,184,188,2
425,328,37,123,2
219,170,445,419,2
528,260,257,220,2
267,138,105,153,2
13,123,269,149,2
345,179,18,72,2
210,49,132,131,2
444,83,253,46,2
315,247,43,99,2
91,28,41,50,2
141,335,107,95,2
149,54,221,138,2
241,155,148,189,2
390,94,26,12,2
91,50,174,59,2
372,215,130,95,2
182,122,77,229,2
442,52,32,61,2
336,30,0,339,2
169,41,14,278,2
477,307,173,15,2
110,44,135,141,2
386,76,282,420,2
129,30,436,121,2
46,49,265,66,2
317,268,199,276,2
416,213,11,43,2
441,270,261,150,2
302,23,15,14,2
28,85,313,1,2
296,172,59,415,2
345,182,173,244,2
65,25,111,25,2
51,217,3,211,2
281,196,128,66,2
90,259,155,209,2
75,137,58,111,2
358,270,67,44,2
75,29,0,9,2
97,56,171,78,2
203,108,248,156,2
340,147,20,135,2
402,104,469,662,2
245,40,174,163,2
15,115,185,33,2
206,129,7,19,2
226,19,67,214,2
212,295,138,24,2
186,6,63,189,2
41,35,143,29,2
107,121,101,129,2
36,24,117,8,2
68,147,58,39,2
85,87,156,98,2
119,91,337,259,2
222,349,63,324,2
178,12,80,9,2
399,481,264,29,2
353,179,29,21,2
41,18,256,173,2
416,286,139,74,2
198,34,18,14,2
260,143,284,126,2
264,175,13,32,2
59,87,370,82,2
297,283,5,97,2
321,147,214,66,2
149,252,234,164,2
170,242,89,49,2
294,130,40,41,2
21,24,107,57,2
130,6,71,66,2
552,441,74,66,2
437,146,207,167,2
9,135,62,22,2
410,267,289,78,2
247,42,92,109,2
263,154,258,228,2
283,132,145,35,2
40,39,173,443,2
493,226,132,179,2
374,119,49,169,2
360,271,243,217,2
109,24,3,4,2
53,131,432,107,2
270,283,131,107,2
137,151,273,743,2
390,174,250,665,2
228,82,132,30,2
163,12,225,68,2
49,121,128,48,2
82,45,130,136,2
410,156,235,186,2
425,134,315,182,2
218,56,430,64,2
447,105,98,81,2
86,99,171,53,2
455,339,196,40,2
183,124,6,1,2
117,206,255,84,2
21,77,114,325,2
187,39,0,5,2
184,79,343,407,2
54,6,1,13,2
122,195,192,277,2
121,212,0,14,2
71,72,297,83,2
265,215,0,1,2
263,41,212,197,2
92,43,191,65,2
224,198,8,97,2
324,145,0,454,2
6,128,498,204,2
10,34,33,412,2
126,34,170,182,2
14,39,125,6,2
52,8,194,93,2
105,75,80,157,2
124,43,94,6,2
10,62,199,138,2
405,204,51,48,2
184,63,120,202,2
188,7,411,314,2
143,79,79,138,2
27,64,274,685,2
215,97,266,308,2
37,18,112,68,2
377,289,285,235,2
145,113,208,210,2
15,154,272,190,2
334,148,330,288,2
41,27,119,149,2
166,103,308,186,2
28,49,4,104,2
59,18,80,52,2
115,290,5,103,2
227,144,146,156,2
344,143,0,168,2
153,141,161,12,2
106,5,25,86,2
212,49,212,268,2
127,10,135,228,2
202,61,161,276,2
301,93,236,170,2
70,45,19,40,2
193,199,177,37,2
156,52,352,223,2
338,281,63,218,2
21,45,202,61,2
33,15,64,409,2
256,72,28,163,2
277,146,0,123,2
269,55,377,110,2
240,171,292,225,2
30,144,401,34,2
164,142,122,298,2
191,45,119,62,2
141,19,78,107,2
150,135,244,400,2
44,289,245,275,2
155,64,389,191,2
90,11,114,192,2
258,324,207,111,2
116,121,99,8,2
9,13,59,2,2
129,138,5,25,2
169,35,191,247,2
283,178,158,148,2
146,119,179,227,2
12,104,278,139,2
267,17,18,6,2
154,146,149,120,2
257,26,69,89,2
181,122,5,90,2
34,114,133,132,2
119,16,139,227,2
210,149,53,4,2
208,31,244,402,2
82,10,295,104,2
120,37,291,201,2
142,65,363,314,2
21,49,188,79,2
282,354,110,225,2
226,138,4,51,2
90,22,131,515,2
216,91,89,133,2
266,79,163,417,2
321,60,209,134,2
210,118,171,261,2
8,5,298,277,2
198,116,150,58,2
128,40,81,42,2
231,143,0,8,2
149,28,242,87,2
71,106,34,24,2
167,261,183,75,2
148,45,1,190,2
386,296,282,61,2
163,11,143,103,2
66,14,341,246,2
183,94,114,132,2
76,46,306,230,2
208,17,180,78,2
214,137,138,309,2
7,24,251,23,2
106,84,158,111,2
221,27,133,187,2
341,147,303,41,2
161,31,150,185,2
18,15,350,64,2
151,8,0,81,2
90,6,3,20,2
133,47,233,609,2
207,120,40,135,2
3,104,177,432,2
93,23,52,207,2
213,15,108,112,2
408,195,54,47,2
145,145,129,142,2
25,16,54,35,2
193,56,115,65,2
199,94,0,123,2
111,28,272,125,2
151,52,293,187,2
84,17,430,231,2
261,188,285,63,2
242,178,140,57,2
261,13,134,352,2
214,56,478,316,2
8,88,52,154,2
136,38,17,5,2
125,31,129,20,2
325,33,509,107,2
199,117,83,102,2
4,35,190,159,2
195,91,39,77,2
74,48,19,50,2
211,136,25,174,2
266,152,273,73,2
27,153,236,68,2
166,22,18,62,2
226,71,76,28,2
291,5,399,365,2
145,68,164,17,2
10,22,240,194,2
154,16,184,239,2
117,25,0,102,2
122,22,583,422,2
134,6,112,143,2
40,35,26,39,2
96,66,78,124,2
262,101,52,93,2
264,33,237,238,2
156,151,0,11,2
90,191,198,40,2
122,21,181,101,2
137,149,217,216,2
224,109,108,76,2
152,106,141,208,2
5,56,302,155,2
81,47,115,136,2
64,51,156,90,2
171,40,3,19,2
191,60,150,22,2
66,40,39,273,2
235,9,207,417,2
135,109,70,11,2
302,116,550,418,2
212,38,21,45,2
19,156,462,327,2
293,28,10,45,2
295,73,268,81,2
67,207,37,119,2
109,134,64,238,2
57,38,99,343,2
201,10,57,47,2
178,87,45,232,2
294,159,157,215,2
98,54,103,301,2
101,105,172,180,2
193,196,44,90,2
132,31,126,82,2
286,68,52,255,2
124,159,94,58,2
19,90,124,274,2
222,8,19,70,2
234,59,10,77,2
183,32,176,204,2
263,11,157,35,2
117,7,214,27,2
78,18,137,96,2
144,41,126,146,2
204,21,294,542,2
94,89,19,193,2
120,30,307,457,2
165,24,162,136,2
156,34,262,15,2
189,7,403,306,2
145,19,193,332,2
47,116,297,131,2
18,168,401,414,2
236,13,176,278,2
152,155,420,323,2
82,113,97,628,2
26,115,318,441,2
135,84,114,12,2
285,200,5,337,2
224,125,365,383,2
7,105,3,11,2
29,159,419,425,2
57,47,148,79,2
7,13,266,195,2
212,39,341,237,2
39,41,131,354,2
9,30,46,1023,2
102,101,249,87,2
21,21,457,658,2
384,67,458,794,2
96,57,341,281,2
53,86,70,253,2
76,105,203,15,2
132,275,0,244,2
63,74,555,549,2
155,33,54,235,2
125,51,361,166,2
225,73,137,40,2
45,156,239,16,2
258,113,124,132,2
170,163,88,271,2
8,103,150,186,2
188,143,48,345,2
15,46,141,302,2
100,80,56,381,2
156,92,12,73,2
84,107,61,45,2
120,49,136,354,2
40,194,132,298,2
299,366,64,323,2
253,240,396,444,2
151,47,70,86,2
72,28,485,488,2
126,72,148,224,2
66,294,0,216,2
108,11,193,250,2
91,184,240,404,2
292,21,124,176,2
422,90,90,148,2
382,373,188,16,2
246,132,0,122,2
237,305,251,44,2
12,52,175,21,2
371,142,471,347,2
361,40,438,667,2
360,163,567,624,2
3,53,467,600,2
300,266,154,71,2
512,272,367,469,2
37,11,36,65,2
30,71,23,74,2
23,61,12,101,2
76,73,164,593,2
162,125,54,145,2
50,240,296,358,2
274,21,105,158,2
82,92,230,510,2
583,217,56,22,2
357,79,5,19,2
379,248,86,117,2
490,178,131,343,2
45,39,36,11,2
179,217,52,348,2
100,44,509,1023,2
157,120,67,257,2
19,291,389,938,2
20,38,268,64,2
331,77,301,916,2
176,16,108,460,2
312,55,287,322,2
157,41,0,33,2
246,235,157,233,2
221,13,181,399,2
24,139,545,152,2
219,336,104,158,2
79,10,51,167,2
84,180,42,8,2
178,221,238,58,2
52,26,87,471,2
407,148,367,240,2
134,85,29,237,2
18,42,665,304,2
114,160,224,459,2
83,71,82,1023,2
353,315,402,30,2
239,67,166,953,2
82,90,322,99,2
149,80,89,0,2
3,66,17,34,2
402,146,226,275,2
166,34,17,142,2
198,106,72,325,2
354,26,79,125,2
469,210,480,439,2
276,62,307,620,2
738,313,592,814,2
281,34,154,306,2
171,54,142,18,2
148,13,525,687,2
371,242,89,323,2
8,66,322,437,2
154,13,203,275,2
17,73,234,654,2
74,147,182,220,2
286,113,431,182,2
221,49,100,707,2
11,329,612,733,2
126,128,86,216,2
99,41,221,17,2
609,197,106,589,2
191,46,350,365,2
18,173,266,153,2
454,154,434,11,2
367,54,340,673,2
665,398,295,970,2
776,116,3,64,2
92,54,227,63,2
125,69,251,191,2
369,25,412,447,2
161,226,341,684,2
130,256,171,94,2
110,375,608,540,2
399,373,229,662,2
456,384,558,209,2
329,286,316,291,2
217,39,10,151,2
76,175,454,76,2
394,245,130,281,2
233,225,694,3,2
550,204,674,459,2
297,134,16,87,2
73,60,381,220,2
178,183,189,256,2
27,123,118,25,2
510,251,250,13,2
129,69,0,26,2
199,372,366,75,2
9,151,161,183,2
87,54,331,46,2
404,399,89,296,2
122,135,207,615,2
70,78,251,57,2
208,39,83,70,2
239,220,293,31,2
312,11,271,12,2
242,109,254,23,2
94,65,153,99,2
36,17,165,115,2
109,266,245,485,2
1023,330,369,136,2
614,245,593,323,2
34,192,170,36,2
184,149,449,330,2
102,58,99,394,2
371,122,85,326,2
462,383,119,480,2
151,17,425,151,2
67,155,152,197,2
105,41,45,101,2
332,126,322,623,2
416,114,242,280,2
87,237,292,432,2
668,152,288,660,2
450,71,67,436,2
758,341,396,331,2
428,76,33,21,2
195,205,366,460,2
115,205,119,6,2
29,14,10,516,2
715,285,602,230,2
77,22,61,83,2
269,135,259,157,2
261,161,175,78,2
160,92,126,129,2
336,285,420,273,2
255,220,30,153,2
127,12,259,18,2
225,24,27,345,2
267,31,255,361,2
523,203,421,349,2
190,16,30,1,2
155,154,272,202,2
91,36,179,65,2
69,15,14,41,2
501,316,483,110,2
261,117,192,173,2
85,219,739,218,2
11,244,171,223,2
121,39,270,2,2
501,300,33,8,2
174,23,196,9,2
137,118,192,148,2
296,130,283,331,2
10,29,34,102,2
662,555,28,7,2
334,202,0,21,2
74,6,126,51,2
288,106,61,9,2
131,104,275,5,2
309,113,475,49,2
11,13,16,74,2
129,127,587,353,2
86,42,334,252,2
89,112,372,382,2
536,307,472,375,2
24,61,113,150,2
140,247,317,415,2
5,37,81,135,2
111,141,143,549,2
300,285,375,373,2
32,102,66,106,2
126,50,454,340,2
318,28,0,103,2
123,39,139,149,2
455,327,0,48,2
356,73,38,1,2
82,85,148,189,2
119,65,29,340,2
140,23,69,139,2
799,455,248,97,2
456,292,49,26,2
39,9,318,486,2
2,56,146,39,2
117,21,59,117,2
346,230,81,32,2
222,20,36,158,2
12,10,243,241,2
175,147,105,114,2
332,132,4,82,2
492,402,243,135,2
441,127,42,590,2
67,128,273,16,2
245,113,23,91,2
301,113,85,73,2
310,348,176,80,2
136,220,57,317,2
323,102,300,391,2
247,27,223,239,2
142,194,35,141,2
534,262,215,422,2
122,137,53,53,2
239,251,153,575,2
169,69,8,495,2
187,23,50,20,2
337,196,261,210,2
373,197,114,485,2
102,381,421,422,2
103,87,104,28,2
165,48,316,245,2
331,305,323,65,2
73,23,152,61,2
254,77,243,4,2
257,21,67,77,2
180,58,23,322,2
309,161,343,231,2
128,39,329,152,2
109,51,386,125,2
119,11,37,228,2
160,15,67,148,2
329,317,263,22,2
247,181,71,22,2
2,44,454,309,2
9,42,45,200,2
152,32,475,75,2
232,149,144,151,2
192,129,91,191,2
318,242,548,217,2
162,213,4,171,2
79,47,422,443,2
363,207,32,186,2
158,67,159,27,2
52,47,348,139,2
45,34,11,109,2
34,26,416,43,2
239,95,247,346,2
32,103,225,113,2
308,301,65,25,2
254,85,195,36,2
127,7,2,7,2
422,234,0,92,2
320,117,63,328,2
37,46,124,497,2
305,149,87,64,2
165,69,27,130,2
389,135,419,234,2
269,345,152,460,2
251,15,257,633,2
149,126,129,290,2
16,146,103,527,2
323,79,48,97,2
82,6,1,100,2
76,70,297,6,2
272,72,172,121,2
101,116,202,148,2
427,245,379,175,2
2,51,205,37,2
87,6,0,130,2
106,23,163,409,2
148,14,499,169,2
380,155,395,231,2
148,103,75,98,2
132,69,352,41,2
165,143,336,103,2
137,167,132,114,2
217,21,58,171,2
97,58,84,3,2
26,79,256,397,2
31,71,74,114,2
137,110,220,32,2
223,32,239,157,2
168,49,10,15,2
159,162,117,83,2
70,7,119,108,2
86,35,5,133,2
315,83,235,51,2
155,211,43,39,2
60,180,112,29,2
135,11,219,242,2
159,146,0,343,2
267,44,302,234,2
116,73,87,156,2
44,26,525,476,2
259,125,96,12,2
128,129,310,15,2
353,132,177,534,2
51,65,124,445,2
176,111,1,270,2
7,38,139,220,2
16,31,89,265,2
275,47,201,122,2
14,8,105,46,2
26,71,271,223,2
246,330,122,194,2
247,324,218,124,2
234,19,202,215,2
160,19,135,204,2
1,34,88,11,2
113,12,10,95,2
191,26,72,237,2
331,173,75,61,2
60,23,23,100,2
82,12,177,72,2
103,13,400,24,2
147,75,30,250,2
162,42,65,21,2
208,37,123,261,2
110,36,122,268,2
210,21,184,75,2
223,273,48,20,2
306,92,183,120,2
191,133,33,21,2
82,57,275,6,2
122,21,15,141,2
68,5,36,173,2
275,91,135,12,2
253,153,18,52,2
149,89,109,49,2
248,272,138,153,2
60,17,0,143,2
298,153,131,4,2
195,34,188,300,2
13,59,425,81,2
153,132,266,123,2
207,235,188,70,2
270,53,192,139,2
253,118,276,271,2
119,71,297,90,2
205,156,214,309,2
264,24,124,72,2
241,216,0,161,2
192,53,137,407,2
62,138,86,1,2
156,23,98,144,2
159,66,61,63,2
238,118,266,117,2
198,107,128,190,2
61,36,123,141,2
96,149,163,69,2
196,80,72,1,2
341,131,184,62,2
113,66,33,114,2
57,60,285,161,2
125,46,4,24,2
79,84,223,108,2
215,31,51,90,2
299,174,15,122,2
78,7,89,133,2
74,76,198,72,2
105,6,20,140,2
312,100,274,253,2
183,47,123,188,2
62,18,374,542,2
206,78,18,179,2
135,57,283,322,2
241,63,131,233,2
158,36,101,117,2
147,73,120,109,2
110,6,0,12,2
144,18,130,54,2
290,59,173,117,2
138,37,0,40,2
42,31,236,347,2
136,57,0,175,2
107,16,85,262,2
214,14,203,308,2
181,97,37,147,2
7,95,292,320,2
161,35,63,30,2
75,16,296,105,2
269,69,232,132,2
193,131,109,32,2
150,54,298,151,2
199,73,11,43,2
187,142,155,166,2
312,53,137,91,2
154,68,7,6,2
53,21,133,43,2
198,119,27,67,2
154,95,103,4,2
297,85,177,149,2
254,114,0,17,2
101,11,242,188,2
82,31,0,16,2
101,23,79,19,2
324,18,221,157,2
169,71,0,138,2
6,126,233,50,2
183,35,17,4,2
198,155,97,21,2
252,10,166,107,2
272,122,0,96,2
16,64,298,193,2
159,64,14,8,2
174,79,0,28,2
366,73,82,156,2
187,68,52,13,2
42,78,213,130,2
67,35,7,54,2
118,65,148,14,2
328,98,171,169,2
177,80,14,14,2
117,11,240,120,2
155,39,9,201,2
114,23,0,113,2
295,5,393,267,2
174,47,104,30,2
120,41,397,328,2
234,89,0,31,2
115,28,174,115,2
299,127,172,66,2
154,8,0,52,2
96,13,251,146,2
164,48,0,4,2
165,90,70,9,2
326,25,213,167,2
198,30,45,5,2
55,25,142,154,2
133,44,87,125,2
91,45,175,82,2
335,38,107,339,2
199,34,159,155,2
55,54,144,202,2
104,7,28,212,2
102,7,135,81,2
286,27,169,142,2
182,33,23,36,2
95,33,48,53,2
95,19,0,57,2
130,126,20,22,2
226,73,169,153,2
158,30,23,304,2
37,57,300,65,2
126,8,0,194,2
41,33,217,87,2
217,46,76,146,2
121,33,70,122,2
56,11,196,121,2
33,6,246,254,2
145,92,175,36,2
261,93,179,159,2
127,59,134,26,2
156,89,105,120,2
245,140,118,70,2
182,114,26,2,2
271,66,269,376,2
314,275,174,215,2
24,158,364,635,2
45,12,182,99,2
243,231,127,1,2
220,43,135,168,2
209,127,51,170,2
8,72,369,429,2
196,236,44,22,2
193,181,272,164,2
309,129,221,302,2
207,144,213,11,2
120,91,268,167,2
134,50,162,5,2
27,9,362,106,2
347,93,175,451,2
201,27,38,587,2
164,60,114,70,2
198,7,215,165,2
46,116,120,494,2
260,108,366,92,2
151,135,24,256,2
29,83,175,91,2
11,12,0,134,2
45,5,47,122,2
206,34,183,385,2
2,96,240,1023,2
33,62,260,84,2
222,185,73,752,2
61,94,71,325,2
408,21,299,326,2
247,103,188,269,2
107,58,183,189,2
149,68,105,410,2
116,121,190,4,2
202,126,402,399,2
197,368,113,312,2
20,35,467,689,2
215,240,194,263,2
100,148,295,385,2
303,42,384,280,2
86,81,164,95,2
74,19,358,206,2
195,177,78,337,2
143,129,243,349,2
147,81,250,416,2
96,23,36,76,2
186,173,207,190,2
23,208,63,209,2
139,39,125,431,2
414,35,226,314,2
132,76,222,559,2
64,150,55,504,2
118,51,170,83,2
256,225,96,65,2
223,7,1,270,2
247,167,16,246,2
2,48,31,47,2
77,66,137,252,2
64,55,31,537,2
336,14,92,76,2
334,64,91,479,2
92,94,319,303,2
147,250,218,486,2
231,102,461,507,2
228,81,232,294,2
59,17,38,529,2
169,170,306,776,2
151,75,167,121,2
179,216,187,419,2
335,126,137,357,2
388,243,256,644,2
1,21,155,40,2
246,6,13,464,2
16,189,176,407,2
330,130,156,243,2
112,22,45,21,2
75,204,238,251,2
175,155,0,142,2
74,128,335,808,2
301,57,95,28,2
98,60,320,777,2
58,49,204,59,2
35,7,65,256,2
89,23,5,18,2
160,156,1,101,2
300,101,107,68,2
148,53,66,74,2
58,67,16,333,2
327,8,219,297,2
338,36,434,22,2
40,160,89,213,2
131,30,596,92,2
136,23,199,470,2
277,398,403,212,2
295,292,206,202,2
246,202,567,182,2
125,124,2,99,2
306,208,532,318,2
271,51,44,1,2
368,148,234,34,2
462,43,23,391,2
20,188,145,661,2
144,60,205,828,2
259,177,184,829,2
329,58,105,45,2
591,149,205,238,2
182,85,0,30,2
563,207,300,202,2
108,174,156,564,2
358,21,347,523,2
167,279,481,652,2
108,24,283,726,2
1,123,34,469,2
150,123,47,319,2
445,132,229,453,2
116,150,217,411,2
366,26,488,134,2
151,198,319,252,2
206,12,313,301,2
823,301,185,84,2
241,135,5,145,2
39,287,199,91,2
53,10,47,301,2
128,7,96,368,2
523,159,284,264,2
283,254,167,922,2
437,146,357,741,2
332,95,1,286,2
446,205,490,452,2
134,200,216,131,2
216,34,262,181,2
166,151,175,311,2
668,426,221,229,2
437,450,294,242,2
368,165,931,832,2
421,157,538,367,2
15,6,655,242,2
504,195,647,3,2
100,180,353,439,2
969,333,354,463,2
366,149,428,78,2
308,81,372,198,2
241,109,441,16,2
388,35,309,198,2
25,97,150,242,2
257,292,315,245,2
74,33,0,107,2
294,273,302,87,2
164,213,35,29,2
144,149,430,221,2
131,104,634,61,2
425,21,17,17,2
497,28,332,115,2
24,14,490,68,2
397,233,331,511,2
181,24,382,313,2
181,153,366,473,2
341,185,472,384,2
258,145,156,129,2
584,247,547,367,2
158,240,154,572,2
331,245,629,444,2
292,210,319,71,2
290,71,85,135,2
615,480,514,145,2
364,168,36,124,2
462,185,334,165,2
426,325,229,433,2
108,53,219,37,2
219,10,92,527,2
26,195,137,296,2
350,50,50,88,2
36,27,174,436,2
399,22,236,163,2
147,18,376,631,2
190,51,158,607,2
420,140,485,82,2
68,70,390,77,2
18,176,4,4,2
246,385,517,291,2
221,76,0,258,2
187,60,534,240,2
63,79,509,93,2
416,294,526,348,2
588,300,320,129,2
126,160,0,30,2
347,307,35,76,2
183,15,73,649,2
247,113,191,114,2
456,171,55,85,2
429,54,74,40,2
35,47,216,645,2
326,121,168,332,2
136,132,124,26,2
511,308,658,328,2
90,230,107,337,2
613,223,303,221,2
448,59,19,107,2
208,113,46,185,2
669,506,313,50,2
230,48,152,107,2
177,213,29,142,2
119,22,71,2,2
81,11,7,46,2
606,299,239,61,2
25,49,96,100,2
147,46,209,142,2
41,63,32,8,2
215,35,60,123,2
225,124,115,28,2
446,245,125,114,2
7,81,186,224,2
238,103,179,34,2
126,103,133,26,2
509,222,153,65,2
236,100,231,74,2
170,132,460,168,2
215,23,155,95,2
56,108,403,431,2
594,220,237,445,2
157,7,54,54,2
181,228,209,322,2
18,63,294,37,2
247,475,219,18,2
357,65,417,268,2
375,190,273,176,2
6,76,462,353,2
152,15,350,332,2
64,67,221,157,2
342,65,36,294,2
28,20,203,231,2
269,10,48,16,2
306,75,337,130,2
129,101,121,301,2
400,217,14,52,2
165,18,2,66,2
125,160,409,619,2
0,111,57,111,2
253,166,87,343,2
350,138,203,265,2
398,252,55,141,2
180,21,93,1,2
128,160,27,238,2
490,82,54,73,2
160,114,107,385,2
235,13,69,95,2
2,198,130,225,2
172,32,46,215,2
209,51,158,161,2
201,71,4,46,2
288,20,217,153,2
152,90,7,37,2
