Ch1,Ch2,Ch3,Ch4,label
316,374,84,44,1
222,260,88,95,1
34,34,89,87,1
24,40,281,177,1
2,8,198,168,1
54,28,100,0,1
46,42,463,230,1
4,27,23,46,1
99,109,305,123,1
5,29,48,0,1
20,7,158,123,1
34,69,79,14,1
7,135,265,147,1
138,164,254,186,1
68,139,88,0,1
0,13,336,221,1
13,83,411,317,1
157,100,419,314,1
188,246,63,49,1
77,175,268,286,1
287,233,17,42,1
137,179,67,38,1
32,7,10,153,1
51,103,28,173,1
133,98,507,345,1
137,96,2,148,1
58,41,438,170,1
146,203,77,268,1
203,96,94,166,1
35,364,292,386,1
140,24,428,184,1
239,248,676,550,1
62,55,390,155,1
49,10,281,449,1
34,339,260,263,1
179,255,781,783,1
272,162,380,26,1
25,145,868,685,1
152,11,594,1023,1
256,8,642,0,1
37,94,661,1023,1
76,141,156,276,1
159,12,277,40,1
26,94,840,497,1
195,75,760,747,1
236,372,590,475,1
155,95,378,183,1
18,86,760,287,1
153,128,150,1023,1
561,173,112,39,1
90,294,366,65,1
2,517,116,255,1
191,40,69,592,1
321,61,23,30,1
242,94,721,658,1
11,276,129,258,1
168,250,161,203,1
157,382,991,296,1
139,139,422,946,1
223,297,461,1023,1
276,63,386,171,1
65,81,665,917,1
182,235,560,54,1
257,206,46,631,1
225,340,537,503,1
173,325,1023,1023,1
280,266,1020,820,1
10,403,535,53,1
315,163,795,1023,1
80,433,124,55,1
16,27,859,220,1
101,215,334,583,1
244,76,1023,1023,1
53,325,188,524,1
592,439,1023,909,1
512,31,94,924,1
240,15,1023,1015,1
289,129,481,509,1
61,213,369,834,1
3,156,224,564,1
542,368,867,632,1
489,118,613,480,1
74,178,824,275,1
72,189,37,336,1
406,230,182,144,1
340,452,46,1,1
546,10,175,838,1
129,213,358,59,1
187,227,137,159,1
227,24,81,404,1
341,223,450,79,1
140,91,41,239,1
389,6,229,88,1
200,51,23,280,1
122,49,585,1023,1
44,106,1023,3,1
320,242,325,813,1
259,89,1023,1023,1
210,22,1023,1023,1
36,141,53,63,1
475,331,1023,962,1
397,384,1023,1023,1
62,121,751,265,1
239,90,1023,1023,1
437,26,227,627,1
30,11,353,964,1
345,46,713,24,1
49,281,406,105,1
90,20,387,527,1
59,229,91,253,1
29,138,17,42,1
313,257,737,519,1
528,108,627,83,1
197,38,1023,361,1
347,250,63,658,1
395,30,346,1023,1
69,226,1023,400,1
65,107,566,757,1
686,141,1023,1023,1
278,19,264,630,1
69,90,1023,1023,1
196,109,604,1023,1
79,30,1023,1023,1
31,93,713,553,1
33,199,1023,618,1
51,154,526,167,1
381,526,927,626,1
372,256,754,49,1
483,303,51,315,1
63,110,914,190,1
39,54,445,150,1
436,19,273,37,1
11,169,253,632,1
28,151,737,291,1
140,180,1023,1023,1
272,147,1023,1023,1
468,203,1023,1023,1
461,367,288,457,1
436,391,630,328,1
37,218,85,298,1
196,343,1023,1012,1
114,143,826,1023,1
110,187,209,422,1
64,45,315,573,1
42,314,142,162,1
32,165,858,1023,1
321,167,1023,1023,1
2,128,523,35,1
375,581,1023,1023,1
259,269,1023,1023,1
132,109,275,494,1
37,33,214,591,1
9,115,1023,319,1
41,26,104,20,1
112,51,253,433,1
806,253,873,638,1
602,225,1023,1023,1
122,61,930,453,1
234,260,167,302,1
95,63,682,562,1
88,215,872,556,1
26,258,1023,1023,1
9,407,1023,1023,1
104,24,631,150,1
77,51,265,205,1
104,6,634,8,1
151,277,364,559,1
75,30,306,144,1
117,71,187,74,1
9,38,538,152,1
158,28,45,729,1
189,228,1023,1023,1
47,15,428,504,1
203,188,248,59,1
19,142,7,20,1
49,273,683,342,1
151,51,376,92,1
46,28,187,292,1
62,111,105,14,1
26,126,86,103,1
73,125,513,515,1
138,345,169,36,1
25,15,324,695,1
156,184,326,623,1
66,49,109,34,1
142,167,179,1,1
15,169,27,32,1
9,35,283,216,1
1,71,195,114,1
36,67,509,326,1
188,58,100,122,1
88,138,638,457,1
30,319,240,42,1
48,6,8,0,1
112,125,349,55,1
90,91,13,103,1
77,67,547,397,1
111,373,59,455,1
110,112,360,218,1
65,59,441,163,1
79,23,130,0,1
135,72,226,147,1
239,117,311,29,1
22,57,58,0,1
54,127,52,17,1
46,81,272,198,1
27,165,20,5,1
77,50,299,381,1
177,68,253,380,1
11,13,335,371,1
67,36,42,43,1
147,204,482,428,1
52,18,462,443,1
12,258,279,67,1
62,19,238,199,1
35,79,121,36,1
66,150,335,127,1
158,244,515,180,1
44,11,43,0,1
56,186,231,124,1
6,74,216,261,1
56,126,349,120,1
113,373,64,332,1
148,21,819,479,1
259,438,385,29,1
11,15,223,324,1
146,29,203,11,1
138,66,450,92,1
117,9,80,145,1
103,107,126,393,1
135,166,9,69,1
191,102,405,313,1
25,78,418,157,1
56,54,287,161,1
80,205,286,233,1
20,22,9,353,1
129,235,433,298,1
308,118,38,180,1
62,231,303,113,1
164,111,730,113,1
11,109,236,595,1
156,117,13,79,1
142,151,279,137,1
26,53,95,98,1
78,113,50,204,1
92,244,104,54,1
97,130,285,227,1
39,56,301,191,1
170,71,728,566,1
112,128,31,193,1
147,56,29,167,1
379,424,52,109,1
126,102,958,601,1
62,62,137,1,1
27,85,562,496,1
20,99,264,333,1
5,161,505,501,1
455,112,542,533,1
392,142,693,187,1
239,354,210,220,1
297,22,304,47,1
144,284,58,89,1
119,189,290,80,1
32,68,367,237,1
173,219,73,11,1
49,208,33,41,1
212,195,544,582,1
57,239,519,791,1
144,163,364,32,1
98,180,359,283,1
400,523,743,124,1
755,786,138,5,1
47,78,249,24,1
40,25,206,225,1
43,30,37,167,1
153,27,21,208,1
113,123,196,29,1
159,323,274,449,1
70,137,343,191,1
88,120,9,68,1
157,183,73,132,1
12,58,56,140,1
103,307,38,48,1
101,487,371,249,1
0,190,330,51,1
1,254,132,630,1
49,306,284,399,1
47,52,63,788,1
22,443,324,644,1
116,379,24,103,1
183,155,501,250,1
63,122,109,251,1
137,153,329,107,1
13,53,473,193,1
9,13,212,231,1
63,64,536,276,1
3,55,109,157,1
213,89,155,82,1
142,114,276,246,1
86,285,314,45,1
84,278,201,108,1
62,140,301,193,1
107,297,445,608,1
61,78,407,724,1
273,415,368,547,1
143,193,912,853,1
113,270,12,308,1
120,145,14,97,1
109,91,83,87,1
129,141,479,178,1
505,601,294,364,1
86,116,50,146,1
83,123,211,134,1
63,151,165,213,1
170,157,39,0,1
64,75,31,0,1
75,131,218,254,1
176,199,118,49,1
73,14,83,423,1
39,40,142,931,1
302,303,18,22,1
14,167,116,104,1
35,27,364,258,1
164,158,542,600,1
110,103,144,70,1
142,206,563,317,1
234,220,221,155,1
13,107,101,0,1
0,59,366,268,1
67,53,79,46,1
10,44,826,699,1
73,145,115,34,1
40,20,355,75,1
76,96,312,588,1
117,139,310,236,1
158,89,167,132,1
70,14,200,85,1
156,254,72,218,1
41,13,26,100,1
21,52,162,50,1
30,118,81,16,1
59,41,290,167,1
40,55,3,25,1
18,31,93,3,1
33,16,6,0,1
0,42,297,125,1
56,104,22,30,1
171,164,207,28,1
137,339,58,15,1
52,54,27,249,1
65,296,94,25,1
99,239,184,148,1
78,108,208,263,1
91,10,61,226,1
2,88,101,315,1
10,163,102,107,1
89,222,84,26,1
89,66,351,297,1
47,77,206,243,1
152,155,78,125,1
11,9,42,115,1
1,43,211,74,1
54,6,166,275,1
7,31,80,52,1
115,124,27,97,1
18,9,64,122,1
104,124,74,87,1
49,13,56,97,1
35,195,49,31,1
8,169,11,234,1
44,83,237,232,1
78,157,108,149,1
125,140,31,60,1
133,126,104,81,1
100,118,95,62,1
168,73,15,27,1
2,178,247,303,1
86,85,55,55,1
8,59,144,72,1
109,87,14,236,1
14,347,59,202,1
39,164,378,317,1
4,8,40,48,1
29,145,46,4,1
14,72,224,125,1
6,6,243,246,1
19,91,7,86,1
29,140,41,57,1
172,230,149,146,1
106,184,141,3,1
196,280,13,6,1
184,256,45,5,1
28,12,102,37,1
85,127,12,0,1
57,168,82,55,1
45,65,25,92,1
58,106,59,32,1
34,169,25,44,1
0,13,113,218,1
67,215,3,71,1
48,75,306,181,1
75,73,29,107,1
118,168,116,122,1
38,21,215,19,1
1,19,146,18,1
127,325,89,27,1
162,111,199,50,1
235,299,436,62,1
134,232,74,287,1
112,132,422,369,1
167,284,230,391,1
87,8,519,501,1
488,512,52,161,1
220,299,127,30,1
26,38,464,458,1
152,35,224,0,1
6,9,589,230,1
43,19,139,372,1
85,123,225,462,1
96,78,21,12,1
98,34,549,479,1
1,59,89,28,1
222,102,621,395,1
244,420,38,331,1
14,65,351,327,1
22,12,239,222,1
170,84,221,211,1
206,12,243,274,1
263,174,79,201,1
21,106,454,290,1
282,202,358,451,1
89,102,42,5,1
180,117,732,539,1
1,161,161,57,1
92,10,420,337,1
327,307,754,578,1
51,450,484,536,1
60,205,2,276,1
161,100,605,340,1
145,22,440,547,1
137,55,174,206,1
413,105,238,100,1
291,391,40,738,1
700,626,258,286,1
301,24,60,0,1
19,66,102,258,1
89,176,367,353,1
168,277,695,308,1
94,228,369,440,1
97,47,451,277,1
35,175,48,1023,1
35,367,981,886,1
283,235,455,1023,1
83,386,30,798,1
456,513,648,631,1
89,30,785,372,1
220,282,1023,1023,1
240,548,1019,247,1
549,463,114,947,1
104,507,542,445,1
453,552,1023,101,1
343,19,648,902,1
81,138,893,425,1
743,539,356,243,1
806,615,304,559,1
508,228,1006,705,1
450,287,554,749,1
7,20,633,301,1
285,68,511,579,1
213,54,974,660,1
135,96,269,251,1
228,64,23,21,1
187,151,936,366,1
550,20,336,876,1
31,25,1023,1023,1
28,23,406,903,1
67,53,113,18,1
9,16,39,168,1
111,291,908,503,1
100,226,62,279,1
292,69,354,333,1
40,301,84,829,1
114,250,603,45,1
341,390,302,94,1
286,39,203,445,1
12,205,266,178,1
172,217,17,876,1
771,78,47,326,1
267,165,142,199,1
213,33,129,375,1
204,39,131,711,1
82,133,656,44,1
334,18,199,783,1
147,117,659,830,1
17,311,676,38,1
53,66,1023,879,1
284,165,224,223,1
257,261,706,495,1
33,95,1023,373,1
304,271,465,265,1
245,264,563,70,1
133,196,300,204,1
517,580,624,75,1
170,589,1023,1023,1
189,22,1023,1023,1
172,199,125,341,1
67,244,835,39,1
98,209,853,762,1
340,569,1023,1023,1
18,272,267,860,1
63,166,1023,1023,1
275,91,1023,1003,1
436,42,461,369,1
405,22,1023,816,1
385,21,250,10,1
544,406,1023,649,1
1,224,936,1023,1
99,228,976,61,1
43,49,27,0,1
229,223,1023,1023,1
172,243,316,1023,1
151,64,1023,1023,1
81,245,1023,1023,1
438,270,516,728,1
1,173,693,298,1
27,254,490,87,1
6,14,1023,1023,1
159,110,278,482,1
198,200,1023,1023,1
66,118,792,263,1
17,51,513,1023,1
30,10,1023,1023,1
63,17,814,614,1
155,238,363,138,1
203,112,709,546,1
86,383,1023,313,1
174,73,825,828,1
10,126,972,742,1
75,75,117,635,1
213,455,117,810,1
51,157,188,516,1
131,420,1017,1023,1
307,311,932,67,1
326,508,1023,1023,1
169,308,1023,749,1
160,265,573,257,1
113,258,493,712,1
195,28,522,6,1
183,204,287,201,1
259,86,1023,887,1
150,91,1023,1023,1
68,11,1023,1023,1
153,44,1023,567,1
258,167,36,126,1
112,16,1023,710,1
8,211,309,47,1
378,345,482,496,1
27,86,82,493,1
242,305,239,209,1
181,193,22,237,1
288,188,335,14,1
259,237,132,189,1
60,65,254,270,1
19,34,722,633,1
93,81,405,175,1
172,176,85,91,1
22,10,222,300,1
191,273,169,25,1
166,190,140,73,1
655,535,82,77,1
410,297,142,138,1
23,25,171,170,1
38,22,5,90,1
9,129,107,342,1
115,53,220,885,1
8,71,292,82,1
27,138,672,484,1
207,222,180,250,1
65,237,247,74,1
268,324,425,174,1
425,344,254,279,1
78,28,622,278,1
3,39,382,281,1
77,94,608,309,1
165,162,630,205,1
186,235,117,331,1
152,206,137,277,1
174,66,499,134,1
18,161,151,321,1
83,189,841,658,1
72,147,608,381,1
77,13,352,173,1
45,51,1023,1023,1
33,52,390,207,1
122,112,524,514,1
32,53,162,69,1
12,125,243,3,1
63,33,290,55,1
157,275,262,295,1
12,14,338,128,1
72,162,86,161,1
61,15,118,173,1
132,114,308,156,1
83,37,20,119,1
4,81,29,133,1
13,73,307,174,1
103,362,80,138,1
12,113,477,284,1
65,183,26,80,1
48,61,117,276,1
249,232,356,357,1
34,110,164,26,1
49,80,328,42,1
33,25,237,25,1
84,19,346,219,1
19,120,433,203,1
6,82,85,90,1
247,474,86,264,1
63,158,141,639,1
96,389,67,375,1
215,82,1,155,1
131,308,63,1,1
215,283,52,77,1
14,234,318,102,1
174,245,181,304,1
105,11,1023,714,1
13,141,274,182,1
64,31,752,674,1
267,289,669,538,1
189,100,24,139,1
90,22,131,260,1
219,77,117,435,1
62,234,52,101,1
407,440,444,224,1
13,71,200,467,1
69,167,67,23,1
51,51,384,424,1
3,46,167,29,1
12,67,269,63,1
38,91,434,305,1
127,186,115,2,1
197,76,184,47,1
59,30,330,415,1
136,87,290,57,1
65,156,65,765,1
447,452,840,864,1
116,125,496,327,1
304,223,326,713,1
151,5,97,259,1
360,90,41,67,1
152,297,180,211,1
181,191,25,112,1
101,90,84,142,1
171,313,164,7,1
184,142,217,282,1
7,167,207,417,1
149,340,315,177,1
366,375,226,92,1
171,200,224,294,1
282,117,294,616,1
54,140,922,1023,1
194,378,216,66,1
354,342,264,346,1
18,209,204,263,1
147,139,441,412,1
301,378,221,355,1
75,238,592,472,1
6,109,160,115,1
119,251,490,614,1
108,201,490,83,1
210,284,191,31,1
27,107,608,218,1
106,20,193,266,1
227,281,614,230,1
93,310,436,338,1
127,211,372,43,1
310,232,319,60,1
87,254,137,14,1
24,106,199,41,1
15,41,193,200,1
114,145,121,41,1
103,57,124,229,1
180,26,44,156,1
155,142,64,0,1
166,152,119,89,1
226,151,82,184,1
5,26,157,83,1
62,11,121,105,1
64,174,527,536,1
5,31,126,345,1
220,316,196,259,1
116,145,39,120,1
20,31,123,298,1
47,29,83,443,1
257,398,477,500,1
77,51,62,156,1
49,367,264,467,1
65,16,401,118,1
154,308,177,49,1
143,184,708,413,1
42,7,242,243,1
11,25,259,303,1
30,156,160,93,1
25,27,153,5,1
224,328,251,371,1
78,176,227,15,1
67,95,93,0,1
100,158,208,159,1
29,76,125,9,1
148,137,257,75,1
378,320,364,104,1
92,183,139,7,1
188,152,127,1,1
22,50,235,274,1
31,82,18,3,1
40,160,229,242,1
78,6,9,0,1
41,228,519,490,1
39,75,79,250,1
19,129,270,514,1
10,113,331,389,1
101,516,193,101,1
60,215,163,149,1
2,245,494,498,1
44,58,395,334,1
75,57,301,4,1
62,179,327,319,1
45,40,71,223,1
158,216,41,6,1
2,58,137,144,1
45,138,30,0,1
15,15,381,358,1
24,109,388,228,1
82,99,77,94,1
38,139,422,515,1
113,20,140,290,1
143,126,150,200,1
72,24,241,83,1
50,144,142,136,1
24,74,30,113,1
25,19,522,387,1
105,34,75,0,1
72,124,148,17,1
54,59,196,135,1
161,99,50,15,1
90,35,384,268,1
112,130,6,161,1
66,61,153,105,1
113,7,247,59,1
86,192,53,81,1
34,150,272,176,1
49,85,1,96,1
317,325,68,183,1
106,183,28,239,1
33,133,102,283,1
61,87,99,0,1
158,252,29,34,1
2,8,94,60,1
27,110,198,111,1
31,21,35,0,1
21,50,9,45,1
67,98,495,355,1
13,24,277,400,1
148,75,187,134,1
79,127,544,927,1
95,47,209,5,1
86,166,203,118,1
63,108,119,321,1
60,85,146,156,1
6,43,25,0,1
117,167,191,192,1
119,40,11,201,1
38,82,315,288,1
42,69,140,37,1
161,175,425,464,1
2,138,44,129,1
17,26,76,345,1
222,387,224,108,1
84,194,13,33,1
31,27,239,543,1
97,161,16,103,1
24,175,15,56,1
71,18,191,111,1
26,42,513,552,1
104,163,496,305,1
15,73,26,0,1
138,150,409,20,1
178,150,334,365,1
151,49,4,194,1
167,101,209,248,1
74,38,154,530,1
133,35,552,334,1
163,297,285,229,1
112,187,267,508,1
192,97,626,402,1
24,59,274,80,1
12,108,250,316,1
25,31,266,104,1
21,47,155,724,1
112,39,345,157,1
39,41,454,573,1
56,74,490,670,1
19,14,907,830,1
63,16,682,237,1
78,267,328,43,1
9,145,163,150,1
98,199,126,3,1
35,38,459,411,1
36,135,437,350,1
14,51,447,189,1
78,39,164,300,1
163,75,262,267,1
113,10,375,507,1
296,253,630,774,1
24,47,1023,1023,1
248,182,521,121,1
90,95,474,347,1
50,74,461,737,1
208,207,176,623,1
15,233,316,395,1
168,84,603,936,1
45,43,41,286,1
2,125,203,37,1
86,152,236,713,1
82,319,426,58,1
163,161,440,160,1
59,67,186,227,1
278,191,88,208,1
392,230,344,330,1
126,155,281,204,1
15,119,124,261,1
71,255,10,258,1
168,64,629,737,1
17,78,64,373,1
56,169,216,185,1
150,60,293,56,1
518,360,282,805,1
535,54,8,26,1
75,21,161,0,1
282,453,289,120,1
174,39,1023,1023,1
287,421,939,778,1
305,303,1023,1023,1
145,220,198,468,1
431,481,249,843,1
394,370,1009,893,1
311,189,313,343,1
9,120,31,25,1
89,45,131,507,1
204,172,494,200,1
265,394,134,7,1
271,56,22,391,1
54,498,8,751,1
337,395,121,136,1
267,507,712,1023,1
104,161,918,381,1
163,21,1023,1023,1
89,210,691,1023,1
63,156,604,1023,1
165,672,525,638,1
302,373,1023,15,1
36,260,753,1023,1
172,332,995,1023,1
45,131,975,1023,1
177,130,493,992,1
267,39,1023,1023,1
589,121,729,1023,1
436,853,766,230,1
72,514,549,192,1
560,514,93,1023,1
34,235,270,129,1
41,349,189,210,1
404,284,1023,1023,1
30,242,287,1023,1
332,45,1023,565,1
472,106,469,165,1
90,105,987,1023,1
643,383,554,81,1
210,81,302,1023,1
99,85,1023,1023,1
254,235,106,54,1
91,363,1023,1023,1
20,86,387,245,1
42,16,899,1023,1
37,182,548,1023,1
140,160,309,299,1
187,267,901,147,1
57,81,543,87,1
85,177,1011,843,1
93,205,1023,1023,1
860,592,750,709,1
724,369,701,1023,1
223,15,1023,1023,1
167,238,1023,1023,1
102,75,201,608,1
240,402,1023,1023,1
70,164,836,282,1
723,371,1023,1023,1
96,157,1023,634,1
569,433,878,87,1
154,391,872,1023,1
284,162,930,375,1
141,45,124,105,1
8,124,837,1023,1
90,74,1023,525,1
43,243,22,936,1
289,392,617,301,1
6,203,934,40,1
444,105,70,994,1
41,85,34,914,1
116,435,203,549,1
168,163,579,1023,1
279,409,1023,1023,1
307,775,1023,1023,1
239,748,852,1023,1
144,223,1023,988,1
164,210,661,766,1
198,199,322,156,1
176,127,1023,1023,1
241,208,311,244,1
244,101,1023,1023,1
235,29,876,333,1
232,25,558,550,1
69,59,322,82,1
12,149,832,236,1
226,180,474,533,1
180,48,1023,490,1
61,59,385,800,1
215,407,383,817,1
204,147,174,224,1
40,355,10,499,1
118,68,670,619,1
179,200,654,373,1
123,240,607,706,1
43,11,414,515,1
124,35,382,448,1
109,259,600,594,1
258,291,456,411,1
46,26,169,68,1
106,124,326,637,1
321,327,232,25,1
42,47,35,262,1
46,19,434,541,1
101,12,448,81,1
112,36,433,135,1
224,311,109,168,1
212,15,532,981,1
283,343,423,138,1
97,273,759,1012,1
133,199,506,201,1
19,157,523,39,1
219,299,103,185,1
68,53,7,64,1
73,57,345,114,1
150,169,230,254,1
126,114,412,246,1
221,78,541,174,1
77,72,164,26,1
21,104,206,41,1
162,93,31,129,1
65,155,432,425,1
296,158,8,83,1
78,20,521,268,1
100,50,813,779,1
160,178,683,202,1
250,259,388,764,1
15,53,318,232,1
14,27,203,268,1
111,74,95,226,1
301,238,237,316,1
40,53,293,283,1
308,338,24,85,1
5,60,278,223,1
166,199,468,439,1
119,30,163,36,1
16,126,34,133,1
75,138,81,147,1
205,43,111,84,1
49,127,432,432,1
196,198,271,94,1
122,157,202,64,1
220,97,404,299,1
6,194,349,205,1
69,88,109,79,1
120,7,129,274,1
4,58,470,298,1
134,161,627,242,1
42,4,1023,1022,1
61,180,275,147,1
15,451,386,444,1
20,67,213,535,1
104,328,278,734,1
189,294,121,369,1
217,332,61,130,1
94,269,194,39,1
103,75,91,92,1
201,206,256,134,1
132,186,226,255,1
77,193,200,151,1
234,104,530,431,1
13,134,89,7,1
136,19,37,97,1
69,262,505,598,1
28,39,680,819,1
170,383,79,57,1
2,27,93,305,1
410,99,312,522,1
37,179,162,423,1
304,414,159,49,1
112,209,322,158,1
126,201,3,269,1
95,95,552,218,1
93,107,242,0,1
173,237,583,496,1
161,180,578,338,1
14,40,79,21,1
119,335,489,1023,1
24,313,766,919,1
35,187,8,161,1
277,460,349,44,1
27,324,168,321,1
258,58,88,89,1
385,64,329,382,1
73,36,417,314,1
178,56,331,194,1
246,252,81,37,1
101,159,73,254,1
183,111,415,0,1
11,161,162,726,1
105,41,889,1023,1
223,207,372,248,1
283,517,73,252,1
175,23,144,15,1
21,427,55,137,1
201,536,333,112,1
382,265,32,329,1
30,352,92,315,1
94,165,451,494,1
66,104,704,509,1
187,223,165,74,1
194,62,33,50,1
20,31,19,186,1
48,37,160,26,1
16,44,77,45,1
128,309,404,221,1
67,33,65,13,1
206,339,33,43,1
363,661,15,355,1
86,177,326,1023,1
484,640,75,51,1
90,193,752,551,1
99,289,328,320,1
483,566,47,0,1
12,68,78,203,1
105,128,28,2,1
212,216,194,12,1
84,177,439,162,1
31,257,286,128,1
9,289,169,32,1
52,111,109,53,1
87,246,243,373,1
159,87,29,84,1
28,12,227,471,1
33,307,973,604,1
143,133,724,81,1
110,7,991,937,1
36,232,493,164,1
95,16,479,456,1
149,284,428,226,1
8,23,439,351,1
80,95,153,21,1
81,99,35,61,1
94,22,68,54,1
104,57,148,166,1
280,387,133,304,1
36,123,157,21,1
253,343,556,741,1
187,459,107,54,1
23,19,737,464,1
34,61,467,606,1
90,28,475,525,1
122,17,577,541,1
61,117,435,329,1
66,17,263,298,1
28,24,88,333,1
0,47,233,137,1
89,139,185,196,1
138,276,375,88,1
312,84,34,203,1
26,194,552,393,1
98,79,267,164,1
6,45,474,321,1
154,289,2,233,1
34,105,5,330,1
21,58,34,160,1
108,120,360,256,1
20,34,133,9,1
65,164,31,166,1
3,46,44,0,1
86,75,328,199,1
85,56,335,565,1
197,213,209,372,1
18,325,70,177,1
61,99,7,45,1
88,75,207,0,1
85,182,224,90,1
78,142,311,267,1
294,293,197,201,1
30,104,90,164,1
56,15,102,97,1
12,139,49,101,1
94,250,98,59,1
51,134,54,187,1
14,87,17,62,1
89,311,17,30,1
132,113,168,12,1
43,23,71,149,1
21,395,165,2,1
254,437,2,12,1
128,165,169,331,1
36,419,83,190,1
93,178,326,372,1
199,379,174,104,1
219,347,18,58,1
89,77,45,129,1
91,152,11,53,1
72,119,107,64,1
102,55,59,0,1
16,52,72,0,1
26,20,340,224,1
47,15,33,110,1
310,439,189,81,1
10,108,118,455,1
119,273,245,9,1
44,282,312,122,1
46,95,173,105,1
59,173,512,346,1
69,87,549,370,1
28,25,262,284,1
153,81,279,205,1
50,123,179,293,1
130,101,222,189,1
53,182,37,59,1
24,138,101,218,1
74,10,4,31,1
136,17,19,64,1
407,565,372,46,1
117,143,95,195,1
38,269,54,46,1
8,165,11,132,1
0,379,51,168,1
48,235,5,43,1
66,145,345,142,1
4,27,231,477,1
4,11,29,140,1
4,89,130,99,1
155,167,125,256,1
187,93,158,243,1
78,112,160,176,1
105,105,294,431,1
65,209,4,96,1
142,144,416,329,1
125,17,22,167,1
20,302,238,0,1
197,381,273,133,1
50,95,461,317,1
67,129,234,31,1
187,47,27,26,1
107,72,484,635,1
301,583,269,375,1
50,147,488,530,1
208,320,770,878,1
31,65,825,659,1
136,220,39,147,1
178,131,188,96,1
92,122,307,90,1
12,142,168,20,1
251,217,496,176,1
4,74,555,390,1
191,171,104,288,1
9,207,525,497,1
250,92,22,14,1
118,71,169,91,1
156,75,62,2,1
164,66,484,420,1
256,14,109,137,1
34,352,918,775,1
64,307,337,252,1
86,84,974,266,1
228,40,517,61,1
192,199,670,338,1
90,88,734,184,1
39,133,526,489,1
110,159,174,387,1
23,190,595,545,1
11,76,631,2,1
241,292,376,688,1
204,215,708,254,1
307,232,657,1023,1
424,287,618,84,1
263,87,1023,1023,1
195,117,656,409,1
145,90,619,518,1
6,114,701,775,1
3,127,468,150,1
200,51,320,256,1
164,5,263,419,1
341,90,911,0,1
69,29,111,136,1
419,473,920,1023,1
167,85,702,409,1
888,999,134,315,1
502,386,1023,233,1
30,297,411,732,1
35,67,627,486,1
385,141,202,52,1
371,223,91,60,1
537,48,344,33,1
142,185,481,1023,1
43,120,931,96,1
63,168,841,658,1
319,55,276,1023,1
303,153,545,1023,1
311,143,25,1023,1
366,53,968,820,1
271,128,750,1023,1
154,139,1005,908,1
17,215,971,1023,1
428,396,367,74,1
84,234,403,906,1
624,328,1023,978,1
287,61,94,407,1
179,93,1023,927,1
31,182,55,161,1
357,298,304,455,1
101,209,195,386,1
258,297,132,324,1
63,250,1023,1023,1
10,68,823,327,1
320,94,862,11,1
21,102,438,275,1
200,13,1023,104,1
536,380,129,1023,1
272,95,966,658,1
13,637,336,317,1
107,302,232,748,1
62,237,610,169,1
149,38,530,1023,1
300,467,655,1023,1
110,266,367,1023,1
45,262,161,1023,1
9,68,953,742,1
31,53,1023,1023,1
333,456,407,729,1
159,452,364,742,1
108,135,836,1023,1
334,50,1023,891,1
73,97,428,1023,1
223,59,1008,939,1
434,321,636,741,1
239,363,382,321,1
26,65,461,201,1
395,271,524,456,1
111,249,796,204,1
167,138,1023,602,1
36,237,838,564,1
597,389,1023,1023,1
514,35,193,847,1
466,231,1014,615,1
278,298,635,231,1
41,77,604,581,1
138,141,67,320,1
90,163,270,324,1
265,236,448,402,1
107,660,17,733,1
183,282,1011,16,1
538,230,344,390,1
82,71,944,755,1
404,642,1023,1023,1
20,126,571,1023,1
170,232,1023,1023,1
430,241,1023,1023,1
259,410,544,1023,1
188,105,1023,1023,1
21,214,1023,1013,1
92,388,317,460,1
100,277,1023,1023,1
89,74,591,912,1
105,267,113,105,1
61,63,224,513,1
21,153,579,1023,1
29,126,384,851,1
108,236,533,171,1
49,29,706,898,1
292,224,1023,1023,1
81,146,654,278,1
105,266,235,531,1
67,154,654,196,1
257,57,1023,753,1
14,106,33,198,1
84,323,1023,1023,1
89,183,1023,1023,1
384,788,418,330,1
296,581,1023,1023,1
84,230,243,122,1
118,238,46,172,1
158,298,1023,782,1
124,19,240,294,1
240,217,1023,1023,1
56,56,521,308,1
220,353,1023,1023,1
256,155,307,1023,1
238,329,547,494,1
91,201,1023,1023,1
123,247,322,436,1
36,139,1023,1023,1
116,258,677,492,1
259,215,1023,1023,1
4,189,517,475,1
479,434,952,636,1
26,102,689,69,1
241,167,514,270,1
121,23,115,128,1
133,131,460,435,1
46,120,651,564,1
156,39,303,194,1
84,9,550,212,1
103,133,91,99,1
296,336,235,432,1
335,278,842,1023,1
85,321,443,409,1
179,139,754,437,1
53,321,574,272,1
54,53,352,279,1
392,355,187,365,1
208,30,491,219,1
46,108,97,41,1
22,24,71,133,1
27,132,16,0,1
6,18,919,544,1
44,97,262,38,1
53,38,611,511,1
61,139,466,276,1
39,127,177,102,1
80,66,37,0,1
246,383,435,416,1
58,68,333,154,1
169,199,429,369,1
15,29,477,233,1
160,151,306,79,1
53,104,73,39,1
42,261,852,466,1
189,143,478,203,1
44,48,433,167,1
47,29,417,162,1
143,65,339,22,1
219,181,131,128,1
138,175,10,147,1
66,125,474,168,1
22,65,673,211,1
38,51,164,6,1
55,99,606,411,1
72,61,128,70,1
240,229,848,585,1
0,19,507,177,1
90,254,33,306,1
151,224,258,10,1
54,99,428,163,1
24,96,207,13,1
12,55,69,108,1
45,6,652,425,1
2,14,94,159,1
1,202,702,548,1
63,106,690,427,1
13,60,792,343,1
47,93,129,128,1
165,66,446,157,1
70,72,449,275,1
2,86,361,506,1
8,342,73,179,1
62,187,19,233,1
4,321,456,363,1
362,343,328,244,1
146,313,98,0,1
140,7,243,117,1
4,12,224,34,1
77,210,252,401,1
154,95,449,351,1
268,155,32,24,1
43,225,102,201,1
127,429,221,278,1
21,86,6,871,1
48,402,112,146,1
18,80,427,388,1
321,205,392,113,1
175,194,20,239,1
55,35,205,50,1
27,207,208,65,1
39,120,40,380,1
114,10,88,218,1
143,187,65,49,1
372,159,272,305,1
620,146,1023,752,1
472,338,737,439,1
416,159,75,561,1
418,234,181,353,1
160,626,228,1023,1
106,210,97,122,1
197,92,342,100,1
22,552,240,221,1
275,127,320,449,1
258,233,10,210,1
48,154,78,375,1
89,42,167,127,1
140,61,89,0,1
177,262,194,429,1
730,251,287,180,1
809,784,425,355,1
94,547,233,33,1
84,134,29,786,1
126,69,486,521,1
231,13,381,779,1
109,370,154,111,1
231,157,317,614,1
75,17,7,263,1
114,79,45,155,1
75,80,737,337,1
88,148,422,342,1
19,42,223,0,1
88,40,33,109,1
266,446,49,44,1
291,169,44,196,1
196,134,270,256,1
122,112,492,156,1
100,284,107,0,1
8,79,390,614,1
103,36,252,223,1
63,48,302,215,1
137,246,80,343,1
574,531,524,842,1
54,155,70,473,1
292,206,1023,1023,1
262,7,12,474,1
30,429,901,883,1
139,60,360,78,1
30,55,157,563,1
284,348,287,382,1
19,184,278,179,1
460,536,197,353,1
248,164,366,146,1
695,631,58,23,1
170,194,272,601,1
517,446,122,339,1
119,547,193,836,1
4,198,43,324,1
87,194,167,339,1
194,89,88,248,1
48,42,173,91,1
299,356,80,391,1
9,67,337,699,1
463,154,2,190,1
88,296,6,121,1
281,175,58,144,1
147,154,139,62,1
87,174,454,686,1
238,116,33,169,1
47,337,122,178,1
56,154,158,0,1
115,454,118,362,1
178,169,100,13,1
66,36,36,45,1
203,464,71,187,1
144,21,90,248,1
31,74,603,57,1
137,28,150,440,1
91,83,866,552,1
147,78,84,26,1
63,119,265,298,1
112,6,470,288,1
62,88,23,174,1
362,415,7,400,1
309,446,214,389,1
417,539,142,431,1
15,105,315,63,1
7,212,270,372,1
101,500,163,1,1
22,88,188,70,1
26,119,27,68,1
125,102,27,195,1
10,21,360,96,1
174,8,120,192,1
196,13,295,118,1
75,42,324,413,1
78,83,115,70,1
4,36,652,605,1
18,30,263,53,1
213,179,626,439,1
320,446,178,143,1
42,116,246,82,1
2,53,96,110,1
69,73,37,0,1
114,85,173,8,1
223,196,442,539,1
85,174,176,161,1
37,78,314,428,1
50,123,198,192,1
156,289,290,396,1
70,121,529,384,1
83,158,515,425,1
95,130,563,172,1
79,72,532,470,1
165,232,371,27,1
77,65,447,383,1
58,107,175,168,1
65,33,175,62,1
112,87,403,427,1
65,332,37,36,1
91,399,327,194,1
15,222,359,108,1
47,210,185,0,1
101,53,52,204,1
142,230,285,160,1
41,165,48,253,1
8,97,267,153,1
41,108,62,97,1
29,31,304,120,1
55,57,122,46,1
30,29,227,244,1
64,90,111,186,1
68,89,107,36,1
164,234,177,194,1
264,247,303,33,1
168,131,66,194,1
4,107,210,238,1
91,113,10,92,1
113,7,168,67,1
23,41,264,103,1
30,5,545,245,1
59,21,126,184,1
188,253,103,43,1
173,83,440,240,1
211,370,95,199,1
119,46,237,84,1
192,288,237,342,1
101,39,18,85,1
51,78,33,0,1
62,149,35,337,1
130,193,62,3,1
31,270,52,270,1
142,229,103,94,1
44,40,110,170,1
97,99,56,212,1
19,23,351,0,1
170,235,420,94,1
122,245,360,140,1
137,65,52,123,1
160,141,191,86,1
129,177,177,189,1
3,187,29,169,1
193,169,336,114,1
103,347,103,706,1
81,40,192,186,1
167,255,192,187,1
199,32,485,120,1
14,239,6,423,1
4,204,101,345,1
146,51,238,0,1
698,666,82,47,1
461,47,6,198,1
336,31,253,325,1
196,140,912,976,1
1,37,498,306,1
282,160,159,454,1
109,221,39,133,1
44,227,122,345,1
104,90,379,618,1
27,45,325,532,1
51,160,381,952,1
203,311,481,283,1
290,182,412,149,1
6,242,1023,1023,1
154,13,555,464,1
276,283,556,120,1
172,319,1023,200,1
278,378,1023,1023,1
48,215,1023,1023,1
65,215,1023,930,1
349,231,1018,836,1
31,26,373,452,1
4,203,351,500,1
76,263,107,582,1
276,111,732,11,1
34,43,705,215,1
28,263,457,547,1
363,132,313,694,1
286,53,1023,1023,1
238,226,304,327,1
170,143,507,505,1
542,299,1023,1023,1
71,177,1023,818,1
141,70,711,1023,1
42,298,226,212,1
66,204,1023,806,1
267,105,697,288,1
304,84,322,436,1
438,291,1023,1023,1
13,202,398,0,1
369,227,1023,236,1
240,147,1023,976,1
93,92,346,605,1
247,246,966,673,1
506,404,12,558,1
436,74,81,267,1
165,262,945,393,1
54,654,808,268,1
384,41,1023,1023,1
306,193,421,22,1
249,43,403,161,1
434,439,51,347,1
37,514,1023,1023,1
88,56,5,333,1
251,122,1023,1023,1
88,191,228,12,1
258,227,1023,385,1
39,313,147,1023,1
379,215,1023,1023,1
230,207,609,1023,1
140,369,206,99,1
193,281,28,1023,1
267,48,652,227,1
299,124,163,478,1
12,141,953,1023,1
630,456,473,421,1
107,188,1023,1023,1
521,506,564,1023,1
120,272,353,116,1
30,319,141,673,1
116,365,510,194,1
93,759,967,1023,1
245,99,275,226,1
480,35,1023,1023,1
392,255,197,1023,1
432,87,1023,1023,1
60,560,84,359,1
271,313,1023,1023,1
493,526,1023,746,1
3,12,1023,1023,1
664,108,954,441,1
473,261,505,329,1
26,229,197,236,1
42,61,572,306,1
316,458,303,640,1
253,45,144,44,1
507,73,91,538,1
86,445,579,552,1
592,532,541,835,1
34,246,285,1023,1
553,600,492,640,1
497,51,463,642,1
649,562,31,465,1
25,260,439,807,1
90,150,742,714,1
303,7,620,263,1
361,167,475,989,1
620,451,584,828,1
2,152,509,327,1
201,238,1023,1023,1
324,242,602,523,1
227,223,954,547,1
145,210,1023,1023,1
22,182,1023,578,1
198,203,721,819,1
307,138,382,331,1
431,428,671,15,1
6,25,1023,1023,1
308,417,1023,1023,1
221,73,1023,756,1
116,348,1023,720,1
221,273,1023,1023,1
303,94,655,1023,1
78,71,144,383,1
569,492,701,527,1
81,62,282,336,1
582,346,550,212,1
341,293,6,105,1
291,310,175,0,1
62,76,552,48,1
147,122,360,1023,1
165,393,1023,1023,1
60,197,1023,454,1
14,69,159,469,1
32,367,641,348,1
293,115,826,490,1
577,292,216,1023,1
108,207,584,488,1
27,158,501,42,1
34,87,55,0,1
218,262,900,562,1
191,147,656,191,1
36,39,929,822,1
73,167,523,586,1
7,72,685,742,1
293,365,478,274,1
12,11,796,458,1
151,14,203,111,1
142,15,337,378,1
41,44,33,19,1
2,293,1023,1007,1
98,368,140,358,1
265,288,894,738,1
45,149,451,248,1
335,170,469,122,1
92,117,104,275,1
40,21,394,384,1
35,116,1023,978,1
297,128,1023,468,1
425,254,435,709,1
75,17,548,712,1
171,197,291,104,1
22,21,367,135,1
242,286,264,9,1
92,119,30,40,1
55,310,632,292,1
226,253,201,47,1
469,882,239,111,1
6,277,601,395,1
148,28,458,335,1
58,174,313,304,1
98,146,717,559,1
8,126,771,332,1
223,167,39,230,1
180,15,408,429,1
98,118,316,339,1
31,46,840,512,1
100,164,560,193,1
79,59,105,137,1
20,72,479,320,1
24,29,36,174,1
84,79,83,168,1
63,15,467,350,1
2,126,501,403,1
87,203,242,31,1
79,31,98,107,1
23,166,27,83,1
25,231,710,346,1
135,86,210,291,1
103,262,714,310,1
95,150,361,139,1
87,131,80,113,1
202,139,252,27,1
1,10,18,137,1
117,85,365,98,1
17,157,504,216,1
19,8,128,129,1
351,387,640,473,1
377,267,1023,1023,1
140,125,117,386,1
34,280,720,371,1
145,158,275,627,1
76,50,14,309,1
26,230,204,371,1
66,23,232,171,1
231,113,344,46,1
43,93,73,139,1
69,56,681,415,1
130,115,217,433,1
194,236,107,533,1
127,88,1023,1023,1
150,107,380,449,1
9,384,416,454,1
107,28,62,45,1
1,125,185,16,1
28,75,11,43,1
83,504,98,278,1
139,365,387,287,1
77,116,437,198,1
23,40,382,105,1
276,114,230,84,1
519,367,96,0,1
43,82,185,1,1
53,335,15,112,1
129,35,350,540,1
54,62,363,883,1
230,233,216,14,1
255,181,262,2,1
112,61,549,1023,1
12,121,623,1023,1
39,95,164,300,1
395,20,180,144,1
468,73,267,35,1
92,180,294,47,1
33,10,21,28,1
394,205,1023,1023,1
229,191,1023,1000,1
200,362,128,81,1
130,158,269,505,1
178,1023,99,36,1
209,568,244,270,1
121,164,522,666,1
198,88,170,39,1
153,184,87,59,1
70,137,376,190,1
208,154,293,7,1
142,131,172,54,1
74,93,674,339,1
441,20,355,133,1
64,177,124,279,1
371,367,126,222,1
1,18,311,277,1
263,286,136,318,1
36,130,42,115,1
149,351,695,408,1
110,19,265,652,1
5,220,820,701,1
288,19,164,24,1
170,18,245,79,1
130,386,71,274,1
245,129,279,296,1
39,255,285,329,1
86,88,363,385,1
101,6,110,87,1
112,163,597,294,1
56,11,299,355,1
35,93,678,530,1
80,28,164,424,1
69,18,652,841,1
222,291,595,786,1
421,458,428,498,1
143,311,489,383,1
186,441,49,189,1
93,112,345,181,1
75,88,188,246,1
136,122,95,156,1
342,782,41,447,1
87,81,276,106,1
92,193,1023,622,1
360,476,449,197,1
307,287,670,758,1
151,204,285,224,1
85,100,534,584,1
46,84,197,187,1
104,15,212,461,1
18,81,91,61,1
76,72,130,277,1
339,348,43,112,1
99,194,118,343,1
121,138,316,372,1
10,480,200,346,1
106,455,57,40,1
29,75,22,0,1
44,208,176,203,1
113,515,367,277,1
64,23,610,641,1
178,97,766,461,1
255,235,4,210,1
167,118,449,102,1
132,113,35,57,1
4,162,46,0,1
22,15,114,379,1
91,116,38,5,1
9,118,21,41,1
68,504,463,270,1
127,82,103,178,1
134,79,370,221,1
227,91,544,507,1
20,50,642,404,1
46,35,119,118,1
14,40,442,215,1
27,167,191,6,1
19,15,4,24,1
126,45,106,141,1
82,53,176,282,1
134,191,152,183,1
123,275,230,346,1
22,35,189,426,1
89,116,352,276,1
51,103,44,183,1
19,8,86,143,1
134,57,817,644,1
286,352,113,195,1
259,249,156,333,1
3,83,146,264,1
140,113,250,92,1
131,184,99,107,1
92,85,65,18,1
136,152,216,78,1
82,124,92,143,1
57,100,98,254,1
235,529,208,129,1
238,520,155,61,1
211,254,266,66,1
24,83,320,266,1
271,491,179,27,1
82,24,211,105,1
23,226,203,282,1
118,129,583,172,1
114,17,385,18,1
39,96,414,317,1
11,14,20,142,1
57,33,253,612,1
37,26,235,93,1
211,159,175,0,1
50,27,32,161,1
114,223,293,208,1
335,497,19,11,1
13,34,194,197,1
250,312,82,107,1
103,77,1,82,1
12,17,149,9,1
0,10,243,384,1
119,304,169,384,1
62,130,327,215,1
39,49,384,508,1
32,8,49,316,1
63,160,499,546,1
4,85,562,798,1
53,119,698,447,1
103,41,765,542,1
33,256,282,122,1
77,125,699,844,1
89,286,270,502,1
1,199,151,304,1
48,31,1011,548,1
108,37,527,110,1
114,98,435,1,1
203,268,78,32,1
13,152,103,566,1
299,293,207,89,1
197,48,397,343,1
127,173,398,166,1
301,353,275,216,1
144,170,233,654,1
95,110,381,532,1
125,32,357,494,1
171,222,318,507,1
138,178,412,402,1
268,16,143,333,1
267,15,36,19,1
204,223,877,745,1
191,104,559,112,1
46,21,377,375,1
45,145,110,290,1
47,314,608,714,1
216,242,705,188,1
144,145,433,417,1
19,32,750,827,1
97,24,169,70,1
116,29,367,319,1
56,217,9,393,1
236,226,237,66,1
539,627,353,53,1
191,150,70,1023,1
182,218,609,1023,1
377,295,46,58,1
28,35,1023,1023,1
123,54,171,364,1
0,203,1023,1023,1
352,283,116,257,1
223,12,1023,1005,1
498,172,1023,512,1
120,260,502,189,1
479,89,509,219,1
206,329,578,708,1
97,540,263,602,1
227,436,378,417,1
282,359,175,497,1
67,11,197,261,1
341,63,287,62,1
705,43,326,403,1
8,287,143,42,1
195,228,132,280,1
90,174,340,801,1
28,166,472,503,1
173,89,254,709,1
319,385,754,25,1
252,135,310,731,1
302,60,569,638,1
530,200,824,123,1
985,176,260,75,1
111,213,901,386,1
435,248,41,599,1
535,326,44,717,1
13,53,9,8,1
172,120,633,471,1
158,99,686,825,1
271,165,1023,1023,1
274,475,135,331,1
513,167,185,232,1
466,613,396,368,1
103,128,727,386,1
505,341,75,684,1
72,427,411,463,1
216,303,108,353,1
265,196,229,130,1
14,38,325,481,1
258,226,257,823,1
868,650,958,1023,1
395,236,474,394,1
33,155,843,1023,1
347,26,534,182,1
231,274,16,1023,1
322,133,27,645,1
112,24,231,539,1
308,81,209,72,1
60,122,462,1023,1
485,123,770,970,1
96,290,60,364,1
196,224,421,267,1
427,160,870,532,1
8,79,210,38,1
347,331,103,42,1
123,97,1023,1023,1
71,151,629,191,1
320,635,1023,1023,1
116,651,617,244,1
353,196,26,636,1
286,65,1023,779,1
440,318,788,488,1
565,505,466,82,1
75,215,508,262,1
285,354,10,852,1
13,33,435,868,1
273,74,1023,1023,1
190,14,54,10,1
362,273,967,72,1
25,24,92,205,1
176,133,1023,961,1
138,16,366,511,1
211,350,1023,1023,1
240,271,264,439,1
225,315,693,446,1
92,312,850,987,1
305,37,273,931,1
195,61,752,1023,1
301,59,907,1023,1
2,131,357,153,1
45,53,720,407,1
109,27,793,902,1
633,54,994,55,1
65,75,38,399,1
361,187,542,152,1
387,46,485,813,1
40,150,9,236,1
555,782,56,528,1
456,88,159,810,1
32,153,8,1023,1
510,9,919,624,1
546,83,1023,650,1
46,430,86,71,1
269,225,1023,1023,1
154,46,1023,1023,1
91,160,1023,1023,1
34,35,308,927,1
316,122,1023,1023,1
90,106,1023,826,1
696,372,1023,1023,1
77,148,988,1021,1
261,366,869,178,1
91,99,496,731,1
188,177,138,220,1
65,20,1023,1023,1
36,354,680,496,1
374,374,1023,1023,1
14,282,1023,622,1
197,27,529,59,1
176,81,498,118,1
810,223,1023,1023,1
357,215,1023,1023,1
43,151,39,569,1
48,361,1023,880,1
4,71,151,118,1
181,38,456,321,1
194,325,903,728,1
119,206,1003,269,1
255,823,100,21,1
49,396,33,111,1
90,44,292,127,1
99,135,602,849,1
104,24,126,189,1
70,240,10,617,1
33,70,255,92,1
224,72,388,304,1
351,149,165,547,1
471,454,552,799,1
47,87,857,527,1
260,215,426,0,1
246,65,943,694,1
17,148,802,531,1
80,49,706,768,1
248,153,1023,1023,1
9,155,170,237,1
164,267,1023,561,1
12,12,178,248,1
137,183,129,13,1
170,78,66,106,1
438,340,129,131,1
121,242,27,1,1
166,85,127,147,1
261,218,162,98,1
193,187,97,116,1
2,60,287,348,1
118,20,234,263,1
110,254,427,437,1
63,151,148,104,1
30,176,597,62,1
74,183,510,296,1
88,83,341,8,1
311,41,1023,447,1
39,175,886,459,1
204,223,170,319,1
28,28,586,397,1
188,142,953,627,1
234,145,556,529,1
6,17,1023,808,1
77,83,247,91,1
123,13,569,365,1
216,252,438,110,1
173,246,51,71,1
266,251,184,46,1
150,92,228,529,1
5,189,106,13,1
71,368,11,58,1
10,22,539,245,1
26,143,562,282,1
185,254,500,386,1
182,319,315,41,1
122,87,118,96,1
136,140,492,239,1
23,109,996,644,1
28,23,44,159,1
151,11,45,20,1
163,6,193,98,1
87,42,583,1023,1
183,298,765,1023,1
24,57,65,122,1
160,261,683,254,1
76,33,747,678,1
270,393,172,166,1
194,9,411,452,1
116,59,494,85,1
12,168,234,0,1
5,14,577,429,1
11,16,406,314,1
91,137,180,171,1
0,12,114,480,1
93,7,118,379,1
45,71,185,60,1
79,325,526,200,1
149,534,112,216,1
15,208,134,412,1
248,234,184,28,1
136,68,84,161,1
89,7,365,633,1
50,195,120,39,1
50,152,185,94,1
9,22,298,580,1
156,15,323,174,1
17,79,979,1023,1
201,46,501,0,1
157,151,581,691,1
92,198,512,641,1
11,175,281,55,1
82,241,494,651,1
76,165,166,23,1
427,482,827,914,1
15,74,669,638,1
9,131,493,217,1
38,72,140,113,1
50,30,89,72,1
143,185,467,300,1
18,75,91,84,1
102,65,660,318,1
120,11,196,256,1
134,105,686,534,1
89,191,199,420,1
59,215,863,743,1
124,193,275,444,1
67,204,593,669,1
319,590,61,374,1
87,150,179,986,1
164,83,189,65,1
10,103,642,413,1
309,431,165,33,1
57,109,301,0,1
0,170,43,196,1
11,40,162,409,1
79,140,328,307,1
52,176,90,152,1
93,25,33,210,1
8,71,15,332,1
4,79,66,0,1
20,150,171,32,1
32,34,377,85,1
134,148,228,257,1
29,23,499,107,1
56,25,133,169,1
76,190,192,119,1
12,175,147,2,1
36,353,333,133,1
3,25,300,209,1
191,460,820,576,1
260,139,170,189,1
14,52,996,293,1
111,123,44,196,1
161,298,821,71,1
47,131,21,429,1
76,27,371,353,1
78,242,469,784,1
23,268,118,153,1
38,136,155,386,1
35,175,413,703,1
248,972,840,701,1
147,381,609,791,1
253,561,584,477,1
146,183,349,670,1
204,276,331,0,1
109,75,117,155,1
106,58,566,411,1
1,6,54,149,1
139,173,228,85,1
62,115,252,274,1
316,314,129,24,1
122,118,38,238,1
364,44,32,55,1
354,532,164,129,1
30,19,181,75,1
222,108,43,92,1
1,320,283,517,1
64,238,249,540,1
115,104,170,25,1
126,21,547,470,1
1,157,71,213,1
68,90,391,346,1
261,396,127,493,1
235,202,34,221,1
161,51,443,418,1
105,76,14,525,1
121,290,213,214,1
173,462,358,610,1
29,110,410,224,1
22,144,523,280,1
10,157,714,427,1
209,212,281,0,1
85,189,13,84,1
111,302,39,133,1
11,500,380,358,1
253,386,174,102,1
71,42,204,386,1
220,336,121,170,1
25,83,102,147,1
44,129,462,370,1
239,288,21,590,1
20,224,434,502,1
260,188,143,136,1
122,107,65,44,1
23,22,65,77,1
1,13,9,39,1
24,66,492,140,1
41,170,54,217,1
71,37,240,90,1
146,190,53,7,1
210,163,158,65,1
33,77,306,201,1
110,216,396,78,1
231,265,413,466,1
13,213,534,77,1
67,94,328,266,1
6,25,318,181,1
267,288,453,285,1
149,166,824,294,1
81,99,10,144,1
101,107,586,74,1
45,83,541,311,1
90,21,447,222,2
112,11,185,105,2
0,82,97,19,2
6,198,107,134,2
56,38,47,102,2
16,10,277,170,2
156,119,252,58,2
5,78,202,336,2
133,119,149,480,2
30,51,64,200,2
196,353,272,211,2
43,15,531,247,2
55,91,160,281,2
22,106,205,37,2
44,70,54,78,2
157,156,28,100,2
7,28,4,155,2
466,552,9,77,2
6,271,630,655,2
3,28,91,60,2
35,145,173,270,2
89,177,78,437,2
118,238,139,0,2
72,103,143,125,2
185,228,81,240,2
50,104,405,441,2
35,30,28,99,2
281,130,171,0,2
476,302,268,237,2
105,13,96,6,2
79,43,383,580,2
9,191,527,340,2
63,282,978,556,2
299,724,672,777,2
226,61,432,347,2
191,134,299,303,2
52,72,626,563,2
187,89,11,141,2
94,70,420,2,2
48,154,277,175,2
43,174,51,16,2
7,34,20,306,2
24,67,334,265,2
192,278,34,115,2
252,230,504,643,2
130,314,196,191,2
312,156,360,181,2
7,52,711,1023,2
78,65,415,149,2
289,473,634,334,2
156,242,238,172,2
13,30,1023,934,2
599,141,299,781,2
149,559,678,831,2
301,618,842,1023,2
190,77,357,471,2
551,259,811,629,2
243,347,350,349,2
218,485,21,443,2
144,90,489,1023,2
168,199,289,121,2
167,383,502,25,2
478,10,22,343,2
408,84,665,323,2
317,487,65,12,2
47,183,143,21,2
272,368,1023,666,2
731,245,323,779,2
158,53,1023,1023,2
542,307,1022,5,2
3,266,1023,1023,2
63,155,97,295,2
71,324,857,826,2
262,354,489,278,2
74,290,703,1023,2
479,107,790,142,2
256,31,881,1023,2
139,15,358,353,2
146,228,173,261,2
68,88,712,931,2
283,359,678,280,2
285,337,802,1023,2
72,170,15,197,2
197,321,832,1023,2
466,553,339,1023,2
217,362,102,770,2
42,541,691,320,2
364,243,296,765,2
211,155,1023,1023,2
387,326,242,350,2
89,498,1023,1023,2
207,1021,70,237,2
111,347,1023,1023,2
319,532,370,578,2
118,27,930,1023,2
385,101,377,439,2
45,306,481,382,2
237,15,315,860,2
80,96,687,1023,2
8,11,474,280,2
83,185,170,285,2
141,278,1023,1023,2
309,369,1023,1023,2
180,346,462,358,2
117,524,232,107,2
325,638,116,961,2
145,265,320,129,2
111,202,777,191,2
10,236,1023,1023,2
290,552,180,904,2
126,458,1023,812,2
264,174,934,370,2
289,313,91,510,2
123,112,660,27,2
330,198,454,89,2
305,507,139,251,2
52,166,1023,1023,2
315,175,641,149,2
312,305,214,1023,2
743,407,1023,1023,2
392,76,1023,215,2
844,296,1023,1023,2
571,140,1023,1023,2
59,66,749,438,2
348,6,471,979,2
126,37,1023,1023,2
86,180,392,1023,2
162,27,1023,1023,2
225,313,575,483,2
437,256,1023,760,2
522,752,780,92,2
1023,685,527,272,2
727,269,1023,921,2
242,37,949,180,2
892,373,82,1023,2
27,217,1023,1023,2
545,192,337,16,2
42,100,700,907,2
327,369,284,314,2
515,492,435,102,2
1,194,243,315,2
95,261,1023,1023,2
65,141,463,794,2
548,207,1023,1023,2
255,147,357,416,2
62,118,578,776,2
39,528,641,758,2
244,43,302,191,2
3,102,74,367,2
117,19,179,388,2
67,110,138,346,2
312,160,545,299,2
151,74,256,248,2
38,252,558,327,2
43,590,561,974,2
178,50,82,451,2
320,557,703,42,2
41,309,152,59,2
835,189,681,75,2
277,59,1023,260,2
508,365,67,590,2
118,194,1023,744,2
226,280,852,172,2
256,555,582,1023,2
222,54,407,201,2
474,845,491,525,2
80,556,613,1023,2
184,87,562,616,2
399,459,565,61,2
317,586,764,776,2
392,414,240,186,2
43,171,420,743,2
336,275,795,748,2
127,328,872,945,2
155,16,157,376,2
209,359,147,280,2
19,293,752,497,2
135,204,325,9,2
382,328,990,1023,2
228,468,90,648,2
339,115,1023,1023,2
162,54,406,111,2
86,451,494,850,2
33,47,179,260,2
23,10,39,27,2
34,165,523,364,2
448,28,340,187,2
175,135,72,0,2
177,31,1023,978,2
80,30,1023,693,2
69,25,72,483,2
49,87,847,1023,2
50,175,393,194,2
41,122,635,698,2
39,106,399,354,2
63,184,104,64,2
63,105,273,515,2
239,105,328,392,2
220,190,14,87,2
91,9,242,78,2
16,123,414,124,2
420,183,236,133,2
171,172,13,139,2
12,14,918,391,2
70,61,530,122,2
250,277,1023,865,2
30,160,476,194,2
28,75,423,458,2
177,145,251,283,2
57,130,404,0,2
40,24,391,417,2
34,252,644,632,2
45,26,181,16,2
80,219,86,95,2
278,310,153,218,2
89,232,458,75,2
39,189,914,504,2
3,98,65,54,2
122,86,1023,739,2
191,163,806,298,2
56,114,91,142,2
50,141,561,426,2
27,138,157,0,2
25,39,169,85,2
134,160,189,211,2
43,86,269,386,2
70,32,816,589,2
59,73,849,629,2
145,192,213,391,2
438,151,374,142,2
21,20,1023,620,2
38,9,298,27,2
18,77,126,151,2
58,77,516,267,2
206,69,168,294,2
348,283,854,609,2
1,58,1019,640,2
306,349,743,364,2
38,17,607,454,2
176,151,51,187,2
212,66,170,161,2
467,176,352,77,2
377,336,57,192,2
23,530,307,283,2
242,447,607,534,2
7,88,274,21,2
255,293,1018,718,2
110,91,206,169,2
139,83,379,36,2
306,294,853,395,2
140,125,303,304,2
144,156,642,189,2
390,282,182,244,2
464,476,714,232,2
223,168,729,686,2
17,424,236,2,2
112,12,48,723,2
196,107,490,1023,2
159,173,476,681,2
8,229,641,473,2
203,42,609,596,2
203,204,110,219,2
146,144,283,194,2
80,67,61,174,2
161,109,54,365,2
48,205,257,153,2
105,43,60,181,2
122,508,145,37,2
163,148,41,91,2
120,232,678,372,2
233,433,585,482,2
293,450,51,0,2
0,151,357,470,2
71,42,882,762,2
9,89,436,399,2
17,23,339,301,2
61,79,457,291,2
283,390,44,207,2
72,94,488,447,2
256,15,19,156,2
80,27,133,267,2
134,129,316,153,2
14,101,382,34,2
88,10,182,94,2
33,20,766,217,2
250,231,433,996,2
43,121,38,736,2
64,374,377,332,2
7,537,79,418,2
275,72,548,343,2
138,206,352,512,2
123,383,612,395,2
47,19,259,0,2
17,268,284,360,2
32,45,329,300,2
61,186,1,91,2
320,406,263,319,2
154,316,262,155,2
38,479,196,658,2
3,228,80,226,2
93,850,775,774,2
1,311,61,371,2
225,32,1023,1023,2
246,79,224,74,2
0,20,158,455,2
43,43,469,333,2
94,138,111,352,2
23,16,515,380,2
173,175,335,0,2
189,166,796,593,2
218,6,194,230,2
123,87,277,395,2
94,283,431,201,2
169,367,512,479,2
154,95,438,48,2
143,153,253,386,2
128,443,681,434,2
319,349,391,529,2
61,155,62,12,2
325,414,685,761,2
21,37,362,347,2
9,44,190,619,2
97,95,694,348,2
184,297,13,39,2
11,9,746,790,2
2,101,194,31,2
65,127,313,91,2
160,254,357,476,2
69,93,278,777,2
19,242,191,291,2
198,289,33,35,2
7,85,280,350,2
220,333,5,38,2
92,234,310,632,2
309,356,183,507,2
147,108,224,275,2
93,106,36,220,2
47,83,37,35,2
115,179,3,137,2
34,79,77,104,2
42,226,459,251,2
172,110,14,250,2
370,448,20,180,2
28,34,78,132,2
391,660,187,701,2
101,179,166,37,2
241,358,376,267,2
293,675,164,87,2
191,151,524,181,2
199,307,373,59,2
132,237,3,274,2
137,179,129,125,2
22,95,656,306,2
161,158,89,118,2
94,336,360,41,2
72,36,533,267,2
209,404,577,548,2
14,219,258,105,2
277,289,305,0,2
159,409,540,864,2
183,41,199,64,2
329,259,319,113,2
230,388,115,37,2
6,235,354,156,2
85,40,483,73,2
121,156,618,589,2
14,84,359,0,2
100,190,121,266,2
93,9,297,205,2
104,250,275,163,2
13,145,49,13,2
4,44,257,117,2
21,5,254,277,2
81,107,69,165,2
46,211,156,11,2
69,301,49,143,2
62,159,881,569,2
204,165,142,200,2
293,261,792,793,2
9,144,305,214,2
151,68,568,304,2
16,52,162,343,2
17,13,131,101,2
28,24,236,311,2
53,6,262,134,2
158,152,709,787,2
14,78,99,17,2
54,223,328,53,2
111,199,212,526,2
73,151,564,66,2
180,231,54,107,2
20,72,73,61,2
54,21,476,183,2
12,5,250,129,2
45,25,209,273,2
83,28,489,201,2
306,227,526,626,2
60,11,922,852,2
165,144,661,640,2
136,52,116,4,2
87,19,755,921,2
223,26,112,193,2
254,137,263,990,2
247,241,285,91,2
135,399,350,585,2
690,74,819,507,2
220,125,365,130,2
180,91,661,206,2
241,219,126,9,2
69,107,14,6,2
409,249,80,130,2
234,412,64,315,2
21,106,830,730,2
47,236,157,428,2
438,216,546,330,2
2,141,289,887,2
256,41,228,302,2
88,47,88,233,2
125,81,14,791,2
147,17,138,34,2
389,497,310,136,2
113,83,360,240,2
7,9,595,659,2
111,51,921,439,2
344,28,500,319,2
284,53,59,364,2
31,637,447,23,2
192,358,125,950,2
99,43,312,472,2
303,544,251,426,2
174,204,378,859,2
157,229,338,884,2
170,41,1023,1023,2
128,213,283,146,2
750,241,430,208,2
619,302,32,1023,2
323,95,678,223,2
70,227,1023,1023,2
605,182,421,569,2
489,200,1023,1023,2
22,127,829,1023,2
564,301,330,793,2
157,93,214,701,2
179,47,764,261,2
455,250,676,1023,2
393,98,1023,1023,2
172,229,627,1023,2
63,247,165,469,2
594,485,87,1023,2
102,400,329,474,2
332,43,1023,1023,2
86,160,331,445,2
72,87,514,392,2
680,135,430,1023,2
364,180,397,999,2
23,49,150,431,2
477,143,1023,847,2
278,19,737,1023,2
430,367,1023,1023,2
3,157,458,813,2
201,443,1023,272,2
323,344,238,252,2
20,231,772,783,2
844,451,490,520,2
39,82,278,63,2
316,131,1023,546,2
154,27,844,159,2
400,10,502,1023,2
295,81,165,203,2
177,223,171,551,2
250,198,311,148,2
577,240,832,930,2
447,214,764,1023,2
331,47,218,161,2
440,923,1012,67,2
110,102,250,697,2
6,802,445,1023,2
36,608,476,682,2
252,250,1023,789,2
439,509,1023,281,2
282,209,1023,839,2
7,291,1023,1023,2
375,112,855,604,2
200,221,1023,1023,2
412,85,883,1023,2
113,37,330,322,2
137,729,1009,322,2
69,735,316,1023,2
213,770,314,25,2
84,181,26,80,2
437,197,45,77,2
710,301,428,241,2
35,169,51,359,2
137,211,363,210,2
241,10,7,430,2
399,398,516,366,2
183,311,396,575,2
361,250,888,706,2
133,52,1003,331,2
520,262,1023,1000,2
546,350,1023,1023,2
290,252,1023,1023,2
182,453,1023,1023,2
86,591,1023,973,2
445,446,1023,1023,2
52,344,591,1023,2
142,280,1023,855,2
180,46,60,586,2
145,138,876,912,2
667,40,462,465,2
400,78,70,260,2
286,313,548,853,2
591,232,204,66,2
349,106,156,310,2
46,337,421,122,2
351,590,1023,759,2
177,76,267,25,2
167,597,1023,1023,2
269,145,1023,775,2
426,21,936,529,2
178,254,90,270,2
104,250,299,432,2
282,79,1023,1023,2
267,381,430,789,2
419,117,1023,1023,2
62,134,778,500,2
126,462,520,2,2
30,79,1023,653,2
38,139,702,651,2
99,264,30,130,2
386,137,187,208,2
226,368,76,1013,2
319,281,607,557,2
193,257,912,1023,2
229,628,95,73,2
122,328,611,1023,2
452,141,1023,745,2
231,325,389,269,2
173,166,315,472,2
279,231,239,382,2
330,175,653,98,2
3,114,1023,329,2
242,8,202,430,2
173,157,1023,951,2
203,165,1023,1023,2
49,97,107,211,2
300,253,1023,1023,2
16,31,1023,766,2
99,676,911,966,2
286,322,1023,833,2
209,36,411,549,2
47,66,1023,1023,2
101,465,277,10,2
90,106,533,515,2
217,27,792,657,2
265,199,140,77,2
118,34,45,257,2
26,11,35,14,2
2,88,796,501,2
85,32,144,375,2
34,76,188,335,2
35,71,968,757,2
226,263,40,76,2
368,424,1023,834,2
58,24,336,0,2
30,91,400,190,2
25,106,995,1023,2
38,204,395,228,2
19,257,1023,1023,2
1,93,698,696,2
128,96,368,340,2
16,68,133,125,2
16,12,102,293,2
439,351,224,226,2
0,180,210,237,2
116,271,265,284,2
65,41,96,184,2
80,18,37,81,2
3,195,166,239,2
27,205,588,428,2
118,341,366,211,2
45,21,685,403,2
169,20,591,328,2
134,320,790,650,2
149,73,1023,594,2
47,77,705,91,2
131,129,228,314,2
17,134,441,231,2
168,86,24,125,2
176,166,124,207,2
264,75,349,182,2
59,42,74,102,2
162,245,1023,457,2
486,190,441,244,2
589,260,1023,513,2
465,15,67,594,2
170,10,607,472,2
131,120,193,345,2
32,163,79,77,2
159,59,824,745,2
157,196,17,34,2
184,28,345,274,2
198,192,402,374,2
147,229,676,49,2
21,7,460,29,2
193,223,247,174,2
353,437,108,135,2
163,477,481,82,2
72,121,547,116,2
319,153,616,692,2
85,285,1023,1023,2
481,428,272,731,2
145,53,1023,825,2
202,35,171,177,2
326,23,565,396,2
446,129,941,701,2
81,101,566,54,2
198,63,85,122,2
160,249,345,217,2
2,125,8,71,2
211,45,379,192,2
19,319,1023,1023,2
283,322,31,69,2
197,501,441,518,2
214,14,465,836,2
164,153,436,110,2
81,298,217,42,2
200,169,663,411,2
147,44,266,230,2
176,279,366,694,2
189,391,252,284,2
43,12,327,183,2
178,6,215,294,2
211,138,198,303,2
92,137,367,661,2
43,100,1023,1023,2
317,81,781,798,2
234,149,329,222,2
131,150,372,316,2
173,149,106,263,2
36,153,649,380,2
244,412,287,398,2
362,73,211,43,2
197,22,310,434,2
148,10,711,419,2
308,364,367,311,2
366,269,528,257,2
160,86,670,453,2
351,191,467,278,2
181,117,611,452,2
171,123,13,120,2
209,167,379,243,2
6,101,796,501,2
33,344,813,670,2
23,71,1023,1023,2
439,394,1023,1023,2
113,87,1023,892,2
188,47,7,395,2
35,145,210,272,2
40,97,318,298,2
256,107,435,128,2
175,130,396,343,2
428,50,14,125,2
40,148,31,94,2
9,34,801,1023,2
75,30,245,189,2
59,382,417,1023,2
241,107,124,117,2
153,413,117,220,2
713,350,397,511,2
275,147,199,528,2
126,111,301,554,2
739,293,357,556,2
256,243,489,275,2
73,26,82,202,2
133,87,491,597,2
9,160,325,105,2
120,65,850,754,2
448,275,240,447,2
238,29,685,530,2
154,341,181,0,2
241,172,190,166,2
142,11,47,85,2
45,30,79,102,2
194,408,542,622,2
299,59,390,411,2
210,92,589,634,2
15,16,180,147,2
27,106,300,0,2
88,149,268,253,2
175,266,8,237,2
83,9,10,132,2
204,199,71,597,2
49,215,390,297,2
239,249,233,289,2
99,122,242,547,2
131,251,351,27,2
214,278,347,661,2
80,280,186,145,2
68,175,496,239,2
44,213,383,313,2
182,307,596,167,2
197,347,809,865,2
290,458,513,209,2
121,163,340,393,2
26,24,60,67,2
15,10,236,365,2
262,159,85,0,2
11,130,85,16,2
83,95,54,125,2
51,133,2,267,2
326,247,637,492,2
235,29,161,269,2
145,199,808,635,2
117,57,1000,1023,2
31,11,442,324,2
46,16,380,348,2
91,111,163,180,2
83,16,418,307,2
14,65,359,181,2
31,85,768,616,2
6,11,245,2,2
238,417,352,533,2
123,146,414,551,2
215,227,617,381,2
13,183,9,144,2
64,47,340,218,2
17,51,153,221,2
62,30,100,167,2
92,108,168,30,2
205,268,20,0,2
30,45,66,11,2
131,6,30,19,2
1,6,80,15,2
91,151,43,32,2
229,281,78,351,2
80,17,116,76,2
29,106,71,143,2
100,97,46,2,2
63,23,146,70,2
9,35,255,157,2
1,231,261,57,2
25,221,74,94,2
86,71,79,35,2
78,10,410,128,2
101,20,95,27,2
136,226,614,291,2
100,328,435,298,2
55,71,670,515,2
120,117,790,416,2
33,106,988,950,2
3,74,206,173,2
141,80,674,533,2
43,79,317,541,2
106,25,525,423,2
51,268,145,443,2
31,123,49,280,2
99,108,94,229,2
105,57,49,372,2
2,135,190,337,2
54,63,206,221,2
49,55,243,130,2
3,53,50,0,2
133,275,13,194,2
179,51,638,387,2
109,26,27,258,2
227,256,611,94,2
390,394,460,484,2
40,18,653,361,2
145,47,17,7,2
23,72,432,277,2
93,216,739,682,2
149,6,1023,843,2
85,19,549,103,2
60,175,1023,1023,2
116,76,360,566,2
147,114,1023,987,2
6,123,708,804,2
308,299,882,299,2
47,12,982,325,2
262,36,341,137,2
71,7,158,546,2
283,305,307,718,2
67,112,893,980,2
493,240,335,1023,2
252,178,1023,1023,2
245,54,124,402,2
139,84,292,183,2
10,87,262,145,2
138,62,495,815,2
182,218,191,141,2
136,170,584,97,2
52,414,341,940,2
423,381,699,186,2
80,296,204,543,2
364,308,758,451,2
15,342,49,836,2
73,67,63,283,2
326,305,776,1023,2
577,79,262,686,2
100,31,440,843,2
365,347,396,513,2
61,230,1023,909,2
113,53,517,185,2
193,201,1023,531,2
74,125,540,112,2
77,310,1023,1023,2
611,191,535,258,2
366,305,1023,345,2
297,210,846,810,2
71,111,485,332,2
282,41,803,1023,2
49,263,228,476,2
186,221,409,107,2
46,12,404,535,2
176,20,117,26,2
273,57,344,958,2
46,89,998,1023,2
133,244,660,486,2
11,19,120,470,2
1009,107,474,915,2
130,165,898,1023,2
73,48,95,1023,2
208,91,723,75,2
14,135,205,423,2
319,242,917,1023,2
836,620,191,776,2
26,231,943,520,2
314,44,236,1023,2
387,181,520,766,2
181,906,876,181,2
109,69,315,262,2
903,43,461,321,2
231,282,490,1023,2
403,24,1023,1023,2
266,368,679,563,2
11,62,271,467,2
124,240,406,400,2
278,52,315,704,2
167,496,1023,502,2
267,180,326,406,2
619,732,1023,1023,2
356,421,1023,207,2
788,145,538,190,2
239,493,886,828,2
729,379,165,323,2
57,136,1023,1023,2
208,410,434,215,2
507,28,1023,119,2
25,67,197,41,2
341,528,505,754,2
7,59,1023,1023,2
136,34,203,846,2
32,33,1023,645,2
21,406,62,76,2
304,80,425,245,2
334,48,19,152,2
604,455,83,416,2
770,584,40,54,2
516,37,156,143,2
628,480,981,1023,2
97,14,186,131,2
511,21,817,785,2
86,187,61,16,2
384,254,1023,373,2
50,381,215,33,2
788,600,1023,420,2
170,286,521,836,2
215,163,1016,995,2
51,405,201,224,2
112,175,536,52,2
1023,193,107,341,2
701,72,672,216,2
481,367,5,9,2
214,454,627,349,2
510,122,930,1015,2
543,690,759,23,2
533,17,807,294,2
385,267,854,812,2
163,87,1023,374,2
227,338,787,1008,2
14,253,1023,895,2
880,1023,940,835,2
34,764,1023,1023,2
394,470,730,106,2
842,505,1023,160,2
107,182,998,1023,2
530,311,1010,1023,2
528,20,237,1023,2
697,253,1023,71,2
180,430,340,195,2
289,289,1023,956,2
6,123,904,1023,2
307,39,236,241,2
144,415,1005,702,2
83,94,393,310,2
84,115,957,1023,2
892,904,96,570,2
176,658,83,264,2
29,159,84,383,2
386,715,254,822,2
35,131,353,266,2
67,286,124,33,2
46,167,233,35,2
38,205,608,151,2
466,21,194,164,2
416,410,279,208,2
86,8,358,547,2
227,379,691,233,2
208,454,480,758,2
160,120,315,266,2
233,10,542,564,2
93,18,45,29,2
3,740,268,744,2
133,279,417,207,2
287,506,908,176,2
238,21,928,258,2
111,102,888,1011,2
144,69,1023,592,2
424,190,490,117,2
362,223,108,8,2
144,225,10,91,2
213,154,575,247,2
38,185,389,710,2
11,193,55,120,2
597,775,658,238,2
240,30,691,544,2
731,665,682,56,2
390,145,657,118,2
606,997,765,466,2
1,134,317,620,2
13,16,693,562,2
470,467,185,10,2
109,93,415,17,2
243,211,1023,869,2
119,62,40,17,2
327,226,1023,658,2
450,519,571,302,2
450,696,118,93,2
89,339,212,679,2
308,340,235,47,2
102,27,228,251,2
111,267,328,566,2
180,327,315,406,2
21,65,136,243,2
10,7,404,624,2
0,23,320,345,2
7,20,44,74,2
16,43,295,157,2
67,30,281,443,2
198,470,865,139,2
337,415,444,667,2
9,38,235,166,2
340,505,404,768,2
131,326,557,409,2
52,43,57,314,2
195,487,67,0,2
66,195,678,510,2
98,78,346,361,2
7,109,860,475,2
12,42,444,472,2
3,24,338,229,2
166,154,130,22,2
172,82,530,127,2
28,89,616,189,2
26,7,580,7,2
1,6,602,415,2
42,291,1023,685,2
31,14,316,227,2
438,243,447,785,2
126,138,655,641,2
23,44,28,215,2
185,178,562,186,2
140,88,486,504,2
205,348,227,0,2
87,239,211,0,2
123,204,138,0,2
31,56,10,43,2
125,111,488,330,2
313,222,441,451,2
236,19,202,159,2
5,212,43,411,2
83,464,399,30,2
67,65,443,709,2
6,247,643,658,2
22,85,19,10,2
102,387,3,284,2
118,177,9,98,2
337,436,971,452,2
114,69,838,575,2
107,265,175,212,2
103,79,735,280,2
33,20,115,103,2
22,81,899,661,2
172,57,259,96,2
183,46,517,542,2
32,195,18,115,2
152,418,192,419,2
46,345,114,364,2
223,114,591,1023,2
377,150,26,17,2
265,9,561,149,2
393,510,382,144,2
82,12,435,197,2
38,188,187,982,2
66,17,962,651,2
40,99,379,852,2
112,176,1023,1023,2
278,137,390,611,2
262,576,308,327,2
157,30,474,540,2
66,249,237,512,2
134,27,15,1023,2
61,27,193,258,2
338,163,452,278,2
203,358,445,20,2
295,328,1023,886,2
22,13,404,251,2
298,234,269,308,2
180,176,655,425,2
26,95,244,107,2
177,29,546,670,2
260,664,113,168,2
187,429,193,629,2
85,171,237,96,2
158,294,116,413,2
93,105,112,417,2
207,75,653,678,2
176,288,13,36,2
3,202,186,248,2
208,110,626,935,2
248,161,467,370,2
438,497,359,529,2
248,27,499,501,2
31,15,38,148,2
1,239,115,146,2
0,347,100,249,2
12,106,6,271,2
45,233,219,92,2
91,84,47,32,2
183,219,248,1023,2
34,174,671,437,2
247,303,85,40,2
228,55,815,700,2
158,328,170,231,2
78,10,79,364,2
128,157,167,501,2
499,496,123,261,2
16,472,684,566,2
28,207,380,51,2
389,314,368,402,2
435,396,525,500,2
37,64,51,164,2
264,178,470,636,2
27,46,119,307,2
79,21,264,407,2
132,93,305,201,2
122,37,392,210,2
156,129,340,155,2
85,49,537,179,2
225,190,515,163,2
293,314,437,58,2
148,14,236,546,2
384,214,373,353,2
175,17,26,92,2
97,326,349,127,2
166,171,70,50,2
186,113,92,177,2
148,68,364,422,2
56,10,203,270,2
26,60,428,500,2
181,393,1,234,2
99,68,170,492,2
273,118,252,386,2
23,213,257,528,2
161,39,529,742,2
181,417,197,142,2
448,393,97,170,2
3,21,463,193,2
252,128,129,49,2
35,84,415,118,2
32,174,45,292,2
67,56,71,126,2
11,31,530,771,2
196,229,10,281,2
243,376,506,668,2
7,20,40,257,2
414,268,57,191,2
316,148,6,0,2
46,184,238,285,2
50,119,87,89,2
218,240,283,141,2
115,204,53,35,2
17,237,799,917,2
23,24,174,185,2
110,75,1023,753,2
257,100,163,92,2
228,255,268,284,2
37,31,651,82,2
17,238,374,217,2
19,79,680,62,2
30,326,631,391,2
4,23,70,53,2
24,8,129,316,2
171,109,309,148,2
221,263,331,349,2
167,232,371,267,2
171,246,331,183,2
44,85,227,64,2
312,450,357,113,2
17,104,452,0,2
23,93,120,172,2
10,95,862,757,2
3,15,343,81,2
12,51,118,157,2
57,37,138,183,2
157,32,99,846,2
152,281,58,96,2
98,196,229,186,2
86,165,93,117,2
58,13,192,47,2
294,304,45,260,2
135,172,202,426,2
47,155,127,515,2
343,708,113,377,2
5,85,84,121,2
232,581,87,130,2
100,338,224,0,2
64,51,64,73,2
108,152,272,122,2
64,53,198,64,2
187,189,1,51,2
3,52,250,200,2
32,134,399,438,2
134,138,45,8,2
68,162,236,283,2
44,61,381,299,2
2,8,259,217,2
90,112,305,178,2
7,83,181,272,2
283,375,161,278,2
69,49,36,42,2
99,198,216,260,2
22,278,50,97,2
9,101,419,500,2
37,89,254,270,2
20,117,1023,727,2
39,176,149,271,2
120,102,925,622,2
89,185,722,743,2
1,26,646,474,2
67,13,472,245,2
36,21,122,97,2
32,14,69,3,2
190,20,414,215,2
156,34,126,62,2
297,220,37,193,2
46,13,281,18,2
237,119,324,347,2
64,63,187,369,2
150,164,313,309,2
141,140,10,165,2
73,8,242,778,2
37,104,148,174,2
122,148,126,4,2
10,110,24,32,2
12,10,7,23,2
37,333,259,94,2
60,237,387,215,2
259,91,737,547,2
299,294,78,83,2
142,213,435,871,2
89,207,309,196,2
164,217,219,115,2
124,23,13,1023,2
12,55,40,874,2
158,60,390,112,2
114,78,1023,1023,2
33,145,540,440,2
15,19,1023,940,2
179,258,631,1023,2
259,14,764,752,2
185,291,985,1023,2
307,59,64,1023,2
246,170,557,771,2
135,158,183,326,2
337,74,471,143,2
195,45,465,994,2
765,331,1023,1023,2
82,230,372,472,2
232,510,296,873,2
44,76,170,448,2
143,112,348,231,2
152,39,63,466,2
176,95,66,1023,2
384,194,114,1023,2
292,102,184,1023,2
181,277,266,25,2
101,427,261,202,2
157,261,689,360,2
541,9,282,500,2
734,374,177,35,2
23,192,41,395,2
214,247,116,7,2
274,111,502,1023,2
430,7,289,1023,2
639,51,500,757,2
113,145,503,910,2
16,315,11,561,2
45,144,484,741,2
864,363,893,773,2
277,47,404,1023,2
216,11,1023,1023,2
694,682,1023,1023,2
394,27,1023,1023,2
113,185,95,1023,2
142,525,128,220,2
106,71,533,1023,2
542,234,421,115,2
45,85,1023,1023,2
395,286,747,1023,2
473,386,857,362,2
410,365,923,1023,2
161,195,230,127,2
327,6,1023,1023,2
471,607,753,1023,2
27,56,880,63,2
699,291,22,177,2
246,39,1003,1023,2
544,352,342,220,2
41,659,755,1023,2
230,173,543,1023,2
387,983,369,89,2
243,838,316,483,2
427,341,526,106,2
461,97,333,14,2
702,447,241,763,2
689,126,492,493,2
1023,355,115,1023,2
305,671,775,295,2
654,332,655,496,2
672,40,174,282,2
31,371,896,135,2
309,114,508,668,2
12,184,141,530,2
512,363,286,94,2
654,570,592,103,2
83,275,1023,1023,2
182,454,146,244,2
118,311,1023,1023,2
382,364,118,156,2
1023,1023,1023,1023,2
532,150,240,1023,2
591,26,1023,1023,2
376,314,802,1023,2
234,569,935,1023,2
96,279,109,10,2
95,221,906,1013,2
121,92,67,251,2
157,231,439,0,2
87,28,471,1023,2
41,155,253,161,2
2,363,81,140,2
605,1023,1023,517,2
630,218,740,577,2
1023,666,729,472,2
627,987,375,256,2
24,391,172,1023,2
327,724,568,1023,2
22,797,178,117,2
139,412,1023,688,2
556,115,446,338,2
327,881,797,564,2
177,1023,155,10,2
195,464,802,307,2
115,285,229,124,2
275,575,332,392,2
865,651,224,480,2
126,340,88,736,2
192,58,251,582,2
653,692,254,542,2
36,323,602,482,2
161,331,63,377,2
393,144,375,595,2
113,676,833,1023,2
171,85,920,663,2
24,142,420,571,2
209,201,427,227,2
523,291,996,479,2
341,14,301,160,2
691,345,680,287,2
182,215,101,741,2
567,798,1023,300,2
21,134,1023,139,2
532,379,1023,1023,2
178,394,998,193,2
1023,712,653,413,2
964,41,1023,1023,2
276,435,59,496,2
57,435,1023,1023,2
200,281,1023,811,2
406,641,675,557,2
206,582,1023,1023,2
289,85,1023,330,2
715,62,1023,1023,2
252,360,452,89,2
604,393,634,1002,2
31,137,307,593,2
333,278,1021,1023,2
388,369,837,753,2
210,47,363,17,2
128,68,1023,1023,2
87,113,958,426,2
54,465,315,353,2
13,362,414,562,2
335,512,603,720,2
248,327,350,734,2
110,146,583,579,2
73,141,62,294,2
56,124,190,295,2
83,149,447,442,2
332,456,777,890,2
464,490,215,32,2
501,434,595,485,2
552,495,126,23,2
401,242,622,471,2
70,24,287,225,2
261,254,156,55,2
175,228,90,114,2
60,7,151,31,2
33,25,199,141,2
209,297,266,160,2
13,115,216,249,2
55,22,28,37,2
113,190,119,214,2
198,112,127,45,2
135,117,157,46,2
92,9,161,1,2
75,153,7,211,2
143,13,263,395,2
203,162,185,317,2
90,57,755,770,2
178,171,444,337,2
59,52,371,330,2
100,13,97,107,2
78,51,67,9,2
74,30,512,212,2
284,181,973,479,2
160,62,23,157,2
140,14,1023,767,2
205,311,918,840,2
111,161,34,0,2
22,37,98,435,2
96,107,261,924,2
7,27,264,0,2
57,60,542,692,2
128,188,25,239,2
85,183,660,315,2
3,124,253,50,2
115,29,184,127,2
159,6,447,199,2
89,145,199,273,2
3,146,360,148,2
101,48,102,110,2
85,27,297,555,2
281,267,100,1,2
98,75,652,479,2
274,259,37,110,2
19,242,342,161,2
55,29,198,225,2
306,111,237,26,2
21,65,100,104,2
105,47,668,212,2
361,207,154,59,2
108,17,517,247,2
164,275,499,278,2
10,49,411,214,2
36,209,77,267,2
77,221,504,625,2
183,249,893,954,2
453,450,136,170,2
336,423,154,177,2
83,11,173,101,2
317,262,112,77,2
93,168,480,375,2
80,110,74,90,2
103,147,400,275,2
217,145,693,14,2
172,146,14,406,2
45,74,856,597,2
108,229,210,521,2
443,259,807,373,2
277,175,126,140,2
169,259,567,108,2
113,36,432,81,2
203,304,575,587,2
253,17,212,427,2
468,740,341,6,2
136,331,117,560,2
112,88,95,216,2
41,36,724,191,2
42,302,573,714,2
364,285,297,235,2
29,40,446,830,2
161,165,212,450,2
89,432,928,1023,2
505,612,4,725,2
7,153,49,522,2
171,199,261,212,2
23,39,71,106,2
195,36,562,644,2
104,94,781,424,2
13,203,215,2,2
314,151,451,445,2
258,34,287,352,2
249,245,84,618,2
508,298,509,78,2
170,181,110,355,2
120,338,818,455,2
466,83,311,348,2
233,394,376,484,2
172,477,868,1001,2
45,27,643,573,2
247,168,190,3,2
7,43,436,63,2
330,133,899,758,2
411,338,35,199,2
236,151,880,294,2
95,214,35,391,2
346,78,563,514,2
24,11,168,380,2
172,33,331,776,2
422,55,221,246,2
490,130,729,734,2
183,24,179,97,2
306,349,581,669,2
0,230,29,142,2
10,101,340,492,2
294,536,115,379,2
87,350,356,16,2
10,33,297,96,2
81,201,17,64,2
172,30,319,189,2
175,235,26,220,2
243,286,93,211,2
73,47,199,0,2
4,103,69,595,2
147,283,500,149,2
370,208,53,132,2
25,95,285,286,2
16,13,124,44,2
306,159,468,405,2
36,238,269,216,2
9,147,588,365,2
0,232,128,240,2
90,105,36,2,2
36,232,336,245,2
223,495,116,44,2
14,191,674,559,2
168,170,186,232,2
67,331,678,529,2
128,31,237,353,2
178,236,476,626,2
12,349,11,45,2
17,197,483,740,2
76,123,97,356,2
72,290,187,45,2
6,283,270,20,2
93,52,460,125,2
54,16,281,673,2
3,152,139,88,2
112,16,531,233,2
10,95,214,95,2
150,209,218,67,2
78,293,23,142,2
11,428,285,171,2
93,369,39,13,2
106,240,328,409,2
308,278,263,991,2
233,307,449,398,2
139,193,253,251,2
31,164,426,226,2
31,49,305,437,2
103,124,58,173,2
62,86,68,65,2
2,79,459,622,2
65,25,254,155,2
173,145,575,595,2
37,17,224,275,2
49,152,232,7,2
5,6,16,131,2
16,19,27,269,2
76,175,69,88,2
56,45,150,88,2
33,71,186,163,2
43,178,324,372,2
242,406,439,445,2
31,171,9,43,2
78,75,222,267,2
183,193,462,421,2
133,81,55,87,2
14,5,501,328,2
40,9,252,149,2
25,23,191,79,2
186,87,249,368,2
151,209,127,300,2
13,49,5,56,2
101,180,387,376,2
305,330,7,260,2
232,319,442,310,2
78,197,137,39,2
91,101,438,271,2
125,152,341,810,2
2,83,175,226,2
53,24,698,504,2
108,277,268,294,2
26,88,298,156,2
28,78,373,21,2
21,118,579,502,2
9,10,226,69,2
195,47,440,627,2
5,309,197,311,2
65,239,271,83,2
111,164,293,200,2
138,297,255,0,2
107,115,568,613,2
10,242,249,439,2
56,194,291,448,2
155,219,267,427,2
97,452,36,289,2
278,559,232,47,2
114,191,163,207,2
12,85,30,268,2
92,21,409,501,2
95,65,11,141,2
27,25,255,117,2
48,30,320,356,2
12,136,49,36,2
3,111,318,241,2
216,91,48,141,2
341,280,787,643,2
132,73,74,293,2
81,303,208,169,2
15,66,202,19,2
99,94,582,182,2
116,77,122,67,2
22,71,151,424,2
71,281,337,351,2
264,11,190,0,2
122,50,689,796,2
353,74,568,1023,2
187,85,852,0,2
136,270,498,166,2
211,194,516,1023,2
106,160,519,390,2
118,48,264,1023,2
220,327,118,186,2
67,182,407,1,2
74,424,385,268,2
173,54,564,1023,2
117,83,208,62,2
1,296,384,924,2
68,5,1023,496,2
64,143,686,993,2
413,130,1023,912,2
122,214,856,1023,2
448,244,156,160,2
116,122,999,1023,2
189,160,1023,1023,2
234,18,45,26,2
475,226,1023,657,2
26,110,110,806,2
356,88,276,1023,2
62,12,298,425,2
95,192,101,489,2
595,38,303,61,2
795,404,75,906,2
651,148,513,1023,2
130,87,341,83,2
62,204,22,777,2
372,32,311,519,2
92,91,418,252,2
46,181,277,1023,2
394,75,469,516,2
195,141,449,80,2
148,453,77,279,2
324,84,845,1023,2
230,299,583,77,2
388,504,78,446,2
177,825,525,147,2
125,631,144,283,2
185,222,763,1023,2
338,82,247,577,2
240,269,341,743,2
123,172,116,183,2
935,212,57,349,2
227,109,629,1023,2
23,173,642,163,2
604,39,704,1023,2
367,318,162,1023,2
321,163,193,660,2
216,65,761,443,2
74,414,1023,1023,2
280,96,279,238,2
353,167,1023,1023,2
270,274,229,38,2
121,80,683,1023,2
28,165,448,1023,2
46,58,1023,1023,2
333,232,826,1023,2
15,678,668,362,2
264,145,107,630,2
279,127,235,1023,2
250,41,249,691,2
595,436,62,343,2
130,42,496,158,2
926,381,331,86,2
343,365,960,856,2
230,272,159,744,2
435,277,1011,53,2
120,79,545,219,2
191,550,1023,769,2
150,18,1023,1023,2
744,1023,1023,905,2
826,92,473,222,2
980,783,1023,1023,2
314,123,923,113,2
291,179,471,564,2
758,50,470,997,2
35,155,1023,912,2
100,104,832,131,2
683,119,308,58,2
297,539,216,597,2
1023,322,302,115,2
627,111,287,356,2
406,728,261,1023,2
171,26,704,1023,2
94,633,142,968,2
90,988,672,1023,2
40,844,153,587,2
296,661,181,381,2
509,21,729,1023,2
281,262,470,614,2
834,211,991,345,2
224,305,86,305,2
561,350,707,939,2
521,78,1023,515,2
325,394,415,278,2
476,352,1023,1023,2
429,70,241,934,2
241,558,1023,1023,2
417,429,344,333,2
185,167,820,482,2
298,457,481,1023,2
891,281,969,678,2
161,152,1023,381,2
115,395,24,0,2
598,742,594,305,2
196,79,872,921,2
540,420,455,3,2
150,224,1023,1023,2
397,535,787,1023,2
37,317,1023,1023,2
455,309,72,126,2
443,131,1023,1023,2
627,700,1023,1023,2
630,192,1023,615,2
355,383,1023,1023,2
82,162,1023,1023,2
38,164,1023,1023,2
628,325,805,1023,2
189,163,1023,1023,2
533,296,705,1023,2
448,592,674,673,2
165,282,565,1023,2
329,283,380,1023,2
116,280,288,42,2
171,199,85,652,2
593,73,1007,1023,2
185,100,979,514,2
37,248,875,1023,2
69,65,186,447,2
111,218,748,180,2
121,286,119,539,2
73,278,486,372,2
300,80,130,392,2
782,136,688,78,2
51,137,197,649,2
1023,1023,69,25,2
1023,1023,222,44,2
123,469,60,315,2
184,131,392,1,2
14,172,366,924,2
82,10,6,403,2
57,159,10,419,2
136,92,545,659,2
163,59,72,367,2
175,166,716,507,2
10,24,505,510,2
343,531,1023,1023,2
85,217,1023,1023,2
326,316,842,625,2
19,187,653,736,2
224,330,170,461,3
3,173,331,233,3
275,231,203,282,3
15,130,472,509,3
138,246,89,263,3
91,92,70,7,3
13,69,69,651,3
49,103,484,499,3
200,77,699,563,3
265,153,358,424,3
363,508,762,718,3
205,231,122,231,3
79,262,326,278,3
52,59,339,224,3
82,109,44,285,3
397,371,309,89,3
321,285,401,707,3
136,190,4,272,3
132,258,229,182,3
112,258,125,8,3
21,72,168,211,3
292,318,50,81,3
56,88,193,269,3
360,147,583,559,3
241,260,16,33,3
4,157,960,880,3
133,172,793,387,3
121,200,126,107,3
105,10,599,195,3
71,166,237,128,3
271,185,19,63,3
13,26,417,356,3
42,64,758,590,3
198,127,123,146,3
186,316,956,1021,3
211,396,952,615,3
251,207,260,33,3
102,127,822,521,3
112,470,171,0,3
137,70,931,533,3
0,217,187,302,3
18,122,319,187,3
150,196,81,72,3
22,245,181,14,3
161,56,768,673,3
43,10,71,50,3
335,280,935,752,3
118,133,49,524,3
320,361,1023,533,3
53,118,621,97,3
568,677,531,468,3
372,311,326,67,3
265,345,363,202,3
185,334,443,357,3
496,910,409,593,3
292,566,756,507,3
69,7,306,110,3
178,254,779,461,3
114,137,17,29,3
0,161,42,389,3
348,170,265,314,3
339,393,4,127,3
718,786,386,231,3
43,394,254,418,3
241,258,531,586,3
207,407,720,517,3
50,517,113,43,3
146,461,440,96,3
173,497,74,67,3
193,127,197,0,3
343,275,409,268,3
36,207,231,283,3
239,221,162,17,3
127,54,51,144,3
12,74,121,13,3
34,45,225,274,3
331,23,368,57,3
132,28,282,360,3
78,351,504,352,3
71,62,327,753,3
408,140,270,42,3
114,31,198,10,3
265,613,158,16,3
317,17,211,329,3
198,187,213,259,3
261,44,250,251,3
63,137,49,76,3
233,111,44,8,3
34,26,103,146,3
202,167,449,338,3
245,246,201,478,3
68,18,137,158,3
50,216,183,517,3
122,18,138,51,3
236,365,556,412,3
143,97,298,172,3
120,325,319,655,3
63,232,682,128,3
131,13,197,231,3
119,89,177,94,3
224,417,87,191,3
102,251,147,96,3
85,337,420,408,3
127,53,1023,407,3
210,390,252,503,3
242,154,1023,569,3
14,21,402,148,3
175,93,9,133,3
197,129,20,218,3
37,91,397,561,3
534,88,51,245,3
495,49,302,396,3
13,464,190,36,3
38,113,138,150,3
132,250,311,303,3
140,60,173,184,3
60,10,128,350,3
58,170,232,138,3
152,172,70,255,3
116,103,368,426,3
157,186,366,407,3
151,156,247,157,3
15,55,180,353,3
53,247,164,57,3
152,46,120,2,3
87,39,195,5,3
85,698,59,488,3
117,15,152,195,3
295,269,44,500,3
165,212,342,68,3
202,113,443,211,3
22,14,438,82,3
145,296,520,349,3
247,419,520,400,3
196,223,163,55,3
48,120,173,196,3
211,233,153,0,3
147,105,4,13,3
74,10,167,220,3
235,342,172,320,3
77,118,121,54,3
137,256,49,44,3
42,109,620,783,3
78,225,275,449,3
293,324,387,684,3
240,356,416,333,3
281,331,57,26,3
95,331,187,63,3
60,38,308,177,3
32,45,333,358,3
239,363,471,404,3
128,251,900,752,3
39,89,111,8,3
45,42,440,407,3
2,6,381,263,3
226,144,211,216,3
407,166,50,149,3
47,374,79,165,3
141,201,18,241,3
92,184,157,83,3
320,311,327,440,3
65,21,244,0,3
238,352,72,0,3
96,146,66,0,3
319,318,154,0,3
14,98,60,103,3
47,52,9,121,3
24,45,31,0,3
5,41,478,535,3
6,100,13,70,3
13,73,311,90,3
35,48,143,505,3
120,170,143,42,3
46,375,60,75,3
71,19,271,265,3
151,270,103,499,3
115,78,549,238,3
166,371,355,166,3
131,185,538,282,3
135,135,286,309,3
128,137,508,504,3
188,20,203,191,3
159,158,216,106,3
278,295,18,38,3
538,725,221,64,3
118,101,259,4,3
208,171,85,32,3
55,15,458,452,3
232,178,34,290,3
49,50,444,289,3
128,452,27,354,3
282,169,482,482,3
40,246,374,25,3
17,94,175,269,3
359,285,541,142,3
194,11,939,1023,3
249,139,573,332,3
168,21,834,825,3
375,232,264,380,3
18,30,509,125,3
404,157,210,9,3
348,193,512,746,3
274,31,5,178,3
229,529,16,37,3
74,159,1023,1023,3
424,253,403,1023,3
798,281,1023,1023,3
233,155,112,89,3
730,93,604,160,3
64,322,454,254,3
5,76,94,16,3
15,149,726,413,3
273,302,282,430,3
195,59,593,753,3
373,163,10,138,3
416,61,108,481,3
90,377,37,146,3
87,37,1023,1019,3
146,147,328,1023,3
169,299,1023,19,3
291,441,567,157,3
551,151,302,276,3
129,385,315,946,3
338,124,674,343,3
87,139,525,651,3
66,248,471,207,3
334,172,280,1023,3
14,42,31,291,3
13,97,456,734,3
47,95,224,637,3
6,163,226,29,3
557,191,744,611,3
354,41,82,334,3
586,421,565,293,3
41,345,494,627,3
1023,1023,197,376,3
288,465,164,308,3
287,179,192,231,3
145,335,514,513,3
222,52,15,365,3
365,13,750,811,3
597,262,383,843,3
888,353,1023,1023,3
103,8,70,170,3
87,96,204,496,3
308,277,792,1023,3
506,140,115,693,3
742,440,29,759,3
52,196,736,468,3
188,259,462,1023,3
412,668,73,1023,3
242,501,593,1001,3
297,586,79,62,3
637,316,495,336,3
399,476,200,493,3
510,603,83,282,3
95,136,58,443,3
102,253,752,480,3
233,11,170,275,3
77,319,82,453,3
568,38,431,1023,3
75,229,311,507,3
544,151,120,162,3
475,537,484,315,3
694,878,248,1023,3
86,25,247,261,3
419,335,1023,1023,3
435,383,460,209,3
77,185,758,1023,3
411,558,346,14,3
348,168,258,616,3
319,56,942,740,3
262,44,414,1023,3
12,143,22,639,3
270,12,551,418,3
428,325,329,279,3
664,945,5,49,3
434,217,460,1023,3
634,41,168,462,3
749,563,1023,721,3
243,293,41,767,3
12,531,352,439,3
257,636,508,1023,3
70,125,225,370,3
153,271,548,940,3
436,70,11,600,3
18,257,387,16,3
134,388,1016,1023,3
192,134,348,1023,3
383,175,53,252,3
360,182,377,0,3
729,303,267,204,3
11,596,967,1023,3
1023,225,932,826,3
47,376,155,44,3
1023,358,684,163,3
404,786,1023,180,3
533,171,2,69,3
28,377,1023,1023,3
192,53,1023,1023,3
24,319,475,591,3
786,726,759,142,3
579,732,894,1023,3
281,103,149,446,3
589,172,548,1023,3
152,334,282,324,3
51,406,129,199,3
123,85,650,905,3
427,29,231,260,3
410,82,1023,1023,3
452,508,440,1023,3
575,279,196,282,3
115,612,67,710,3
579,18,717,51,3
198,19,59,9,3
27,35,1023,1023,3
838,1023,441,6,3
241,61,563,1008,3
622,154,595,772,3
90,153,352,445,3
723,367,1023,813,3
310,100,217,172,3
76,392,961,612,3
201,374,558,476,3
520,568,1023,1023,3
261,497,660,10,3
323,904,1023,1023,3
164,852,1023,1023,3
251,453,1023,879,3
94,466,1023,1023,3
321,89,1023,570,3
404,444,1023,1023,3
229,144,771,289,3
277,73,155,1,3
59,81,126,237,3
89,151,136,17,3
287,469,612,460,3
596,728,303,351,3
175,14,905,488,3
51,315,50,395,3
619,25,187,267,3
429,233,350,372,3
23,276,354,402,3
268,209,581,348,3
329,265,584,877,3
22,256,93,506,3
238,185,313,242,3
90,151,341,583,3
43,298,1023,1023,3
217,702,416,1023,3
468,686,1023,1023,3
820,709,476,530,3
191,41,211,570,3
416,204,165,475,3
171,229,1023,1023,3
748,292,819,10,3
725,377,1023,1023,3
100,115,402,79,3
180,99,1023,1023,3
117,32,101,265,3
12,33,1023,1023,3
5,303,122,10,3
56,165,595,442,3
238,179,358,142,3
370,525,599,578,3
325,302,256,410,3
102,129,614,853,3
280,95,538,351,3
36,51,281,558,3
121,7,319,160,3
174,48,137,162,3
23,157,110,0,3
32,52,202,32,3
201,120,389,405,3
246,290,160,208,3
81,147,884,552,3
62,63,24,165,3
73,27,626,49,3
127,59,230,694,3
93,86,170,334,3
16,233,131,188,3
137,82,1023,736,3
148,15,11,72,3
89,8,344,251,3
35,181,79,86,3
234,321,831,621,3
251,485,219,25,3
348,323,1023,818,3
241,43,131,0,3
39,21,822,524,3
202,79,639,428,3
3,85,614,123,3
53,201,143,401,3
134,115,10,479,3
242,289,270,38,3
35,79,134,353,3
168,201,407,804,3
171,184,54,389,3
159,85,143,284,3
129,207,138,119,3
137,163,604,302,3
276,213,793,467,3
27,20,8,30,3
75,73,453,235,3
111,101,791,590,3
20,55,59,380,3
77,134,1008,1023,3
388,615,225,42,3
116,166,207,10,3
135,239,193,97,3
300,727,453,493,3
173,156,468,532,3
167,700,371,275,3
321,73,1023,1023,3
39,236,125,45,3
47,46,936,811,3
184,374,62,133,3
13,26,833,405,3
281,505,100,296,3
297,331,817,781,3
101,210,533,588,3
336,584,60,154,3
166,50,241,461,3
320,582,66,510,3
293,588,287,1023,3
200,232,392,144,3
72,137,109,45,3
100,117,949,634,3
398,129,143,367,3
227,165,550,53,3
235,350,124,245,3
176,18,285,212,3
20,246,642,338,3
248,39,77,264,3
56,41,1023,895,3
109,251,578,615,3
171,44,767,195,3
47,211,210,55,3
121,26,702,721,3
200,222,285,569,3
272,295,742,672,3
253,347,303,580,3
483,209,246,325,3
137,489,1023,551,3
278,481,35,686,3
256,191,1023,1023,3
111,42,202,186,3
131,101,422,203,3
139,122,14,237,3
53,179,122,108,3
64,29,404,587,3
153,149,131,327,3
107,166,273,519,3
431,242,209,316,3
83,98,3,514,3
228,213,125,38,3
234,287,594,593,3
84,122,578,154,3
371,493,120,72,3
139,93,408,671,3
496,233,550,680,3
210,194,101,393,3
132,66,333,38,3
288,169,193,197,3
91,7,47,2,3
192,7,322,623,3
425,160,372,121,3
281,142,424,487,3
155,30,171,265,3
401,212,680,466,3
409,105,744,1023,3
137,75,430,18,3
414,39,834,1023,3
134,186,34,326,3
190,236,40,39,3
189,222,5,212,3
76,72,260,241,3
164,164,264,188,3
76,469,27,132,3
167,271,372,297,3
112,45,196,68,3
35,42,725,707,3
137,158,82,401,3
195,77,47,121,3
229,141,11,195,3
377,443,233,198,3
659,682,36,231,3
46,308,24,87,3
151,279,145,997,3
61,321,160,195,3
111,328,225,177,3
19,177,23,32,3
60,340,62,33,3
58,22,122,45,3
153,227,3,10,3
241,151,221,144,3
123,34,275,224,3
146,106,68,16,3
80,25,1023,1009,3
51,64,404,465,3
331,654,857,369,3
0,220,726,1023,3
480,901,219,16,3
161,161,283,149,3
73,346,348,751,3
304,11,130,268,3
68,174,383,230,3
158,69,101,64,3
46,111,429,261,3
185,116,5,17,3
3,59,396,179,3
19,73,498,372,3
113,159,330,362,3
157,205,355,137,3
168,157,492,549,3
89,123,76,29,3
247,424,401,367,3
180,171,245,219,3
134,388,346,556,3
63,38,367,711,3
54,86,110,176,3
121,400,66,57,3
23,139,136,64,3
152,199,249,226,3
91,60,382,306,3
2,20,218,38,3
53,42,733,351,3
139,99,259,141,3
420,437,584,365,3
214,359,296,315,3
388,507,78,241,3
106,195,198,444,3
270,261,23,388,3
25,122,222,313,3
39,103,174,0,3
78,24,483,419,3
346,349,4,123,3
146,150,169,91,3
50,171,16,33,3
2,17,72,70,3
17,47,224,296,3
52,143,55,138,3
109,104,50,40,3
91,111,334,90,3
52,148,508,578,3
154,222,120,101,3
166,50,292,45,3
202,332,131,364,3
188,379,614,281,3
11,364,134,343,3
115,416,836,763,3
28,155,344,203,3
11,62,170,212,3
83,98,112,13,3
4,51,334,270,3
40,297,623,744,3
49,62,162,370,3
60,101,67,179,3
44,43,104,305,3
313,443,378,384,3
94,137,249,527,3
212,247,808,823,3
287,37,474,722,3
3,12,232,79,3
49,31,252,265,3
176,313,99,89,3
79,18,4,190,3
6,12,193,130,3
170,102,755,483,3
16,94,64,136,3
72,12,4,180,3
29,8,49,171,3
33,123,582,366,3
181,471,557,382,3
212,488,269,173,3
298,357,1023,1023,3
101,159,279,568,3
298,98,849,1023,3
22,32,828,892,3
300,108,249,125,3
294,216,308,199,3
460,349,533,567,3
0,114,213,114,3
1,100,217,15,3
112,104,310,116,3
116,38,1023,1023,3
62,128,444,1023,3
250,327,1023,1023,3
22,263,64,322,3
46,157,553,283,3
348,74,69,252,3
293,42,1023,1023,3
148,339,153,295,3
162,367,1023,903,3
387,119,134,419,3
78,268,218,709,3
233,228,862,314,3
151,93,253,623,3
85,130,982,679,3
309,240,532,714,3
40,114,645,249,3
83,82,439,397,3
10,93,590,165,3
73,140,479,8,3
556,561,10,148,3
12,74,265,690,3
331,447,195,599,3
90,19,38,170,3
166,352,448,549,3
168,23,96,266,3
796,116,339,110,3
849,548,488,1023,3
269,111,1023,1010,3
235,187,817,1023,3
276,591,854,1023,3
403,178,1023,1023,3
712,400,779,1023,3
492,401,1017,427,3
158,444,453,1023,3
215,637,586,472,3
430,315,170,39,3
158,57,1023,1023,3
244,27,661,1023,3
446,78,986,179,3
822,751,535,381,3
290,249,1023,901,3
451,419,55,236,3
134,394,1023,1015,3
571,502,397,642,3
581,346,277,3,3
886,27,698,1023,3
48,376,884,610,3
1023,761,530,1023,3
21,273,1023,1023,3
521,292,1023,1023,3
998,119,981,905,3
377,292,989,701,3
283,314,542,1023,3
551,386,1023,1023,3
170,869,82,982,3
55,720,307,695,3
63,684,88,807,3
175,349,1023,1023,3
237,110,1023,1023,3
378,156,427,771,3
73,129,69,403,3
707,661,691,763,3
139,164,404,782,3
851,20,532,1023,3
347,330,852,152,3
180,39,191,576,3
161,82,600,1023,3
284,24,213,972,3
39,586,694,10,3
500,668,229,40,3
862,590,751,456,3
108,489,115,259,3
129,313,918,348,3
976,543,1023,11,3
18,405,134,702,3
945,1023,30,74,3
57,81,319,525,3
787,517,73,302,3
464,80,482,441,3
157,409,540,554,3
76,251,847,292,3
345,236,62,857,3
39,380,348,0,3
1023,1023,34,24,3
213,503,720,334,3
465,140,585,77,3
248,159,506,79,3
31,194,543,275,3
103,42,662,369,3
350,71,772,548,3
239,137,1023,434,3
270,396,1023,530,3
39,679,953,876,3
898,343,859,693,3
253,95,198,477,3
520,528,720,430,3
0,97,295,407,3
98,28,280,14,3
50,283,254,535,3
391,183,261,551,3
282,1023,988,28,3
408,168,93,61,3
1023,1023,363,890,3
323,417,497,70,3
703,274,432,754,3
150,402,880,1023,3
334,23,403,1023,3
10,132,1023,780,3
233,188,611,230,3
310,92,114,200,3
143,504,322,75,3
580,360,647,1023,3
718,1023,379,168,3
407,187,533,291,3
12,80,208,894,3
333,586,1023,1023,3
340,289,464,972,3
214,689,1023,1023,3
476,143,353,779,3
357,625,1023,1023,3
119,392,1023,1023,3
357,300,34,572,3
281,104,1023,1023,3
498,334,1023,480,3
118,24,1023,1023,3
760,309,78,143,3
647,253,1023,1023,3
233,431,1023,585,3
94,552,1023,1023,3
151,436,1023,1023,3
282,200,1023,1023,3
54,477,1023,1023,3
516,527,125,139,3
250,736,1023,1023,3
328,63,1023,1023,3
1023,839,1023,1023,3
69,252,1023,1023,3
846,873,526,643,3
45,137,1023,1023,3
173,186,283,618,3
269,406,1023,1023,3
648,462,466,113,3
97,157,116,146,3
200,231,601,584,3
7,54,12,72,3
150,378,252,283,3
188,167,327,457,3
233,198,282,121,3
176,137,194,117,3
29,92,27,811,3
682,792,779,552,3
190,212,418,364,3
225,179,839,1023,3
14,36,578,289,3
218,33,445,873,3
374,292,313,5,3
85,94,663,661,3
227,320,357,28,3
101,82,534,504,3
99,31,176,83,3
15,22,255,66,3
296,86,87,47,3
120,151,175,15,3
4,329,173,138,3
30,166,6,22,3
5,178,195,206,3
269,280,237,345,3
426,489,398,144,3
134,65,110,103,3
214,123,338,284,3
100,13,50,43,3
104,27,69,10,3
180,231,316,29,3
111,70,123,479,3
89,165,372,610,3
267,199,833,211,3
25,30,201,140,3
165,172,1023,936,3
12,10,132,74,3
45,113,584,457,3
39,178,416,76,3
28,17,413,296,3
170,157,117,45,3
524,316,545,329,3
244,108,579,190,3
169,27,763,816,3
67,12,665,0,3
243,80,168,139,3
24,30,58,143,3
168,220,519,512,3
369,567,352,380,3
69,320,135,308,3
362,562,801,513,3
433,760,171,49,3
148,572,742,587,3
58,212,19,141,3
121,35,225,63,3
35,101,608,536,3
196,135,406,264,3
314,314,45,13,3
324,424,349,486,3
147,238,366,590,3
151,113,199,70,3
143,87,472,419,3
70,134,21,219,3
153,182,894,648,3
154,318,147,480,3
43,265,294,184,3
67,103,239,143,3
94,446,923,551,3
143,358,274,199,3
66,31,151,95,3
94,301,227,451,3
325,303,111,13,3
63,23,567,228,3
242,436,556,495,3
201,154,690,1023,3
151,15,667,441,3
266,420,389,610,3
423,36,746,699,3
222,169,136,329,3
80,709,450,475,3
169,329,265,223,3
241,287,403,127,3
95,343,347,42,3
45,109,562,351,3
45,28,180,131,3
52,102,380,297,3
167,64,189,5,3
143,431,849,891,3
101,577,468,188,3
43,254,211,422,3
179,229,518,208,3
317,863,180,197,3
417,87,827,665,3
117,352,320,255,3
45,236,736,182,3
231,343,242,320,3
193,243,506,125,3
112,60,134,226,3
62,224,258,364,3
111,202,564,529,3
62,177,119,74,3
166,69,477,368,3
390,307,472,905,3
209,100,383,146,3
91,465,27,858,3
50,587,244,540,3
88,391,362,297,3
137,72,365,309,3
231,535,170,312,3
7,31,347,608,3
206,350,718,870,3
203,58,25,414,3
331,297,993,560,3
183,272,169,6,3
157,164,57,195,3
14,102,151,56,3
141,314,128,35,3
8,47,5,63,3
60,191,223,121,3
6,92,105,4,3
86,151,183,471,3
6,16,187,380,3
68,26,498,73,3
17,308,268,1023,3
72,70,495,573,3
8,27,423,82,3
123,324,387,177,3
7,170,16,530,3
176,229,1,274,3
6,55,549,464,3
74,326,524,238,3
301,103,413,651,3
82,228,7,182,3
7,14,213,18,3
51,71,425,370,3
261,526,29,517,3
136,108,316,212,3
4,147,214,43,3
99,46,25,318,3
83,159,115,292,3
77,104,164,30,3
73,315,33,365,3
71,61,11,109,3
12,80,89,658,3
227,109,148,139,3
97,161,111,214,3
40,130,375,216,3
27,17,257,185,3
130,9,366,359,3
24,87,680,490,3
55,34,479,529,3
46,34,24,29,3
75,253,129,170,3
177,71,279,544,3
411,200,104,210,3
74,30,485,239,3
28,54,316,226,3
372,220,269,27,3
160,152,541,630,3
217,199,151,132,3
261,388,444,551,3
257,290,54,412,3
337,301,303,351,3
201,44,460,677,3
119,17,340,444,3
41,16,154,82,3
166,365,421,373,3
72,145,313,268,3
31,186,74,198,3
61,73,336,32,3
40,271,391,386,3
20,15,83,62,3
0,111,196,97,3
440,319,197,472,3
355,28,281,250,3
394,798,115,291,3
67,184,209,0,3
37,183,300,152,3
134,240,66,119,3
67,60,330,484,3
201,145,540,733,3
25,10,78,134,3
7,104,408,347,3
41,52,272,168,3
121,117,249,45,3
150,277,452,332,3
22,18,14,0,3
19,27,776,1023,3
175,419,470,232,3
146,502,336,260,3
206,402,741,825,3
355,788,234,196,3
180,95,68,367,3
485,500,185,141,3
107,188,237,455,3
300,265,2,142,3
267,325,138,147,3
168,71,27,33,3
112,149,211,109,3
62,39,149,253,3
112,59,3,0,3
140,57,53,153,3
145,190,331,500,3
203,70,147,550,3
188,365,1,66,3
124,98,80,309,3
299,182,663,674,3
222,225,394,356,3
214,93,218,61,3
34,21,115,90,3
50,88,214,195,3
36,75,425,302,3
167,128,186,267,3
261,220,279,92,3
5,100,737,1014,3
169,240,245,236,3
15,8,517,508,3
112,61,330,91,3
17,268,523,147,3
51,234,388,423,3
389,556,261,335,3
145,33,329,37,3
600,491,163,38,3
86,331,11,197,3
315,334,54,109,3
119,202,193,31,3
15,148,87,69,3
105,15,508,444,3
7,98,779,420,3
3,133,110,166,3
75,167,398,139,3
14,256,580,151,3
181,340,700,727,3
142,59,156,733,3
580,75,233,608,3
396,441,29,52,3
174,102,459,803,3
84,140,156,627,3
656,528,33,550,3
123,147,17,896,3
519,381,630,342,3
661,136,1023,938,3
356,55,595,20,3
36,195,1023,1023,3
47,262,1023,125,3
113,390,1023,1023,3
295,111,310,392,3
428,49,399,319,3
282,627,1023,534,3
473,544,78,522,3
77,303,630,1023,3
443,43,151,150,3
402,416,17,1023,3
253,521,81,101,3
219,324,125,153,3
344,84,528,797,3
348,6,348,44,3
13,335,300,60,3
332,323,251,855,3
86,368,589,1023,3
24,52,1023,776,3
117,15,61,45,3
452,632,927,222,3
587,971,589,497,3
120,30,1023,1023,3
1023,367,368,331,3
342,93,1023,1023,3
989,642,133,986,3
685,278,1023,1023,3
323,869,157,187,3
190,679,1023,1023,3
535,1023,1023,1023,3
44,117,453,354,3
612,960,79,1023,3
407,469,1023,1023,3
479,720,313,453,3
208,69,299,1023,3
321,161,270,732,3
187,14,167,222,3
36,780,186,840,3
7,173,870,905,3
72,367,233,715,3
14,106,773,41,3
71,242,82,720,3
54,207,828,625,3
501,803,148,267,3
260,398,1023,1023,3
1023,875,47,188,3
160,831,1023,1023,3
329,415,76,1023,3
156,271,849,402,3
509,594,208,1023,3
102,253,569,275,3
298,71,944,834,3
194,321,154,84,3
205,96,233,259,3
135,208,353,209,3
70,344,361,392,3
131,67,1023,1023,3
80,599,41,45,3
702,141,850,49,3
640,536,447,789,3
432,365,345,1023,3
32,447,619,16,3
295,552,703,237,3
310,117,1023,452,3
376,134,266,286,3
211,211,1023,1023,3
214,354,28,1023,3
255,297,942,543,3
90,142,448,413,3
147,134,877,930,3
2,80,684,697,3
1023,108,345,186,3
586,130,392,566,3
613,1023,20,160,3
529,53,503,330,3
574,1023,169,135,3
510,303,302,269,3
101,170,492,527,3
59,408,180,195,3
6,11,953,808,3
144,286,813,46,3
692,114,1023,865,3
26,193,778,609,3
496,785,865,1023,3
1023,140,75,450,3
246,715,98,510,3
135,520,96,452,3
270,870,5,770,3
247,27,327,280,3
351,115,42,408,3
9,204,186,471,3
36,35,445,391,3
116,106,118,13,3
414,250,413,138,3
316,610,176,318,3
302,188,367,389,3
623,539,101,83,3
100,24,54,77,3
115,417,834,1023,3
789,230,871,1023,3
1023,1023,881,916,3
521,501,436,664,3
272,93,1023,1023,3
187,143,543,667,3
134,175,585,387,3
464,375,30,906,3
47,249,211,251,3
94,16,194,180,3
392,326,9,344,3
40,199,73,653,3
414,586,319,95,3
261,115,422,458,3
312,300,285,853,3
18,123,109,582,3
1023,960,1023,379,3
275,412,344,1023,3
597,485,1023,629,3
27,149,481,924,3
728,917,1023,374,3
63,276,130,156,3
903,526,445,337,3
18,236,636,1023,3
14,62,655,490,3
233,6,508,582,3
541,300,259,271,3
27,221,1023,1023,3
638,392,88,219,3
18,272,1023,900,3
336,283,50,276,3
356,501,994,857,3
190,210,923,434,3
114,107,785,526,3
247,31,380,134,3
185,160,1023,663,3
779,588,43,660,3
545,473,1023,995,3
418,168,308,1023,3
58,300,363,609,3
115,464,419,426,3
174,469,82,321,3
407,501,434,77,3
361,248,274,478,3
403,205,372,345,3
7,18,35,415,3
40,119,1023,829,3
207,652,190,360,3
87,311,1023,1023,3
21,37,36,7,3
39,42,710,573,3
25,33,411,493,3
358,348,184,260,3
114,86,8,135,3
90,170,53,158,3
94,14,64,306,3
304,345,814,843,3
65,209,482,306,3
222,215,389,332,3
171,83,541,464,3
227,44,612,396,3
47,77,216,152,3
112,356,654,484,3
66,133,76,281,3
40,58,140,87,3
48,213,113,939,3
2,17,83,180,3
12,24,52,120,3
5,28,196,303,3
24,7,206,368,3
49,95,9,0,3
139,150,297,341,3
252,465,60,196,3
142,117,1023,860,3
123,197,600,6,3
23,192,108,261,3
157,46,116,0,3
22,66,695,248,3
147,263,203,95,3
296,8,903,405,3
122,141,787,446,3
401,301,795,1023,3
209,354,49,947,3
97,88,493,816,3
30,34,942,592,3
114,300,274,327,3
133,87,362,610,3
243,253,244,108,3
198,359,1023,712,3
385,333,197,379,3
350,394,1023,1023,3
171,324,425,229,3
395,323,460,453,3
37,55,210,500,3
158,44,247,576,3
244,256,1023,1023,3
29,215,300,64,3
93,82,734,578,3
28,48,739,777,3
48,114,16,372,3
82,77,362,563,3
121,248,374,344,3
285,187,165,0,3
20,13,1023,666,3
272,345,110,155,3
7,377,944,654,3
141,317,264,505,3
19,543,583,722,3
71,202,153,219,3
40,296,425,270,3
302,384,147,421,3
129,361,463,70,3
180,373,306,274,3
208,19,155,227,3
332,219,257,437,3
58,45,147,46,3
12,44,589,846,3
33,26,49,267,3
100,11,2,116,3
299,108,127,135,3
4,53,310,143,3
45,198,139,96,3
31,212,288,170,3
294,242,30,516,3
30,15,326,242,3
14,97,145,250,3
308,6,338,619,3
267,164,94,288,3
363,162,359,71,3
145,211,86,254,3
271,270,122,129,3
4,218,234,408,3
141,266,174,38,3
15,138,77,44,3
24,210,66,88,3
76,39,93,378,3
173,229,715,1023,3
320,293,484,546,3
206,44,43,41,3
313,626,69,171,3
307,415,200,503,3
316,118,761,719,3
18,235,789,411,3
228,179,599,101,3
161,39,1023,931,3
76,61,426,252,3
61,259,1023,813,3
34,147,288,568,3
37,152,774,930,3
125,39,228,86,3
68,7,47,207,3
252,146,274,70,3
9,30,914,986,3
38,173,418,100,3
24,151,741,635,3
419,433,52,312,3
171,192,777,1023,3
294,538,467,238,3
558,596,336,75,3
340,439,29,463,3
60,30,510,419,3
172,307,331,87,3
149,72,56,82,3
72,217,131,79,3
399,499,24,311,3
663,614,237,0,3
110,29,34,150,3
6,285,96,233,3
264,268,200,164,3
124,119,831,337,3
103,77,146,303,3
34,71,395,144,3
49,132,518,182,3
55,145,614,664,3
212,223,353,20,3
15,12,267,251,3
71,63,549,604,3
0,24,83,71,3
149,113,312,236,3
204,320,75,152,3
161,249,396,467,3
47,79,111,10,3
0,92,513,536,3
147,391,288,393,3
345,777,7,173,3
218,316,170,32,3
172,198,79,237,3
382,393,264,714,3
60,255,16,5,3
39,231,47,38,3
152,217,200,454,3
149,83,149,680,3
72,101,25,125,3
36,39,769,561,3
145,29,230,122,3
171,39,533,76,3
76,48,62,45,3
163,345,378,447,3
629,590,18,12,3
640,471,130,171,3
433,918,118,22,3
74,28,705,821,3
165,160,12,197,3
94,398,574,394,3
7,38,17,72,3
44,207,107,53,3
273,251,321,171,3
104,157,591,806,3
67,151,293,264,3
58,124,475,428,3
34,27,221,241,3
113,148,45,0,3
28,166,212,51,3
140,290,167,140,3
189,107,437,280,3
154,406,10,160,3
162,156,250,297,3
66,59,565,299,3
28,152,245,143,3
222,13,422,926,3
81,78,99,396,3
80,86,706,837,3
161,118,409,0,3
184,11,1023,1023,3
5,261,141,78,3
274,179,1001,970,3
45,18,680,735,3
389,518,303,413,3
45,90,563,504,3
197,289,424,520,3
155,234,103,140,3
125,45,329,251,3
25,123,280,596,3
273,87,185,113,3
245,85,376,506,3
4,96,645,538,3
190,68,402,583,3
57,85,169,545,3
26,34,66,83,3
330,380,211,153,3
97,63,481,426,3
76,190,90,579,3
60,89,433,514,3
136,58,8,85,3
67,186,726,578,3
30,32,46,591,3
25,25,444,618,3
21,505,281,68,3
48,108,39,319,3
150,166,486,368,3
238,219,479,425,3
249,98,518,1023,3
61,50,523,574,3
36,63,664,981,3
40,242,992,1023,3
217,45,728,1023,3
43,35,665,1023,3
157,188,233,82,3
293,81,58,264,3
136,29,83,117,3
15,493,586,881,3
283,514,465,7,3
266,353,357,16,3
113,6,869,775,3
620,205,242,723,3
68,196,966,1023,3
16,207,967,988,3
380,97,957,288,3
292,180,820,1023,3
331,18,536,1023,3
539,175,662,1023,3
32,239,14,162,3
24,285,327,954,3
160,125,301,250,3
275,501,610,287,3
465,115,202,377,3
293,369,3,279,3
167,275,291,978,3
256,559,242,17,3
257,221,530,1023,3
95,165,1011,278,3
73,76,534,359,3
152,11,1023,1023,3
194,62,278,1023,3
199,110,1023,748,3
442,163,100,421,3
157,256,876,516,3
58,193,556,446,3
150,442,44,554,3
412,259,937,809,3
417,217,130,42,3
402,116,689,1023,3
689,338,12,536,3
79,359,286,196,3
640,354,229,1018,3
463,449,117,195,3
7,420,51,160,3
459,686,420,27,3
350,24,23,771,3
721,420,460,262,3
377,623,625,64,3
1023,437,226,733,3
344,99,599,818,3
274,349,557,1023,3
59,122,1023,453,3
46,81,36,1023,3
340,424,1023,1023,3
149,419,396,172,3
147,93,692,198,3
778,936,844,868,3
486,570,811,854,3
598,1023,108,59,3
106,636,319,701,3
269,586,721,466,3
332,202,200,350,3
189,765,221,86,3
203,204,664,1023,3
196,56,33,866,3
582,544,50,175,3
329,253,320,497,3
448,185,180,986,3
52,409,96,556,3
624,1023,557,725,3
176,72,129,562,3
557,865,628,873,3
47,252,209,1023,3
242,495,72,213,3
550,350,230,1023,3
344,548,579,1023,3
624,118,532,1023,3
304,698,270,553,3
329,155,321,283,3
1023,1023,649,1023,3
411,96,117,630,3
57,39,330,918,3
711,124,481,583,3
189,341,384,1023,3
64,509,1023,744,3
95,43,413,239,3
396,580,445,533,3
693,632,68,112,3
388,437,305,1023,3
194,498,802,1023,3
367,273,762,1023,3
407,252,1023,1023,3
102,304,41,1023,3
82,365,246,20,3
546,366,460,1023,3
249,165,531,546,3
47,405,91,80,3
393,146,672,122,3
870,543,627,444,3
416,275,355,833,3
466,625,454,447,3
166,275,331,351,3
378,245,223,347,3
52,539,468,142,3
478,1023,762,158,3
662,274,564,224,3
364,1004,1023,1023,3
432,310,625,796,3
75,173,830,691,3
815,648,129,9,3
128,255,107,23,3
39,430,375,106,3
762,123,469,812,3
252,115,1023,1023,3
444,251,1023,578,3
415,756,399,1023,3
407,491,547,122,3
63,409,295,637,3
256,164,486,223,3
307,195,821,804,3
146,104,120,222,3
319,95,831,1003,3
589,57,26,622,3
132,138,200,1023,3
61,539,222,385,3
343,472,128,170,3
166,32,536,0,3
115,494,422,587,3
16,124,164,363,3
817,494,319,325,3
571,305,139,51,3
361,241,132,1010,3
455,432,497,775,3
390,321,326,54,3
657,143,1008,666,3
450,116,397,95,3
242,578,1023,734,3
667,477,236,145,3
178,191,906,8,3
325,122,215,210,3
249,145,729,403,3
182,496,17,83,3
576,357,16,432,3
344,425,101,380,3
339,77,1023,1023,3
581,377,286,460,3
61,92,1023,809,3
189,11,298,373,3
112,99,596,385,3
12,90,254,2,3
123,60,405,102,3
360,718,253,74,3
448,1023,315,44,3
232,613,415,126,3
166,61,60,271,3
226,273,261,56,3
70,244,49,86,3
175,74,38,73,3
211,282,754,71,3
179,293,520,1023,3
302,346,103,846,3
89,198,1023,1023,3
100,138,1023,582,3
9,110,551,1010,3
211,340,709,165,3
459,684,575,491,3
131,193,249,71,3
27,129,9,427,3
279,194,701,660,3
82,43,303,228,3
216,294,315,157,3
391,327,213,4,3
10,50,489,466,3
287,375,71,10,3
255,495,820,826,3
155,114,356,455,3
72,33,156,274,3
319,468,8,108,3
70,243,87,88,3
235,207,105,256,3
100,143,175,168,3
106,131,105,585,3
166,233,212,94,3
278,378,80,118,3
342,425,8,41,3
49,11,66,29,3
135,122,425,437,3
143,51,228,308,3
108,135,576,380,3
201,35,383,87,3
255,230,148,85,3
170,67,85,244,3
215,217,517,765,3
11,122,75,125,3
330,849,121,283,3
31,433,363,140,3
219,156,376,417,3
224,564,756,669,3
412,470,17,35,3
134,24,480,395,3
142,196,354,817,3
249,190,143,88,3
51,45,207,203,3
2,7,21,447,3
2,107,122,170,3
56,29,455,500,3
113,225,24,306,3
65,244,396,453,3
252,375,223,420,3
34,153,35,506,3
74,68,340,116,3
32,519,714,1023,3
229,221,398,452,3
133,138,317,71,3
133,41,799,831,3
24,135,313,150,3
318,78,498,202,3
44,90,457,167,3
292,45,18,186,3
216,252,268,140,3
991,794,373,132,3
137,385,508,669,3
81,322,69,101,3
120,133,365,703,3
71,202,133,229,3
9,74,23,364,3
235,64,540,527,3
65,92,25,558,3
144,125,472,580,3
119,136,249,256,3
25,41,595,494,3
262,186,443,533,3
143,103,285,170,3
155,257,826,357,3
140,80,533,620,3
427,335,13,42,3
368,251,319,408,3
91,30,504,355,3
171,219,119,541,3
106,173,611,819,3
45,183,305,359,3
38,52,407,634,3
542,559,30,507,3
225,63,211,123,3
151,310,272,183,3
15,40,822,558,3
8,107,70,173,3
2,38,541,45,3
6,35,133,628,3
158,214,904,552,3
108,239,185,222,3
87,18,896,345,3
187,180,342,261,3
12,260,667,581,3
92,9,204,270,3
113,373,83,356,3
254,55,334,401,3
286,431,186,234,3
559,186,97,494,3
349,479,63,292,3
7,526,386,337,3
89,396,505,219,3
202,84,112,248,3
281,138,358,199,3
66,80,552,369,3
211,112,200,43,3
45,238,453,484,3
157,231,424,474,3
43,7,502,520,3
139,228,702,575,3
166,670,791,971,3
54,304,417,365,3
67,162,359,579,3
11,393,144,25,3
150,112,23,278,3
91,10,490,306,3
124,197,80,314,3
99,111,88,135,3
234,205,87,71,3
110,184,385,15,3
450,486,509,766,3
192,304,101,232,3
172,334,385,420,3
3,40,99,0,3
93,5,118,27,3
122,329,9,135,3
246,18,116,81,3
67,200,182,56,3
21,121,343,501,3
166,37,121,401,3
405,196,456,606,3
85,56,309,268,3
72,5,214,171,3
180,169,114,169,3
176,109,131,102,3
234,190,33,1,3
193,235,241,123,3
51,40,12,0,3
313,212,374,402,3
103,56,246,109,3
3,339,80,202,3
56,33,181,411,3
1,10,269,289,3
467,344,192,173,3
81,10,418,470,3
60,56,336,560,3
87,116,134,315,3
59,151,317,605,3
45,22,48,67,3
114,51,244,480,3
54,30,233,353,3
65,14,43,93,3
66,63,116,270,3
56,88,486,605,3
97,138,310,179,3
108,308,94,168,3
167,50,328,144,3
294,248,152,578,3
92,102,110,131,4
43,11,23,84,4
161,406,33,24,4
106,153,34,160,4
83,160,102,71,4
77,156,469,305,4
4,101,182,239,4
124,42,281,255,4
36,49,467,423,4
166,260,252,221,4
317,254,379,590,4
81,93,319,610,4
61,71,417,476,4
201,644,345,262,4
3,109,168,749,4
44,100,176,412,4
76,147,124,351,4
0,180,307,327,4
22,12,154,233,4
68,51,135,212,4
144,65,13,99,4
59,113,69,236,4
116,91,210,479,4
26,117,186,272,4
105,135,613,373,4
594,475,82,143,4
154,191,262,466,4
213,416,67,18,4
72,215,431,810,4
52,182,282,421,4
75,13,813,870,4
58,272,488,524,4
150,214,218,98,4
42,136,32,210,4
70,19,256,818,4
36,12,465,179,4
3,43,303,235,4
292,322,92,389,4
240,331,5,25,4
153,119,232,738,4
169,220,49,17,4
154,175,42,618,4
166,112,5,481,4
307,116,135,85,4
121,406,239,367,4
214,127,582,1023,4
161,266,28,494,4
743,314,588,777,4
83,41,865,1023,4
341,396,412,122,4
424,346,1023,1023,4
5,308,160,1023,4
429,201,744,946,4
53,135,470,1023,4
207,47,152,158,4
151,428,350,2,4
648,21,311,578,4
608,529,1023,1023,4
138,51,294,273,4
489,291,725,284,4
461,46,831,1023,4
619,444,143,29,4
505,212,81,506,4
87,257,16,458,4
67,274,150,308,4
448,259,21,62,4
546,229,179,684,4
402,477,279,69,4
372,238,94,613,4
265,80,929,1023,4
587,449,185,609,4
426,220,689,830,4
387,546,388,12,4
66,332,316,157,4
3,336,370,559,4
436,157,361,121,4
102,558,358,378,4
285,422,503,1023,4
221,115,456,647,4
599,254,215,1023,4
183,259,39,1023,4
453,118,110,551,4
631,618,199,541,4
159,154,67,260,4
251,296,540,6,4
84,1023,34,319,4
59,95,438,293,4
50,328,112,702,4
278,183,23,571,4
252,359,140,183,4
121,177,107,442,4
440,700,821,1023,4
611,44,870,670,4
408,374,389,379,4
142,81,306,1023,4
221,255,252,1023,4
629,300,186,521,4
632,310,563,1023,4
171,237,660,808,4
32,544,782,1023,4
282,333,220,1023,4
224,248,322,836,4
138,256,311,5,4
229,66,179,833,4
52,587,249,20,4
108,99,1023,1023,4
67,173,33,464,4
485,469,1023,871,4
398,434,198,274,4
121,442,787,733,4
634,982,87,249,4
276,272,532,917,4
132,294,58,327,4
96,420,1023,1023,4
317,237,311,121,4
811,6,42,176,4
243,65,1023,1023,4
484,314,294,249,4
851,53,306,240,4
196,431,1023,673,4
679,1023,21,418,4
279,156,941,276,4
120,663,151,238,4
928,426,1023,876,4
559,114,402,1023,4
274,197,258,1023,4
331,880,97,554,4
770,793,574,833,4
17,16,204,277,4
129,192,385,505,4
467,282,613,605,4
289,38,781,890,4
150,306,63,507,4
1023,834,433,812,4
77,466,760,1023,4
357,420,815,299,4
439,239,1023,417,4
159,472,153,650,4
93,98,1023,968,4
9,493,814,934,4
94,585,1016,716,4
474,178,25,576,4
381,503,75,155,4
263,179,191,131,4
129,11,491,448,4
578,845,1008,1023,4
88,382,1023,1023,4
536,548,570,374,4
176,183,640,329,4
741,513,4,606,4
399,245,9,959,4
281,319,336,1023,4
159,254,19,70,4
568,25,478,40,4
479,221,848,1023,4
129,564,436,82,4
1020,370,343,28,4
1023,1023,822,494,4
341,111,1023,1023,4
1023,690,202,160,4
324,167,397,85,4
583,627,876,650,4
33,153,364,871,4
142,89,705,435,4
366,117,1023,1023,4
777,750,455,313,4
320,574,402,1023,4
102,42,374,389,4
173,320,109,50,4
99,386,713,1023,4
281,483,422,1023,4
726,417,395,298,4
847,277,119,473,4
854,666,535,0,4
138,191,1023,844,4
121,84,191,298,4
446,377,407,235,4
532,976,369,830,4
95,529,109,384,4
274,59,123,1023,4
340,292,377,57,4
284,108,119,19,4
355,789,321,1023,4
1023,572,413,1023,4
168,241,626,578,4
590,437,654,616,4
720,578,73,695,4
751,349,1023,699,4
273,37,565,141,4
31,99,157,766,4
249,103,287,206,4
60,60,15,482,4
552,171,282,826,4
102,188,406,748,4
65,129,1023,1023,4
593,229,344,9,4
903,1023,427,214,4
192,518,483,833,4
325,176,26,36,4
647,577,147,533,4
351,607,100,271,4
202,277,256,70,4
25,17,280,142,4
82,117,238,223,4
164,270,654,779,4
94,62,132,201,4
472,440,601,289,4
110,71,377,281,4
222,270,6,167,4
181,224,12,136,4
49,57,251,274,4
202,259,247,90,4
76,59,46,58,4
144,20,67,49,4
76,26,7,103,4
218,193,313,297,4
161,88,372,44,4
39,51,172,134,4
165,182,524,340,4
118,152,35,430,4
15,155,144,119,4
141,227,704,686,4
346,263,132,291,4
207,247,123,72,4
90,50,125,137,4
316,260,380,485,4
14,10,75,6,4
137,40,54,482,4
50,79,287,44,4
110,170,574,1023,4
62,249,359,546,4
25,124,752,1023,4
13,43,654,760,4
371,261,404,404,4
43,90,529,452,4
244,293,452,318,4
14,47,419,503,4
156,43,35,0,4
66,165,195,22,4
330,173,24,428,4
291,349,153,7,4
175,324,196,590,4
324,366,355,397,4
223,257,512,1023,4
358,423,459,22,4
225,640,820,1023,4
147,101,59,806,4
148,54,969,680,4
333,294,1023,950,4
73,206,772,376,4
74,68,837,850,4
41,17,368,272,4
214,147,229,289,4
499,524,193,99,4
182,175,30,210,4
439,289,44,73,4
59,496,9,98,4
213,379,70,316,4
123,37,86,51,4
67,95,512,677,4
129,127,707,825,4
250,243,150,822,4
21,21,920,1023,4
207,250,394,263,4
24,49,545,834,4
74,43,3,79,4
6,125,503,25,4
8,70,730,604,4
94,76,961,866,4
47,6,235,284,4
279,320,155,408,4
67,153,9,816,4
166,236,29,1022,4
230,409,285,178,4
126,123,597,919,4
7,397,865,1023,4
19,148,96,27,4
47,77,696,463,4
150,22,246,113,4
42,110,393,496,4
370,293,4,314,4
579,416,59,401,4
51,11,332,113,4
94,21,478,308,4
3,116,220,269,4
398,342,66,36,4
265,608,5,68,4
7,34,35,236,4
170,195,509,240,4
255,44,302,651,4
276,351,208,58,4
303,277,437,37,4
419,430,862,890,4
147,301,281,285,4
335,469,984,580,4
133,311,19,370,4
66,75,582,313,4
350,23,644,777,4
442,341,221,71,4
182,298,907,843,4
258,397,398,601,4
39,151,427,351,4
119,410,556,583,4
342,223,355,45,4
39,142,66,97,4
143,17,135,49,4
24,54,679,529,4
132,36,154,261,4
14,7,367,146,4
89,90,307,408,4
31,99,22,0,4
259,47,808,653,4
451,87,553,1023,4
22,7,761,120,4
331,459,180,94,4
5,570,288,145,4
122,142,289,358,4
331,251,423,541,4
19,159,410,580,4
153,62,269,225,4
13,48,20,0,4
66,130,182,258,4
85,184,138,175,4
417,193,49,177,4
143,176,82,646,4
306,333,29,133,4
53,227,129,396,4
23,317,122,47,4
52,309,41,136,4
262,184,397,1021,4
168,103,108,161,4
99,8,78,215,4
283,182,868,971,4
14,154,783,675,4
304,196,603,547,4
57,36,672,638,4
60,98,486,585,4
199,164,23,177,4
245,296,61,0,4
73,8,312,326,4
112,188,651,770,4
107,190,191,343,4
310,289,739,387,4
57,572,728,1023,4
201,461,856,703,4
237,429,530,292,4
15,62,126,37,4
91,53,714,790,4
76,27,15,164,4
138,18,406,504,4
17,61,283,190,4
100,111,35,230,4
120,99,75,8,4
59,145,566,631,4
74,410,56,452,4
111,7,520,428,4
87,12,661,376,4
154,97,44,698,4
44,83,101,0,4
58,114,71,0,4
108,248,122,21,4
39,234,117,208,4
3,145,80,161,4
86,42,14,10,4
96,125,144,182,4
6,41,43,43,4
108,245,334,223,4
4,68,169,102,4
78,138,110,86,4
66,137,636,189,4
32,15,256,351,4
128,334,17,132,4
115,27,224,255,4
33,385,99,133,4
52,32,52,130,4
34,145,9,34,4
3,89,109,221,4
7,24,144,0,4
47,176,463,392,4
30,104,304,243,4
79,24,431,150,4
75,62,632,409,4
76,205,362,523,4
305,283,376,337,4
4,112,468,287,4
5,53,8,186,4
54,103,474,528,4
11,178,98,69,4
84,445,37,7,4
120,371,176,133,4
184,223,514,828,4
70,86,249,595,4
131,423,92,0,4
255,16,378,604,4
152,85,54,36,4
21,200,625,647,4
2,98,261,1,4
66,80,1,216,4
44,24,347,334,4
76,199,303,12,4
219,50,112,90,4
350,327,47,236,4
127,103,441,366,4
62,141,175,146,4
23,56,135,61,4
16,83,153,305,4
322,50,313,192,4
328,146,50,528,4
227,160,28,24,4
297,317,343,122,4
363,56,129,303,4
10,82,675,656,4
373,29,155,496,4
149,152,215,290,4
181,150,143,142,4
11,21,594,537,4
88,39,82,211,4
252,299,1023,582,4
232,87,695,1012,4
256,258,136,284,4
548,309,740,211,4
102,45,686,569,4
151,247,181,575,4
528,39,503,641,4
375,60,118,236,4
62,108,125,217,4
50,246,469,1023,4
598,15,23,63,4
44,173,814,1023,4
129,425,117,617,4
83,268,443,371,4
236,97,117,303,4
134,289,1023,1023,4
298,252,907,888,4
868,947,549,1023,4
427,233,215,53,4
618,167,411,31,4
134,44,399,1023,4
43,142,78,280,4
496,320,761,1023,4
434,404,350,225,4
21,209,1023,1023,4
17,113,1023,1023,4
217,95,914,407,4
55,162,121,616,4
86,756,726,36,4
70,478,183,543,4
332,278,414,93,4
44,507,136,467,4
248,54,329,1023,4
340,150,7,251,4
114,363,462,936,4
28,245,399,1005,4
222,10,262,277,4
461,459,112,542,4
634,90,789,69,4
124,108,278,249,4
131,85,210,269,4
54,337,747,1023,4
47,558,364,685,4
502,16,504,321,4
298,262,466,1012,4
874,742,142,190,4
87,71,97,635,4
701,731,1021,213,4
565,49,133,85,4
1023,1023,1023,975,4
233,145,139,1023,4
4,589,1023,1023,4
486,164,700,75,4
969,146,582,1023,4
749,92,157,532,4
131,551,5,1023,4
449,390,435,91,4
202,354,36,168,4
529,541,182,718,4
448,175,323,30,4
198,411,516,731,4
158,678,813,255,4
96,39,704,335,4
162,39,1023,849,4
187,245,19,1023,4
45,116,274,410,4
86,215,376,585,4
10,522,325,740,4
292,64,703,335,4
369,57,402,37,4
190,637,66,620,4
582,445,857,77,4
626,316,749,794,4
27,334,224,220,4
18,74,352,41,4
75,376,153,87,4
610,33,199,148,4
289,991,161,864,4
449,133,132,669,4
71,448,255,484,4
204,20,531,417,4
225,438,3,481,4
10,34,106,430,4
31,40,527,75,4
251,348,566,533,4
139,685,457,1023,4
538,21,160,53,4
393,488,34,715,4
229,1023,66,478,4
589,147,227,599,4
819,377,733,445,4
93,323,30,643,4
174,558,113,95,4
85,421,553,283,4
135,953,115,267,4
158,23,198,288,4
146,128,848,1023,4
777,222,31,118,4
45,394,1023,637,4
339,84,406,861,4
606,264,126,209,4
237,400,1023,929,4
105,356,366,613,4
240,582,555,880,4
871,570,1023,1023,4
1023,673,729,651,4
116,103,781,327,4
588,49,448,274,4
246,14,482,562,4
632,53,9,263,4
605,155,938,946,4
248,722,915,1023,4
353,307,894,1023,4
280,26,576,1023,4
43,62,432,559,4
438,636,395,340,4
67,240,505,821,4
22,795,52,35,4
1023,1023,148,514,4
175,204,633,1023,4
326,471,307,126,4
196,546,170,505,4
88,17,746,569,4
64,189,212,55,4
1023,258,147,738,4
370,19,23,175,4
754,165,730,679,4
326,90,189,724,4
636,315,149,572,4
262,182,300,416,4
6,422,258,622,4
169,195,902,677,4
154,487,356,339,4
835,896,607,490,4
187,828,375,70,4
719,664,453,118,4
172,256,856,753,4
44,17,1023,1023,4
408,324,1023,1023,4
632,494,48,40,4
341,290,1023,36,4
293,75,231,190,4
57,61,1023,1006,4
775,261,361,624,4
110,62,454,140,4
176,157,473,567,4
65,661,653,834,4
653,752,694,1010,4
81,196,135,411,4
456,27,179,1,4
81,312,136,857,4
223,625,284,303,4
27,151,485,190,4
287,83,544,675,4
309,98,1023,1023,4
337,106,307,162,4
18,34,339,992,4
432,232,238,158,4
166,139,226,247,4
52,93,185,74,4
222,254,814,720,4
241,245,532,878,4
6,274,328,41,4
97,50,71,120,4
236,305,116,28,4
188,131,261,584,4
170,156,139,1023,4
692,687,575,466,4
25,153,188,442,4
184,236,631,175,4
318,306,131,503,4
530,354,514,408,4
167,182,258,101,4
205,364,391,295,4
9,65,326,255,4
358,314,255,296,4
405,411,17,338,4
297,505,799,477,4
182,91,562,338,4
41,77,840,352,4
33,31,45,20,4
23,77,103,0,4
151,239,641,452,4
7,200,8,151,4
161,598,372,313,4
398,677,81,89,4
41,217,18,111,4
96,311,981,620,4
27,73,15,662,4
201,176,649,442,4
152,94,660,1011,4
162,166,295,78,4
300,411,211,146,4
20,5,129,225,4
100,41,487,352,4
24,57,191,209,4
79,353,104,0,4
180,50,294,22,4
117,212,8,22,4
38,92,33,61,4
43,120,157,426,4
9,66,492,312,4
102,54,78,69,4
57,85,523,569,4
169,215,245,412,4
450,202,418,0,4
232,283,466,594,4
41,127,239,745,4
65,147,361,601,4
454,912,115,217,4
191,145,54,26,4
4,191,135,303,4
685,930,263,27,4
510,941,156,460,4
195,571,155,250,4
197,429,759,1023,4
183,17,62,200,4
143,236,300,414,4
123,223,248,122,4
22,16,195,301,4
198,93,208,159,4
160,274,20,487,4
267,397,91,200,4
180,393,247,658,4
368,483,37,282,4
179,239,348,254,4
162,450,718,591,4
356,23,105,452,4
31,156,38,251,4
342,591,406,37,4
103,139,632,544,4
31,284,423,377,4
19,26,195,186,4
53,241,484,555,4
30,79,189,0,4
244,349,774,409,4
204,87,285,211,4
322,264,336,331,4
116,294,47,403,4
394,647,403,126,4
5,195,265,1023,4
370,653,902,1023,4
148,360,201,346,4
7,559,719,535,4
87,212,214,113,4
115,87,288,395,4
93,32,339,226,4
194,225,591,184,4
12,39,395,156,4
321,179,462,1023,4
222,372,78,70,4
350,359,378,879,4
150,72,267,735,4
0,173,486,637,4
196,715,806,1023,4
68,556,409,742,4
783,1023,692,693,4
269,83,97,22,4
77,113,360,488,4
650,616,148,627,4
154,375,216,335,4
309,353,43,220,4
100,123,744,278,4
124,318,269,987,4
207,249,381,379,4
31,83,563,1020,4
4,167,164,474,4
297,217,114,205,4
651,490,8,137,4
0,473,299,1023,4
8,24,164,37,4
136,11,247,0,4
3,507,452,502,4
343,807,125,333,4
226,30,145,194,4
48,124,452,1023,4
122,33,68,184,4
19,240,144,352,4
15,300,412,79,4
14,114,204,442,4
492,126,110,534,4
379,53,12,142,4
152,22,40,105,4
248,215,238,723,4
65,46,212,271,4
285,627,81,67,4
247,103,29,244,4
480,682,200,267,4
246,175,2,82,4
40,79,593,660,4
572,618,165,290,4
7,191,264,77,4
395,546,558,461,4
9,315,566,699,4
434,542,131,164,4
276,15,218,272,4
95,177,441,722,4
315,273,95,138,4
195,225,442,336,4
55,73,21,77,4
204,120,838,717,4
95,34,342,572,4
13,106,169,107,4
163,153,651,1023,4
242,420,51,10,4
14,169,93,0,4
0,60,345,318,4
56,133,201,310,4
272,255,445,499,4
398,503,98,115,4
216,53,362,303,4
117,198,731,785,4
434,430,97,273,4
101,162,97,52,4
230,235,239,292,4
266,152,51,8,4
218,222,122,97,4
43,13,3,257,4
70,728,25,553,4
82,7,145,202,4
80,102,222,197,4
249,323,421,509,4
78,54,399,194,4
68,148,334,0,4
43,44,406,249,4
308,349,92,71,4
154,121,130,403,4
196,250,208,316,4
464,501,109,154,4
28,36,176,263,4
176,143,8,36,4
103,169,18,4,4
258,162,26,22,4
19,133,103,201,4
46,141,52,9,4
168,152,37,26,4
0,5,12,155,4
234,369,373,411,4
28,236,466,55,4
349,976,282,130,4
81,100,377,431,4
78,279,465,393,4
61,291,63,88,4
201,198,158,129,4
209,179,121,255,4
27,56,127,139,4
31,71,27,73,4
134,130,7,0,4
127,100,194,196,4
143,393,124,318,4
22,275,132,301,4
33,474,77,31,4
220,456,259,252,4
151,57,316,255,4
75,297,69,150,4
152,35,335,293,4
71,80,136,220,4
44,16,34,89,4
79,103,5,55,4
148,94,71,37,4
234,233,127,176,4
36,207,161,184,4
88,243,220,181,4
50,143,48,129,4
120,467,165,0,4
36,12,70,124,4
322,656,178,0,4
175,210,67,32,4
81,458,147,110,4
13,45,181,3,4
29,40,119,139,4
2,113,142,35,4
81,156,33,70,4
233,299,64,107,4
139,122,94,36,4
1,22,144,194,4
125,149,43,41,4
153,146,122,127,4
115,239,82,135,4
67,169,287,351,4
85,69,41,115,4
177,94,27,265,4
259,358,79,35,4
48,100,81,405,4
247,918,60,238,4
214,351,208,51,4
4,201,106,225,4
187,212,78,166,4
117,47,296,85,4
74,52,278,362,4
107,55,168,108,4
206,199,84,152,4
79,31,189,72,4
202,245,308,331,4
177,23,571,175,4
285,283,561,316,4
162,29,813,660,4
334,395,318,207,4
100,265,1023,1023,4
166,147,199,105,4
105,229,362,391,4
121,256,218,32,4
365,283,799,726,4
201,419,64,182,4
93,230,963,828,4
577,446,447,501,4
128,302,415,761,4
444,150,769,1023,4
45,23,82,296,4
172,114,329,1008,4
142,240,847,1016,4
342,39,571,943,4
130,219,444,442,4
88,11,537,345,4
148,184,194,88,4
249,306,529,1023,4
304,261,394,608,4
240,101,269,1023,4
230,405,205,432,4
83,93,252,202,4
617,44,768,1023,4
84,70,156,218,4
741,18,350,245,4
54,116,502,167,4
176,146,465,104,4
815,221,447,142,4
261,225,209,630,4
139,302,577,743,4
886,114,66,301,4
177,15,619,616,4
571,123,914,1023,4
407,473,1023,1023,4
454,432,421,345,4
568,195,765,116,4
407,15,455,28,4
63,385,47,494,4
637,42,707,1023,4
377,450,669,130,4
169,950,108,739,4
106,490,151,402,4
488,64,1023,1023,4
16,243,1023,1023,4
142,194,499,166,4
850,452,573,1023,4
153,493,467,416,4
431,519,135,701,4
235,203,814,835,4
40,428,417,1017,4
1023,933,247,1023,4
465,6,283,206,4
62,589,2,540,4
805,36,33,263,4
434,122,253,804,4
633,250,380,188,4
141,286,230,1023,4
31,60,421,1023,4
398,298,521,196,4
142,196,39,181,4
159,158,800,580,4
27,492,78,170,4
454,748,1023,1023,4
188,266,734,1023,4
458,281,281,228,4
274,565,364,51,4
65,650,615,529,4
36,503,687,440,4
219,66,123,716,4
182,21,151,639,4
1023,514,544,71,4
36,21,683,1023,4
357,64,899,1023,4
135,633,587,1023,4
781,605,179,217,4
140,313,412,807,4
311,461,1023,1023,4
45,1023,148,91,4
944,413,437,611,4
852,257,740,548,4
9,334,101,80,4
470,74,375,154,4
55,169,449,353,4
580,18,263,213,4
14,295,630,74,4
64,64,148,330,4
904,407,159,177,4
302,73,55,50,4
97,94,597,286,4
30,386,689,682,4
225,676,147,508,4
38,286,300,543,4
435,37,264,238,4
27,554,104,87,4
289,505,1023,542,4
358,95,1023,1023,4
57,15,667,451,4
377,385,28,1023,4
375,195,196,195,4
216,226,236,51,4
62,270,428,835,4
46,47,67,972,4
529,389,84,325,4
87,233,311,606,4
425,448,85,105,4
196,211,765,1023,4
75,1023,215,1023,4
588,162,427,482,4
107,161,256,192,4
303,249,795,696,4
1023,1023,629,76,4
44,207,1023,1012,4
439,178,306,1023,4
362,470,18,148,4
415,420,737,607,4
489,266,713,539,4
45,191,1023,1023,4
118,17,29,1003,4
328,346,677,874,4
118,255,299,259,4
14,17,803,1023,4
398,71,219,325,4
69,443,371,75,4
90,1023,378,302,4
236,95,431,144,4
594,919,4,19,4
60,192,208,1023,4
37,288,337,359,4
390,399,424,344,4
136,10,806,759,4
321,251,673,1023,4
1023,287,1023,743,4
712,712,187,449,4
621,301,1023,1023,4
555,911,296,393,4
36,60,755,716,4
364,100,649,1023,4
559,310,756,745,4
44,258,580,347,4
97,955,581,617,4
650,144,29,197,4
378,367,316,427,4
579,237,144,49,4
425,231,9,1023,4
887,912,169,343,4
249,211,219,153,4
566,744,35,156,4
43,631,43,179,4
346,259,616,1023,4
567,837,477,470,4
324,793,85,159,4
103,475,158,311,4
49,294,7,16,4
537,718,1012,693,4
85,234,125,170,4
359,292,926,207,4
436,72,729,614,4
583,135,966,370,4
180,488,543,170,4
324,340,400,0,4
63,491,332,221,4
347,203,395,673,4
253,209,375,94,4
410,313,99,445,4
36,195,269,11,4
194,37,686,1023,4
267,367,141,751,4
297,642,201,294,4
317,298,210,1023,4
10,84,181,1011,4
410,546,62,715,4
544,409,523,117,4
361,281,434,24,4
160,159,847,550,4
390,924,21,269,4
682,1001,81,0,4
126,749,366,545,4
91,95,117,347,4
340,674,572,363,4
599,829,729,264,4
40,363,430,342,4
1,74,401,129,4
56,65,803,1023,4
388,657,342,602,4
149,194,1023,1023,4
182,252,448,427,4
201,434,145,1023,4
28,303,1023,1023,4
160,183,481,413,4
148,102,222,135,4
293,89,995,841,4
354,258,216,401,4
150,246,618,176,4
575,115,263,117,4
19,330,455,185,4
71,210,472,249,4
343,111,344,194,4
51,263,150,227,4
382,289,218,325,4
96,65,333,243,4
322,510,229,508,4
112,81,363,893,4
216,88,235,299,4
214,255,564,631,4
88,115,361,844,4
307,84,663,685,4
291,281,746,670,4
8,122,153,142,4
453,399,321,362,4
146,71,278,242,4
202,288,368,229,4
261,114,24,38,4
73,35,29,200,4
147,151,10,90,4
18,19,984,1023,4
58,121,6,35,4
110,80,1023,1023,4
120,177,318,145,4
10,280,264,277,4
265,808,55,286,4
7,32,244,474,4
164,283,621,584,4
382,317,591,535,4
70,135,763,473,4
367,390,128,250,4
38,74,577,443,4
318,243,221,7,4
267,326,875,688,4
6,88,286,206,4
1,142,1023,1023,4
48,329,295,411,4
131,502,698,1023,4
98,110,241,393,4
89,235,100,136,4
139,93,230,351,4
162,168,417,452,4
22,68,1023,878,4
84,42,70,92,4
196,360,686,23,4
218,186,683,1023,4
136,100,258,377,4
772,673,1023,1023,4
89,26,545,55,4
47,19,453,707,4
14,74,520,354,4
173,300,255,327,4
262,145,199,345,4
27,167,590,1023,4
5,410,50,133,4
247,260,1023,1023,4
218,434,98,13,4
164,235,971,1023,4
408,168,113,371,4
570,314,631,579,4
261,251,384,125,4
79,184,16,198,4
206,21,46,100,4
9,186,32,260,4
296,268,21,294,4
5,163,467,1023,4
2,324,586,577,4
99,34,397,605,4
285,592,178,710,4
566,331,57,718,4
20,266,389,312,4
536,477,108,336,4
344,15,176,436,4
52,85,24,174,4
74,107,188,301,4
81,18,213,366,4
193,145,201,735,4
175,311,192,59,4
19,25,67,0,4
418,648,545,1011,4
25,121,6,57,4
235,490,274,158,4
80,129,257,0,4
50,67,648,620,4
7,312,513,221,4
87,54,214,12,4
357,26,639,561,4
142,192,194,423,4
103,20,18,406,4
411,50,236,134,4
108,359,726,176,4
507,326,31,193,4
241,95,472,26,4
191,75,663,583,4
249,90,71,467,4
59,295,508,717,4
6,399,436,557,4
133,100,342,701,4
312,298,483,418,4
477,189,254,239,4
51,46,244,37,4
100,101,489,16,4
378,887,148,712,4
256,440,435,1023,4
621,958,910,1023,4
303,151,578,448,4
563,259,529,550,4
468,648,462,154,4
265,57,644,369,4
248,200,167,652,4
318,537,92,204,4
78,122,492,405,4
330,338,288,863,4
51,167,782,778,4
1,158,44,498,4
32,31,509,413,4
92,24,174,177,4
41,161,144,483,4
4,18,381,300,4
31,305,96,208,4
189,438,405,282,4
108,201,131,128,4
147,180,27,71,4
154,295,152,77,4
25,114,858,1023,4
28,21,30,190,4
6,24,495,395,4
75,148,435,523,4
95,114,105,77,4
164,283,170,627,4
106,238,103,369,4
311,269,228,166,4
212,126,309,208,4
248,495,208,797,4
246,333,176,105,4
79,108,491,759,4
51,118,96,149,4
134,55,87,331,4
40,547,288,306,4
36,199,44,0,4
338,784,171,98,4
390,455,163,115,4
150,370,34,313,4
133,84,358,347,4
22,10,68,37,4
3,33,368,319,4
239,265,36,4,4
115,22,43,130,4
179,208,90,74,4
92,181,590,371,4
194,190,167,11,4
65,127,217,236,4
95,269,275,573,4
305,100,207,71,4
456,607,295,350,4
187,174,39,78,4
86,641,500,1002,4
41,59,65,43,4
155,165,130,168,4
0,7,72,7,4
258,225,113,49,4
119,117,58,95,4
98,13,75,74,4
2,51,50,128,4
42,19,142,77,4
7,123,27,123,4
289,119,94,388,4
309,242,169,249,4
233,580,64,53,4
0,133,68,54,4
380,440,274,230,4
293,69,66,20,4
112,62,159,29,4
3,21,149,283,4
155,273,18,2,4
13,135,143,101,4
152,145,110,31,4
178,94,72,95,4
42,62,128,40,4
96,85,101,135,4
193,732,161,74,4
196,93,154,186,4
112,90,54,0,4
136,84,207,45,4
195,95,29,0,4
159,152,65,236,4
95,76,33,149,4
110,210,248,256,4
85,71,153,21,4
17,134,26,40,4
140,231,117,17,4
3,213,326,373,4
65,199,236,642,4
196,21,572,886,4
9,187,423,321,4
253,24,253,124,4
133,513,246,809,4
37,442,54,122,4
394,649,314,256,4
406,478,158,326,4
54,321,33,47,4
111,105,83,0,4
123,58,199,506,4
37,103,217,96,4
7,89,175,418,4
134,201,429,424,4
77,114,168,227,4
52,41,167,80,4
117,93,370,239,4
47,240,364,397,4
271,362,82,231,4
3,16,321,77,4
289,726,402,0,4
167,204,366,69,4
64,233,263,2,4
125,261,90,45,4
525,464,224,106,4
168,270,97,58,4
321,190,206,57,4
44,199,134,499,4
264,10,455,133,4
229,115,68,177,4
77,78,757,566,4
150,131,234,192,4
515,222,775,1023,4
99,69,262,468,4
303,678,107,70,4
70,266,6,348,4
48,23,393,975,4
222,231,280,611,4
67,771,244,370,4
32,124,372,140,4
61,84,656,1023,4
451,297,264,693,4
269,44,738,403,4
37,117,223,41,4
123,108,1023,563,4
69,151,29,313,4
117,161,209,570,4
242,80,704,553,4
136,326,380,1023,4
81,58,155,646,4
73,44,26,527,4
198,47,435,566,4
138,33,177,23,4
343,134,654,1023,4
246,63,607,852,4
228,295,695,1023,4
177,91,221,497,4
47,93,659,1023,4
529,134,3,92,4
121,183,651,734,4
637,596,48,832,4
359,408,168,253,4
565,587,123,996,4
58,320,483,1023,4
8,191,311,79,4
505,448,119,185,4
118,212,42,531,4
1,290,51,356,4
254,691,182,83,4
291,419,181,629,4
90,192,1023,1023,4
335,18,199,734,4
107,9,254,317,4
467,224,255,214,4
96,149,217,408,4
254,27,187,611,4
142,964,81,635,4
901,824,292,541,4
357,1023,130,723,4
93,326,185,1023,4
443,137,586,620,4
105,21,897,218,4
82,129,120,31,4
18,258,716,293,4
411,14,464,716,4
708,146,1006,621,4
29,1023,179,295,4
817,962,125,756,4
721,721,1023,945,4
526,19,220,178,4
238,248,112,865,4
128,407,783,874,4
41,215,890,947,4
408,120,586,1023,4
1023,653,572,132,4
102,270,74,1023,4
567,390,836,140,4
617,790,713,1023,4
714,1023,331,405,4
104,63,604,1023,4
572,76,244,88,4
263,383,150,702,4
21,395,273,287,4
133,60,116,2,4
386,475,123,71,4
270,152,43,486,4
668,292,14,243,4
415,292,542,261,4
445,13,281,30,4
235,55,287,295,4
553,74,268,326,4
476,515,698,366,4
595,74,32,474,4
446,44,361,10,4
94,196,23,1023,4
997,259,193,220,4
193,340,32,362,4
53,36,404,715,4
291,187,152,847,4
563,92,226,222,4
522,1023,492,289,4
88,10,163,100,4
913,1023,331,463,4
141,26,148,324,4
98,463,120,1023,4
34,77,63,424,4
94,739,224,339,4
181,501,14,438,4
642,95,47,134,4
222,671,379,1023,4
399,413,569,620,4
886,294,105,631,4
1023,1023,107,445,4
874,1023,527,941,4
1023,761,424,521,4
245,310,365,91,4
584,46,113,115,4
152,132,122,767,4
697,649,113,82,4
256,310,22,69,4
455,920,21,303,4
4,238,76,512,4
217,20,126,385,4
798,1023,442,159,4
342,416,741,756,4
760,1023,180,223,4
891,1023,647,265,4
885,1023,581,246,4
1023,1023,562,1023,4
809,1023,704,486,4
710,853,201,391,4
295,147,1023,1023,4
625,483,26,81,4
124,106,1023,829,4
123,70,509,715,4
395,44,1023,1023,4
401,250,33,162,4
314,56,719,563,4
616,349,1023,270,4
3,844,137,1023,4
1023,1023,1023,1023,4
145,54,467,35,4
142,22,53,285,4
386,12,460,188,4
513,728,523,549,4
80,365,634,388,4
155,194,177,29,4
424,155,444,485,4
826,1023,471,1023,4
131,1023,281,1023,4
442,123,149,466,4
148,212,800,1023,4
58,223,164,318,4
95,270,95,281,4
158,420,868,1023,4
580,93,525,212,4
456,142,974,408,4
16,143,102,22,4
643,557,27,218,4
197,160,421,233,4
20,320,114,731,4
213,159,550,939,4
79,70,25,1023,4
418,179,302,1023,4
542,951,246,236,4
312,94,414,29,4
1023,766,325,107,4
49,309,584,426,4
299,615,90,361,4
147,305,454,1023,4
34,35,138,707,4
640,388,1023,1023,4
20,70,243,359,4
163,209,277,981,4
397,256,304,601,4
160,480,732,124,4
617,154,28,955,4
10,547,547,232,4
189,288,683,1023,4
33,86,1023,1023,4
1023,1023,148,1001,4
199,613,1023,342,4
156,156,338,649,4
30,23,104,118,4
188,376,590,285,4
153,35,194,487,4
392,286,120,292,4
239,87,144,724,4
378,336,674,512,4
158,406,426,1023,4
543,1023,119,932,4
33,36,375,214,4
299,217,243,16,4
943,1023,71,1023,4
524,528,1023,979,4
49,29,113,380,4
230,371,444,1023,4
195,35,511,785,4
31,166,441,808,4
426,307,759,453,4
381,612,686,819,4
179,11,930,299,4
338,340,59,81,4
155,150,854,257,4
40,174,76,74,4
100,208,387,691,4
190,63,1023,704,4
289,442,701,1023,4
11,293,487,1023,4
150,526,558,244,4
157,113,1023,1023,4
249,30,536,686,4
143,279,956,692,4
203,363,680,536,4
108,206,37,130,4
129,5,311,6,4
484,244,110,223,4
848,499,729,69,4
9,79,308,258,4
152,78,550,130,4
416,540,509,87,4
146,223,301,86,4
48,179,567,90,4
22,32,355,45,4
83,127,212,512,4
279,572,42,29,4
63,185,471,552,4
84,132,79,21,4
28,8,624,666,4
0,84,147,58,4
146,68,540,541,4
9,96,23,65,4
141,234,195,15,4
145,240,84,339,4
184,476,51,689,4
6,233,86,122,4
58,891,588,1023,4
26,474,628,921,4
389,592,202,354,4
17,34,442,841,4
350,1023,452,777,4
