Ch1,Ch2,Ch3,Ch4,label
20,6,57,18,1
26,6,41,75,1
131,7,15,2,1
18,6,119,87,1
2,6,5,0,1
25,6,162,113,1
4,6,83,103,1
14,6,35,124,1
123,6,36,37,1
77,6,37,15,1
5,6,23,40,1
95,6,53,3,1
24,6,26,0,1
123,6,27,0,1
139,6,8,5,1
47,6,7,29,1
14,6,29,12,1
27,6,12,33,1
28,6,59,64,1
97,6,93,71,1
14,6,9,0,1
122,6,3,0,1
8,6,55,0,1
2,6,28,24,1
116,6,21,0,1
8,6,64,16,1
31,6,91,5,1
191,6,32,0,1
139,6,43,10,1
6,6,54,0,1
192,6,90,54,1
27,6,6,33,1
221,6,121,97,1
37,6,54,19,1
60,6,166,38,1
25,6,62,35,1
47,6,42,0,1
11,6,8,7,1
121,6,19,0,1
65,7,37,10,1
7,6,44,33,1
167,6,40,0,1
127,6,36,6,1
150,6,50,44,1
217,6,35,9,1
40,6,53,34,1
108,6,83,30,1
110,6,4,1,1
230,6,112,75,1
88,6,20,0,1
82,6,7,0,1
295,6,41,50,1
50,6,42,16,1
40,6,54,36,1
3,6,35,76,1
52,6,21,38,1
155,6,99,111,1
14,6,83,29,1
73,6,5,0,1
57,6,132,161,1
22,6,93,87,1
244,6,49,109,1
19,6,104,53,1
1,6,73,22,1
91,6,43,9,1
104,6,56,50,1
142,6,7,2,1
82,6,105,67,1
24,6,33,7,1
16,6,144,153,1
234,6,253,182,1
92,6,62,108,1
129,6,64,82,1
161,7,11,0,1
132,6,28,0,1
336,6,213,248,1
51,6,22,182,1
12,6,250,203,1
461,6,257,256,1
142,6,350,198,1
94,6,276,80,1
1,6,40,0,1
184,6,184,53,1
327,6,29,52,1
25,7,259,200,1
13,6,3,16,1
275,6,52,15,1
127,6,165,86,1
126,6,343,163,1
32,6,15,9,1
1,6,9,71,1
11,6,42,44,1
6,6,263,264,1
67,6,153,111,1
163,6,124,134,1
12,6,36,0,1
189,6,38,24,1
122,6,148,65,1
67,6,26,32,1
41,6,227,143,1
7,6,82,166,1
1,6,211,50,1
30,6,252,50,1
150,6,16,43,1
238,6,204,172,1
126,6,132,26,1
358,6,189,118,1
65,6,368,343,1
305,6,83,123,1
42,6,225,212,1
4,6,23,72,1
217,6,196,132,1
24,6,147,95,1
4,6,153,37,1
225,6,187,143,1
55,6,44,68,1
238,6,113,83,1
186,6,64,4,1
19,6,3,27,1
326,6,74,58,1
365,6,305,0,1
31,6,292,185,1
63,6,77,73,1
58,6,19,46,1
50,6,84,163,1
416,6,318,279,1
362,6,247,171,1
11,6,345,119,1
117,6,92,18,1
13,6,228,81,1
163,6,281,224,1
31,6,93,43,1
165,6,194,83,1
44,6,102,86,1
67,6,148,172,1
74,6,383,112,1
5,6,303,32,1
267,6,36,50,1
33,6,280,60,1
59,6,71,141,1
31,6,90,8,1
131,6,22,84,1
12,6,22,184,1
362,6,35,3,1
393,6,577,370,1
131,6,425,307,1
339,6,249,144,1
35,7,214,217,1
43,6,146,48,1
175,6,238,120,1
48,6,312,366,1
407,6,55,109,1
26,6,654,394,1
34,6,199,256,1
86,6,234,146,1
12,6,29,147,1
210,6,141,75,1
143,6,315,222,1
47,7,183,73,1
194,6,8,88,1
136,6,321,247,1
34,6,48,186,1
289,6,568,482,1
283,7,194,294,1
197,7,473,378,1
373,7,11,65,1
4,6,522,393,1
28,7,249,450,1
25,7,9,60,1
13,6,53,208,1
9,6,169,220,1
191,6,476,334,1
207,6,539,521,1
66,6,314,290,1
263,6,273,283,1
177,6,132,150,1
5,6,214,120,1
26,6,3,102,1
171,6,93,154,1
206,6,47,45,1
88,6,442,415,1
194,6,422,11,1
118,6,236,398,1
9,6,31,150,1
311,6,43,36,1
52,6,38,81,1
171,6,170,47,1
22,6,356,161,1
121,6,277,252,1
165,7,61,214,1
94,6,237,333,1
176,6,88,208,1
121,6,192,386,1
52,7,14,235,1
115,6,137,196,1
249,7,119,98,1
49,6,296,40,1
97,6,205,158,1
56,6,150,50,1
76,6,109,220,1
35,6,84,87,1
94,6,175,123,1
155,6,46,189,1
36,6,153,185,1
67,6,131,143,1
119,6,143,139,1
155,6,123,14,1
131,6,266,102,1
11,6,252,231,1
102,6,83,346,1
183,6,49,226,1
214,6,116,47,1
17,6,157,261,1
232,6,99,124,1
151,6,185,205,1
71,6,146,74,1
212,6,228,315,1
16,6,547,329,1
67,5,778,731,1
196,7,45,109,1
173,6,620,629,1
198,7,93,143,1
157,6,720,674,1
303,7,36,386,1
201,6,627,635,1
113,6,53,389,1
45,6,498,425,1
138,6,468,538,1
17,7,138,31,1
102,6,451,561,1
74,6,116,48,1
170,6,945,620,1
169,7,138,138,1
125,6,454,376,1
35,7,7,23,1
331,6,652,452,1
84,6,73,104,1
216,6,681,446,1
234,6,323,109,1
8,6,480,492,1
65,7,113,270,1
39,6,345,620,1
125,6,102,84,1
200,6,163,357,1
162,6,294,332,1
192,6,173,88,1
73,6,510,548,1
419,6,230,353,1
17,6,75,4,1
99,6,183,116,1
121,6,225,211,1
311,6,174,334,1
107,6,66,82,1
112,6,243,463,1
16,6,38,145,1
183,7,81,21,1
297,6,298,382,1
5,6,89,179,1
45,6,231,180,1
121,6,54,93,1
104,6,171,106,1
29,6,245,417,1
102,6,416,218,1
69,6,354,461,1
161,7,92,60,1
120,7,127,184,1
73,6,565,598,1
48,6,427,567,1
144,7,63,320,1
65,7,456,231,1
128,6,805,833,1
24,6,490,561,1
283,6,344,346,1
3,6,10,212,1
92,6,69,88,1
53,6,406,282,1
74,6,343,258,1
55,7,117,151,1
259,6,551,499,1
301,6,809,537,1
157,7,142,177,1
89,6,337,261,1
132,7,111,97,1
6,6,716,930,1
71,6,184,526,1
33,6,420,464,1
340,6,528,402,1
210,6,381,618,1
164,6,637,567,1
1,7,106,39,1
46,7,336,20,1
108,7,81,0,1
119,6,274,115,1
300,6,24,1,1
182,6,56,225,1
37,6,402,447,1
105,6,119,286,1
68,7,3,173,1
1,6,423,572,1
27,6,150,241,1
233,6,27,65,1
80,6,69,192,1
212,6,307,65,1
25,6,142,139,1
264,6,96,106,1
53,6,263,193,1
300,6,15,169,1
24,6,586,566,1
25,6,460,534,1
239,7,376,354,1
0,7,298,242,1
462,7,125,148,1
51,6,381,343,1
12,6,134,338,1
112,6,125,306,1
51,6,376,283,1
67,6,194,85,1
31,6,324,208,1
131,6,79,241,1
42,6,116,44,1
234,6,115,312,1
240,6,157,128,1
67,6,123,51,1
53,6,133,83,1
115,6,60,130,1
90,6,176,168,1
35,6,43,92,1
6,6,23,101,1
36,6,201,274,1
34,6,6,296,1
20,7,137,35,1
3,6,153,91,1
103,6,145,37,1
87,6,93,55,1
156,6,304,290,1
183,6,256,349,1
96,6,102,125,1
137,6,72,185,1
107,6,130,41,1
55,6,102,52,1
84,6,90,29,1
317,6,18,173,1
52,6,293,55,1
6,6,120,65,1
8,6,19,67,1
119,6,415,554,1
34,6,46,0,1
81,6,45,0,1
182,6,110,62,1
174,6,355,299,1
81,6,200,278,1
215,6,90,0,1
115,6,9,23,1
22,6,140,86,1
26,6,361,263,1
138,7,23,5,1
8,6,173,191,1
103,6,207,239,1
103,6,408,158,1
66,6,231,31,1
17,6,164,67,1
10,6,92,187,1
10,6,128,263,1
87,6,13,140,1
84,6,84,27,1
13,6,74,39,1
21,6,121,149,1
76,6,41,5,1
47,6,136,51,1
56,6,124,134,1
92,6,51,165,1
222,6,68,79,1
0,6,55,23,1
97,6,55,26,1
4,6,193,173,1
258,6,156,162,1
181,6,72,148,1
50,6,32,0,1
86,6,184,280,1
120,6,129,276,1
5,6,230,147,1
72,7,80,155,1
43,6,76,62,1
67,6,16,52,1
32,6,163,125,1
34,6,312,280,1
42,6,299,201,1
2,7,142,34,1
14,6,186,108,1
180,6,279,130,1
15,6,112,71,1
9,6,241,239,1
37,6,123,129,1
66,6,17,20,1
37,6,199,258,1
35,6,30,84,1
65,6,9,38,1
242,6,298,214,1
6,6,137,1,1
218,6,125,8,1
2,6,9,79,1
59,6,349,61,1
105,6,325,175,1
194,6,61,0,1
203,6,345,105,1
159,6,127,182,1
26,6,26,68,1
51,6,192,147,1
230,6,221,270,1
18,6,385,276,1
25,6,2,0,1
5,6,111,128,1
22,6,21,46,1
73,6,256,205,1
155,6,195,75,1
117,6,277,107,1
7,6,284,129,1
43,6,105,64,1
56,6,120,28,1
200,6,40,130,1
9,6,140,92,1
84,6,103,211,1
48,6,40,90,1
178,6,333,286,1
172,6,317,255,1
79,6,93,115,1
45,6,315,216,1
61,6,214,108,1
63,6,92,65,1
46,6,40,0,1
103,6,18,148,1
178,6,87,0,1
195,6,25,45,1
32,6,51,4,1
70,6,99,0,1
113,7,15,91,1
70,6,199,177,1
87,6,54,13,1
152,6,91,47,1
59,6,271,234,1
109,6,178,60,1
104,6,105,54,1
115,6,187,160,1
115,6,253,212,1
45,6,324,245,1
63,6,42,4,1
40,6,30,0,1
173,6,49,120,1
152,6,262,192,1
108,6,178,333,1
102,6,245,7,1
157,6,56,68,1
95,6,67,19,1
120,6,235,100,1
304,6,120,4,1
18,6,99,32,1
284,6,40,9,1
23,6,72,0,1
0,6,96,122,1
121,6,185,54,1
15,6,23,46,1
54,6,171,327,1
37,6,196,239,1
157,6,193,135,1
70,6,21,0,1
86,6,183,189,1
28,6,184,130,1
30,6,102,104,1
139,6,234,293,1
55,6,90,83,1
69,6,45,113,1
166,6,157,83,1
27,6,1,23,1
436,6,112,82,1
124,6,3,109,1
210,6,54,123,1
225,6,289,241,1
63,6,110,197,1
224,6,140,44,1
17,6,82,145,1
170,6,102,49,1
108,6,153,137,1
131,6,275,35,1
66,6,116,69,1
25,6,53,17,1
82,6,63,0,1
213,6,2,3,1
81,6,6,27,1
88,6,118,50,1
61,6,96,61,1
8,6,230,156,1
9,6,81,41,1
30,6,317,286,1
112,6,71,144,1
132,6,218,125,1
106,6,303,221,1
31,6,212,72,1
91,6,229,167,1
134,6,71,25,1
28,6,43,10,1
173,6,88,0,1
43,6,195,9,1
88,6,3,42,1
191,6,339,129,1
35,6,333,30,1
89,6,109,130,1
24,6,30,0,1
80,6,154,294,1
2,6,99,73,1
5,6,322,407,1
60,6,41,45,1
78,6,69,119,1
32,6,81,35,1
39,6,158,0,1
193,6,202,127,1
60,6,68,31,1
9,6,2,0,1
97,6,7,6,1
191,6,25,110,1
132,6,283,196,1
180,6,100,0,1
22,6,90,56,1
72,6,196,194,1
105,6,191,131,1
23,6,71,0,1
215,6,85,0,1
1,6,32,90,1
105,7,121,118,1
45,6,42,0,1
121,6,170,162,1
50,6,4,5,1
46,6,191,125,1
90,7,24,27,1
136,6,225,149,1
0,6,138,79,1
58,6,104,16,1
123,6,75,2,1
39,6,12,36,1
163,6,281,253,1
23,6,176,81,1
94,6,151,78,1
44,6,325,137,1
1,6,10,2,1
52,6,34,23,1
108,6,154,50,1
184,6,132,11,1
43,6,63,13,1
48,6,77,57,1
165,6,108,40,1
50,6,226,131,1
100,6,308,88,1
50,6,364,137,1
99,6,164,227,1
40,6,238,188,1
9,6,127,48,1
11,6,148,72,1
71,6,42,0,1
91,6,34,5,1
31,6,107,149,1
74,6,21,8,1
136,6,4,15,1
25,6,199,112,1
2,6,79,121,1
70,6,161,41,1
147,6,92,71,1
109,6,27,48,1
277,6,26,37,1
1,6,46,0,1
191,6,298,154,1
188,6,28,36,1
30,6,134,84,1
52,6,91,0,1
4,6,199,209,1
8,6,211,108,1
114,6,227,251,1
7,6,83,87,1
68,6,50,21,1
33,6,106,163,1
68,6,201,154,1
182,6,194,0,1
156,6,399,158,1
48,7,115,13,1
71,6,140,64,1
36,6,137,0,1
32,7,74,0,1
47,6,3,37,1
184,6,74,12,1
23,6,93,3,1
72,6,137,104,1
43,6,7,18,1
24,6,285,242,1
73,6,165,159,1
57,6,568,513,1
128,6,218,135,1
18,6,81,103,1
14,6,58,0,1
27,6,256,135,1
78,6,143,48,1
4,6,168,100,1
116,6,76,0,1
165,6,7,21,1
300,6,27,28,1
128,6,41,0,1
32,6,70,34,1
40,6,110,120,1
86,6,82,1,1
52,6,121,127,1
65,6,59,97,1
39,6,53,68,1
1,6,105,231,1
14,6,51,45,1
187,6,166,285,1
16,6,62,43,1
11,6,107,276,1
158,6,151,14,1
28,6,40,43,1
152,6,151,34,1
20,6,16,45,1
127,6,103,10,1
87,6,83,0,1
0,6,32,25,1
79,6,38,1,1
95,6,41,0,1
13,6,20,0,1
129,6,165,71,1
67,6,83,0,1
68,6,83,13,1
87,6,97,60,1
84,7,25,13,1
60,6,194,71,1
95,6,93,90,1
12,6,246,105,1
73,6,89,55,1
142,6,315,159,1
181,6,80,19,1
193,6,185,124,1
100,6,66,0,1
4,6,59,56,1
45,6,67,45,1
21,6,47,13,1
268,6,2,18,1
5,6,38,35,1
2,6,88,11,1
15,6,268,131,1
10,6,137,4,1
27,6,53,0,1
22,6,48,72,1
1,6,36,28,1
209,6,103,56,1
55,6,142,144,1
161,6,41,13,1
65,6,316,276,1
21,6,39,42,1
24,6,162,198,1
136,6,88,120,1
340,6,48,17,1
81,6,279,267,1
15,6,100,59,1
54,6,107,82,1
120,6,70,6,1
3,6,155,37,1
111,6,21,80,1
56,6,131,92,1
6,6,283,72,1
209,6,138,111,1
196,6,407,149,1
18,6,114,0,1
102,6,127,35,1
292,6,150,103,1
195,6,158,77,1
54,6,73,111,1
104,7,56,14,1
87,6,177,31,1
91,7,60,60,1
8,6,184,140,1
19,6,147,86,1
96,6,132,113,1
120,6,26,45,1
103,6,81,0,1
192,6,288,198,1
53,6,20,8,1
5,6,199,102,1
115,6,29,0,1
3,6,337,268,1
120,6,64,27,1
118,6,244,106,1
72,6,5,44,1
20,6,134,182,1
2,6,5,76,1
191,6,101,296,1
27,6,7,38,1
115,6,190,310,1
190,6,194,219,1
4,6,213,185,1
131,6,57,83,1
14,6,158,45,1
22,6,165,38,1
87,6,211,21,1
79,6,108,307,1
1,6,305,92,1
21,6,243,217,1
144,6,21,0,1
85,6,160,146,1
8,6,141,101,1
54,6,206,81,1
56,6,303,153,1
33,6,409,288,1
41,6,273,95,1
85,6,135,193,1
188,6,29,6,1
266,6,26,32,1
35,6,18,138,1
232,6,14,285,1
272,6,130,72,1
233,6,6,123,1
121,6,72,3,1
281,6,232,220,1
79,6,228,213,1
199,6,15,28,1
110,6,57,49,1
137,6,92,20,1
10,6,512,507,1
160,6,51,27,1
88,6,488,477,1
118,7,38,3,1
184,6,479,363,1
44,6,71,93,1
183,6,465,218,1
154,6,92,123,1
70,7,305,182,1
150,6,61,212,1
169,6,118,99,1
4,6,124,263,1
222,6,27,43,1
73,7,74,210,1
49,6,157,126,1
125,7,186,121,1
25,6,99,50,1
91,6,13,82,1
106,6,479,341,1
200,6,82,178,1
91,6,343,164,1
187,6,442,224,1
235,6,178,206,1
68,6,81,207,1
107,6,251,215,1
44,6,271,342,1
37,6,47,0,1
234,6,323,486,1
231,6,65,59,1
295,6,471,626,1
6,6,182,422,1
193,6,521,463,1
14,6,309,593,1
212,6,397,138,1
201,6,268,414,1
58,6,318,268,1
89,6,265,325,1
20,6,138,79,1
177,6,788,704,1
180,7,241,386,1
107,5,893,544,1
186,5,587,609,1
87,6,195,203,1
0,6,341,385,1
17,6,355,262,1
55,6,206,58,1
42,6,184,202,1
162,6,325,157,1
125,6,156,113,1
111,6,31,107,1
212,6,43,41,1
348,6,384,370,1
137,6,195,273,1
118,6,304,169,1
3,6,287,327,1
120,6,25,13,1
95,6,633,519,1
39,6,390,293,1
102,6,568,476,1
79,6,444,317,1
78,6,514,133,1
28,6,682,411,1
6,6,33,176,1
55,6,109,201,1
161,6,458,532,1
47,6,143,94,1
256,6,151,114,1
164,6,189,39,1
143,6,361,93,1
4,6,168,22,1
16,6,12,53,1
50,6,238,93,1
7,6,615,418,1
77,7,38,6,1
11,6,447,320,1
49,7,27,4,1
102,6,6,111,1
234,6,362,434,1
231,7,246,193,1
74,6,330,483,1
353,7,71,108,1
324,6,110,196,1
17,6,225,296,1
86,7,168,45,1
34,6,398,371,1
182,6,698,417,1
370,6,84,147,1
69,6,104,96,1
5,6,111,286,1
7,6,349,200,1
107,6,306,381,1
72,6,3,23,1
14,6,198,331,1
4,6,171,103,1
86,6,153,195,1
145,6,432,349,1
204,6,428,383,1
159,7,207,417,1
21,6,613,263,1
130,6,455,603,1
221,6,36,138,1
6,6,100,116,1
95,6,11,364,1
34,7,192,254,1
139,6,68,234,1
54,6,442,565,1
330,7,159,35,1
41,7,76,267,1
96,6,55,102,1
96,6,10,190,1
147,6,222,67,1
58,6,332,285,1
357,6,53,170,1
412,6,62,406,1
106,6,335,29,1
6,6,162,186,1
119,6,383,584,1
599,6,292,686,1
43,7,76,130,1
288,6,100,257,1
18,6,123,116,1
3,6,96,89,1
154,6,18,186,1
8,6,157,53,1
16,6,243,98,1
152,6,492,472,1
199,6,29,304,1
312,6,541,354,1
4,6,325,460,1
72,6,545,500,1
100,6,133,9,1
65,6,114,142,1
182,6,261,358,1
102,6,75,160,1
4,6,487,559,1
134,6,140,36,1
131,6,478,507,1
70,7,146,232,1
102,5,698,919,1
19,7,153,33,1
7,6,45,381,1
133,6,496,268,1
140,6,352,386,1
3,6,244,497,1
188,6,287,16,1
51,6,178,161,1
52,6,105,94,1
48,6,7,102,1
83,6,67,23,1
101,6,158,89,1
8,6,413,425,1
189,6,266,292,1
475,6,305,155,1
125,6,388,228,1
19,6,22,1,1
147,6,57,38,1
31,6,347,311,1
135,6,310,375,1
245,6,64,161,1
31,6,110,72,1
57,7,103,59,1
134,7,119,234,1
243,7,338,206,1
55,7,381,521,1
316,6,350,379,1
3,6,572,392,1
173,6,447,548,1
165,6,508,545,1
26,6,365,446,1
90,6,338,354,1
120,6,168,316,1
142,6,17,90,1
42,6,98,295,1
153,6,4,162,1
24,6,199,345,1
35,6,9,225,1
111,6,512,538,1
28,7,235,187,1
57,6,25,155,1
331,6,159,271,1
208,6,169,289,1
30,6,25,104,1
126,6,14,87,1
39,6,72,113,1
97,6,3,68,1
2,6,389,317,1
133,7,267,144,1
276,6,404,399,1
29,6,381,398,1
49,6,25,61,1
214,6,260,141,1
151,6,66,105,1
95,6,173,32,1
231,6,209,162,1
26,7,127,262,1
14,6,88,116,1
220,6,6,88,1
218,6,5,5,1
57,6,231,20,1
315,6,149,136,1
242,6,138,153,1
27,6,98,59,1
25,7,254,201,1
159,6,612,666,1
10,6,171,232,1
169,6,353,429,1
4,6,54,144,1
70,6,41,120,1
153,6,159,76,1
105,6,161,146,1
254,6,72,6,1
112,6,193,137,1
78,6,75,101,1
130,6,349,357,1
20,6,536,382,1
67,7,122,103,1
51,6,17,3,1
238,6,31,73,1
191,6,193,90,1
58,7,30,28,1
44,6,26,106,1
178,6,32,73,1
175,6,54,0,1
130,6,17,51,1
82,6,69,19,1
149,6,27,30,1
135,6,17,1,1
20,6,58,44,1
16,6,49,139,1
109,6,155,130,1
152,6,79,27,1
6,6,13,83,1
144,6,331,373,1
9,6,118,47,1
143,6,129,174,1
80,6,6,69,1
70,6,55,44,1
99,6,177,119,1
43,6,122,136,1
7,6,152,246,1
36,6,7,60,1
145,6,320,296,1
144,6,8,19,1
2,6,105,125,1
102,6,20,0,1
9,6,27,23,1
92,6,147,97,1
3,6,69,107,1
104,6,21,23,1
208,6,114,16,1
224,6,11,147,1
48,6,95,0,1
187,6,41,0,1
7,6,141,152,1
260,6,207,205,1
55,6,68,10,1
156,6,210,246,1
323,6,210,179,1
111,6,228,229,1
147,6,96,33,1
18,6,312,208,1
4,6,63,45,1
211,6,31,24,1
87,6,359,267,1
50,6,182,207,1
82,6,339,469,1
25,6,65,33,1
27,6,90,134,1
17,6,104,66,1
55,6,84,55,1
56,6,177,150,1
86,6,232,242,1
39,6,17,19,1
44,6,327,322,1
66,6,7,136,1
127,6,264,87,1
34,6,393,441,1
102,6,146,0,1
37,6,165,79,1
167,6,128,56,1
206,6,3,19,1
100,6,53,48,1
230,6,59,140,1
67,6,69,3,1
1,6,34,30,1
58,6,472,409,1
20,7,242,193,1
184,6,534,294,1
161,6,260,98,1
41,6,45,111,1
113,6,10,89,1
100,6,60,72,1
21,6,161,15,1
188,7,25,72,1
80,6,117,95,1
95,6,61,53,1
59,6,18,50,1
460,6,13,68,1
204,6,147,16,1
219,6,41,116,1
119,6,30,112,1
23,6,247,163,1
155,6,18,53,1
132,6,144,45,1
33,6,138,90,1
91,6,114,171,1
17,6,80,86,1
69,6,163,201,1
34,6,417,217,1
55,6,122,191,1
199,6,191,204,1
15,6,13,21,1
322,6,131,183,1
33,6,67,46,1
92,6,103,129,1
37,6,10,22,1
150,6,116,75,1
20,6,349,139,1
73,6,9,49,1
100,6,150,204,1
46,7,17,1,1
79,6,336,365,1
35,6,252,199,1
21,6,63,147,1
187,6,123,6,1
223,6,178,172,1
28,6,20,13,1
155,7,132,0,1
65,6,51,79,1
127,6,180,119,1
116,6,196,140,1
132,6,97,70,1
149,6,176,124,1
23,6,94,57,1
180,6,81,49,1
49,6,147,64,1
142,6,161,55,1
258,6,443,294,1
109,6,66,29,1
149,6,67,108,1
51,6,18,25,1
136,6,48,0,1
217,6,188,3,1
74,6,275,53,1
18,6,14,46,1
18,6,259,162,1
119,6,162,21,1
212,6,55,7,1
0,6,130,84,1
53,6,191,263,1
99,6,39,44,1
157,6,21,8,1
99,6,133,281,1
127,6,213,35,1
154,6,125,171,1
73,6,385,208,1
72,6,201,46,1
171,6,115,60,1
91,6,48,98,1
93,6,54,0,1
254,6,304,52,1
60,6,173,107,1
288,7,6,0,1
30,6,60,91,1
256,6,101,204,1
177,6,134,169,1
66,7,60,24,1
287,6,234,16,1
262,6,565,305,1
106,6,54,164,1
205,6,30,182,1
10,6,59,46,1
88,6,192,92,1
39,6,2,27,1
319,6,16,21,1
125,6,170,0,1
98,6,5,12,1
219,6,88,39,1
49,6,2,6,1
43,6,269,200,1
147,6,9,40,1
65,6,4,13,1
125,6,109,101,1
141,6,522,382,1
187,6,146,106,1
131,6,204,253,1
89,6,39,46,1
303,6,90,59,1
186,7,65,19,1
95,6,34,35,1
67,6,20,65,1
39,6,220,68,1
45,6,91,30,1
63,6,83,19,1
170,6,56,112,1
66,6,374,133,1
73,6,21,106,1
210,6,57,69,1
14,6,277,170,1
43,6,292,280,1
188,6,127,190,1
38,6,191,100,1
89,6,18,25,1
142,6,23,37,1
88,6,64,144,1
29,6,69,112,1
55,6,62,123,1
276,6,154,59,1
152,6,208,150,1
88,6,69,0,1
140,6,35,36,1
214,6,136,142,1
173,6,199,119,1
134,6,166,130,1
30,6,101,6,1
218,6,32,24,1
61,6,80,68,1
350,6,51,48,1
137,6,132,116,1
23,6,66,41,1
131,6,10,69,1
168,6,90,74,1
133,6,34,4,1
38,6,17,80,1
164,6,166,12,1
110,6,76,51,1
145,6,197,65,1
156,6,263,71,1
61,6,234,111,1
204,6,429,290,1
130,6,368,269,1
153,6,323,293,1
221,6,334,298,1
145,6,11,78,1
174,6,25,150,1
85,6,132,41,1
14,6,214,7,1
203,6,19,96,1
87,6,282,101,1
123,6,152,84,1
223,6,124,137,1
162,6,38,35,1
435,6,14,66,1
187,7,83,70,1
203,6,35,29,1
161,6,174,94,1
35,6,245,198,1
184,6,20,0,1
165,6,70,63,1
73,6,169,70,1
3,6,7,86,1
53,6,41,178,1
91,6,277,74,1
41,6,281,101,1
19,6,196,19,1
5,6,28,117,1
82,6,129,112,1
202,6,68,99,1
11,6,130,79,1
9,6,142,266,1
3,6,184,0,1
39,6,201,116,1
49,6,93,52,1
50,6,30,0,1
7,6,59,1,1
124,6,51,0,1
106,6,95,60,1
43,6,18,0,1
26,6,130,36,1
185,6,6,39,1
148,6,97,94,1
54,6,235,69,1
49,6,216,193,1
17,6,221,142,1
68,6,84,68,1
47,6,324,235,1
46,6,137,24,1
124,6,530,394,1
116,6,123,110,1
39,6,182,116,1
47,6,216,23,1
124,6,117,0,1
16,6,98,0,1
208,6,27,0,1
159,6,30,11,1
154,6,122,17,1
16,6,38,9,1
105,6,3,8,1
3,6,14,0,1
63,6,143,74,1
153,6,47,12,1
106,6,171,145,1
59,6,96,115,1
60,6,13,68,1
212,6,210,153,1
293,6,146,140,1
162,6,207,83,1
254,6,104,66,1
58,6,11,41,1
101,6,87,21,1
2,6,89,73,1
16,6,50,35,1
77,6,222,48,1
66,6,56,51,1
19,6,24,63,1
336,6,72,26,1
41,6,338,98,1
194,6,100,103,1
66,6,27,50,1
118,6,44,88,1
101,6,45,21,1
85,6,158,51,1
131,6,130,131,1
73,6,185,7,1
280,6,11,50,1
246,6,16,28,1
219,6,69,14,1
117,6,15,34,1
46,6,11,0,1
93,6,153,21,1
33,6,26,121,1
2,6,329,143,1
9,6,205,135,1
103,6,228,4,1
70,6,79,67,1
31,6,134,44,1
0,6,25,109,1
198,6,108,121,1
162,6,179,50,1
106,6,229,190,1
2,6,96,75,1
2,6,154,0,1
72,6,292,207,1
31,6,14,1,1
114,6,26,49,1
107,6,204,229,1
136,6,259,271,1
126,6,367,392,1
7,6,228,217,1
50,6,222,111,1
47,6,444,331,1
147,6,31,67,1
163,6,253,214,1
60,6,64,29,1
21,6,12,178,1
90,6,456,192,1
75,6,45,0,1
46,6,79,78,1
83,6,350,47,1
50,6,16,32,1
2,6,583,218,1
164,6,137,8,1
252,6,104,113,1
291,6,128,44,1
184,6,30,86,1
44,6,22,36,1
46,6,181,73,1
203,6,70,0,1
200,6,243,155,1
4,6,279,183,1
10,6,139,60,1
246,6,133,79,1
162,6,51,126,1
10,6,313,100,1
139,6,342,330,1
401,6,248,48,1
29,6,317,304,1
253,6,80,48,1
52,6,32,142,1
193,6,206,120,1
84,6,183,92,1
63,6,22,98,1
12,6,241,320,1
31,6,32,78,1
53,6,224,154,1
83,6,213,80,1
42,6,629,293,1
199,6,396,331,1
137,6,107,4,1
411,6,592,318,1
143,6,218,204,1
233,6,135,5,1
40,6,361,213,1
201,6,314,399,1
78,6,198,229,1
171,6,286,295,1
244,6,61,0,1
13,6,55,0,1
173,6,35,12,1
77,6,154,154,1
304,6,126,134,1
53,6,53,0,1
40,6,146,84,1
5,6,362,292,1
157,6,85,52,1
217,6,107,36,1
220,6,33,0,1
149,6,399,211,1
38,5,979,819,1
240,7,175,350,1
377,6,377,282,1
40,6,714,549,1
180,6,249,282,1
97,6,80,9,1
97,6,422,248,1
35,6,191,53,1
48,6,49,3,1
284,6,8,23,1
95,6,228,109,1
311,6,135,322,1
146,6,22,186,1
87,6,443,538,1
99,6,180,194,1
149,6,273,273,1
26,6,149,117,1
255,6,65,19,1
87,6,50,142,1
327,6,398,453,1
50,6,461,404,1
105,6,369,179,1
214,6,565,441,1
74,7,103,227,1
157,6,456,241,1
99,6,369,416,1
97,7,157,110,1
129,6,293,366,1
157,6,54,253,1
130,6,564,523,1
29,6,277,303,1
113,6,158,184,1
444,6,431,293,1
236,6,357,440,1
13,7,251,60,1
291,7,467,487,1
53,6,130,8,1
291,6,431,421,1
120,7,83,262,1
179,6,474,541,1
81,6,566,770,1
107,7,78,245,1
278,6,386,280,1
23,6,225,43,1
145,6,337,317,1
100,6,78,79,1
160,6,73,55,1
3,6,122,137,1
26,6,185,292,1
34,6,125,96,1
374,6,86,9,1
46,6,355,233,1
199,6,2,90,1
64,6,16,29,1
78,6,361,372,1
37,6,67,204,1
168,6,82,144,1
99,6,317,168,1
115,6,29,102,1
144,6,502,371,1
83,6,172,198,1
429,6,450,439,1
121,6,19,34,1
136,6,492,491,1
74,6,224,324,1
46,6,244,131,1
162,6,269,389,1
156,6,19,0,1
244,6,37,269,1
304,6,391,293,1
83,6,379,651,1
113,7,297,68,1
14,6,338,511,1
114,6,54,81,1
139,6,105,76,1
251,6,238,195,1
410,5,774,805,1
87,6,567,346,1
249,7,56,23,1
375,6,164,239,1
149,6,77,64,1
227,6,134,197,1
49,6,55,100,1
202,6,77,200,1
94,6,421,172,1
43,6,271,93,1
42,6,381,220,1
31,6,523,339,1
150,6,361,485,1
201,6,267,118,1
169,6,321,536,1
79,6,456,480,1
50,6,310,448,1
48,6,500,354,1
85,6,759,676,1
301,6,133,359,1
48,6,12,81,1
411,7,62,48,1
37,6,145,30,1
71,6,568,863,1
307,7,346,260,1
489,5,931,874,1
116,5,339,586,1
372,6,399,328,1
245,7,54,27,1
56,6,166,350,1
280,6,520,447,1
65,6,570,659,1
21,6,54,32,1
4,6,634,896,1
20,7,79,58,1
117,7,283,190,1
90,6,225,392,1
56,6,78,170,1
233,6,320,430,1
100,6,305,250,1
228,6,448,495,1
159,7,100,261,1
47,6,298,192,1
99,6,99,52,1
124,6,35,48,1
234,6,383,344,1
278,6,231,177,1
9,6,341,350,1
143,6,194,179,1
82,6,115,58,1
305,6,70,132,1
154,6,161,7,1
180,6,187,242,1
59,6,253,404,1
54,7,74,35,1
38,6,482,392,1
67,7,99,81,1
39,6,411,445,1
59,6,6,39,1
232,7,92,76,1
80,6,156,163,1
122,6,188,49,1
124,6,68,85,1
142,6,119,254,1
115,6,26,174,1
2,7,37,37,1
75,6,139,85,1
64,6,147,147,1
136,6,3,63,1
99,6,6,19,1
1,6,343,39,1
247,6,32,111,1
191,6,33,0,1
163,6,58,142,1
10,6,285,172,1
39,6,163,324,1
13,6,42,21,1
41,6,194,234,1
65,6,47,64,1
121,6,183,66,1
159,6,177,223,1
202,6,44,22,1
19,6,240,135,1
0,6,10,21,1
118,6,423,314,1
178,7,93,78,1
95,6,248,373,1
141,6,365,364,1
128,6,237,81,1
75,6,203,188,1
12,6,35,17,1
20,6,16,75,1
44,6,290,455,1
87,6,37,9,1
59,6,235,439,1
90,6,115,173,1
128,6,346,387,1
180,6,30,0,1
49,6,113,11,1
148,6,312,300,1
22,6,135,13,1
89,7,111,80,1
9,6,31,0,1
55,6,115,103,1
87,6,87,95,1
103,6,198,461,1
240,6,159,118,1
94,6,262,386,1
10,6,345,187,1
46,6,448,417,1
44,7,21,173,1
211,6,37,47,1
2,6,196,144,1
103,6,138,226,1
61,6,14,31,1
294,6,263,334,1
25,6,24,0,1
107,6,22,23,1
142,6,21,7,1
123,6,18,40,1
169,6,313,243,1
161,6,244,165,1
61,6,100,262,1
243,6,101,47,1
215,6,43,87,1
183,6,318,90,1
4,6,439,470,1
100,7,39,285,1
39,6,151,39,1
1,6,86,116,1
115,6,8,15,1
200,6,50,89,1
57,6,90,25,1
45,6,114,170,1
100,6,190,267,1
122,6,251,69,1
83,6,140,106,1
170,6,102,60,1
82,6,291,403,1
9,6,95,109,1
226,6,294,255,1
45,6,176,213,1
287,6,91,96,1
175,6,315,254,1
38,6,77,55,1
299,6,97,113,1
326,6,44,25,1
160,6,131,133,1
31,6,26,7,1
83,6,48,161,1
149,6,224,19,1
82,7,58,36,1
4,6,249,376,1
56,6,88,33,1
92,6,249,331,1
51,6,258,283,1
30,6,62,23,1
194,7,134,0,1
11,6,98,170,1
98,6,139,0,1
93,6,297,334,1
33,6,162,144,1
126,6,486,527,1
104,6,151,27,1
62,6,225,211,1
220,6,51,157,1
35,6,105,95,1
104,6,42,9,1
22,6,54,8,1
32,6,104,137,1
254,6,376,256,1
102,6,127,104,1
39,6,326,207,1
114,6,394,165,1
75,6,41,125,1
224,6,232,297,1
42,6,101,113,1
93,6,204,410,1
55,6,49,37,1
30,6,107,226,1
225,6,89,186,1
196,6,2,82,1
109,6,156,236,1
276,6,364,476,1
327,7,39,46,1
50,5,803,779,1
278,6,144,107,1
67,6,58,0,1
215,6,14,56,1
83,6,293,283,1
193,6,57,0,1
125,6,38,48,1
42,6,206,116,1
73,6,42,0,1
32,6,214,10,1
26,6,55,51,1
180,6,33,3,1
184,6,83,0,1
143,6,167,65,1
76,6,385,420,1
88,6,160,244,1
5,6,172,112,1
48,6,300,217,1
3,6,84,116,1
72,6,91,68,1
289,6,126,66,1
34,6,179,57,1
11,6,142,44,1
172,6,273,133,1
146,6,144,72,1
89,6,15,11,1
34,6,3,8,1
16,6,142,150,1
30,6,126,81,1
131,6,93,162,1
63,6,116,79,1
195,6,132,119,1
275,6,178,106,1
182,6,326,236,1
6,6,126,99,1
83,6,110,17,1
219,6,138,70,1
61,6,15,2,1
20,6,6,69,1
19,6,28,32,1
67,6,234,98,1
107,6,26,43,1
58,6,14,81,1
12,6,20,0,1
39,6,304,186,1
210,6,104,14,1
304,6,487,351,1
52,6,172,113,1
42,6,71,27,1
30,6,50,86,1
75,6,217,180,1
124,6,14,13,1
50,6,4,68,1
207,6,186,53,1
7,7,122,19,1
208,6,241,125,1
79,6,321,55,1
43,6,147,76,1
64,6,77,3,1
65,6,59,0,1
131,6,318,145,1
146,6,114,0,1
82,6,62,54,1
7,6,231,143,1
24,6,57,20,1
41,6,429,292,1
69,6,355,200,1
52,6,130,171,1
110,6,118,237,1
7,6,127,202,1
137,6,48,56,1
70,6,183,130,1
128,6,11,0,1
119,6,223,0,1
88,6,357,80,1
43,6,162,115,1
175,6,449,183,1
8,6,241,226,1
128,6,68,11,1
3,6,248,260,1
112,6,21,21,1
87,6,135,111,1
24,6,154,98,1
17,6,281,226,1
106,6,265,196,1
149,6,84,61,1
43,6,75,31,1
14,6,178,137,1
30,6,208,77,1
48,6,72,13,1
175,6,275,88,1
147,6,39,0,1
39,6,88,56,1
452,6,115,46,1
97,6,8,27,1
323,6,57,27,1
57,6,53,2,1
99,6,323,264,1
281,6,103,50,1
133,6,354,76,1
311,6,66,61,1
107,6,292,82,1
106,6,23,24,1
73,7,204,68,1
176,6,41,32,1
125,6,74,7,1
254,6,160,2,1
92,6,14,90,1
28,7,196,68,1
70,6,43,19,1
204,6,56,37,1
133,6,76,131,1
147,6,101,5,1
118,6,92,48,1
84,6,131,0,1
212,6,418,267,1
110,6,19,20,1
94,6,71,0,1
149,7,54,49,1
247,6,100,56,1
371,6,50,6,1
116,6,44,1,1
152,6,67,0,1
77,6,109,33,1
65,6,288,181,1
46,6,486,258,1
50,6,65,54,1
72,6,102,85,1
92,6,46,87,1
58,7,136,8,1
0,6,55,57,1
27,6,77,9,1
175,6,75,94,1
2,6,8,0,1
52,6,224,32,1
194,6,129,21,1
15,6,94,25,1
9,6,25,46,1
55,6,140,21,1
7,6,233,94,1
297,6,115,46,1
29,6,252,0,1
62,6,223,38,1
138,6,261,66,1
31,6,409,328,1
193,6,153,2,1
38,7,148,48,1
96,6,238,47,1
156,6,5,25,1
155,6,35,51,1
56,6,125,122,1
71,6,340,161,1
10,6,5,89,1
65,6,366,180,1
102,6,62,0,1
125,6,272,57,1
165,6,27,47,1
61,6,89,16,1
59,6,90,27,1
17,6,11,57,1
145,6,358,70,1
81,6,153,46,1
112,6,59,27,1
37,6,91,39,1
32,6,47,0,1
151,7,139,1,1
10,6,164,49,1
44,6,169,77,1
120,7,172,121,1
37,6,171,24,1
80,6,8,0,1
120,6,120,104,1
50,6,163,61,1
175,6,308,105,1
52,6,13,0,1
28,6,81,54,1
88,6,57,39,1
31,6,192,35,1
179,6,171,43,1
89,6,141,0,1
47,6,29,2,1
162,6,129,35,1
57,6,24,5,1
45,6,153,101,1
121,6,21,38,1
62,6,178,62,1
21,6,25,7,1
92,6,35,19,1
167,6,7,29,1
170,6,74,62,1
10,6,326,160,1
6,6,305,72,1
278,6,125,121,1
139,6,219,154,1
99,7,185,61,1
159,6,35,103,1
23,6,170,92,1
91,7,160,82,1
47,6,81,50,1
30,6,209,88,1
7,6,213,152,1
181,6,85,121,1
212,6,25,49,1
19,6,30,80,1
222,6,133,74,1
12,6,322,314,1
149,6,210,131,1
26,6,243,139,1
109,6,383,309,1
57,6,118,55,1
204,6,594,536,1
285,7,60,28,1
219,6,225,266,1
34,6,132,259,1
23,6,15,213,1
288,6,329,144,1
78,6,17,25,1
373,6,250,107,1
245,6,178,9,1
186,6,272,129,1
175,6,159,0,1
46,6,4,127,1
92,6,245,117,1
156,6,15,8,1
41,6,345,176,1
140,6,142,189,1
79,6,426,71,1
195,6,350,301,1
334,6,497,23,1
75,6,259,134,1
112,6,230,187,1
165,6,15,171,1
4,6,771,468,1
125,6,63,158,1
68,6,985,643,1
128,7,232,264,1
294,7,312,124,1
87,6,37,17,1
190,6,243,0,1
53,6,16,0,1
3,6,140,72,1
139,6,103,108,1
21,6,15,5,1
12,6,120,145,1
183,6,457,96,1
209,6,251,20,1
52,6,477,311,1
124,6,123,317,1
71,6,277,479,1
81,6,596,430,1
268,6,415,458,1
214,6,302,235,1
316,6,384,316,1
345,7,7,82,1
66,6,297,104,1
168,6,192,0,1
34,6,314,296,1
44,6,51,150,1
52,6,48,90,1
28,6,549,499,1
84,6,357,315,1
67,6,251,210,1
301,6,379,391,1
21,7,252,30,1
69,6,73,53,1
115,6,13,127,1
131,6,208,153,1
69,6,108,100,1
45,6,71,86,1
66,6,43,21,1
80,6,422,322,1
369,6,107,221,1
16,6,136,42,1
5,6,293,187,1
48,6,202,74,1
144,6,245,258,1
225,6,28,164,1
194,6,148,190,1
199,6,218,303,1
291,6,5,179,1
297,6,413,402,1
210,7,70,160,1
260,6,673,428,1
290,6,521,231,1
56,6,796,713,1
153,7,557,143,1
246,6,514,638,1
148,7,415,47,1
112,6,275,200,1
31,7,106,0,1
199,6,47,29,1
408,6,79,114,1
38,7,45,99,1
212,6,145,0,1
38,6,234,159,1
189,6,276,0,1
215,6,481,232,1
197,6,9,28,1
178,6,14,45,1
109,6,21,111,1
274,6,363,205,1
393,6,180,154,1
160,6,537,327,1
194,6,360,332,1
182,6,290,120,1
301,6,531,441,1
157,6,400,253,1
10,6,521,247,1
318,6,51,56,1
91,6,140,443,1
282,6,85,182,1
261,6,387,371,1
199,6,527,418,1
77,6,151,149,1
68,6,246,173,1
29,6,258,5,1
142,6,247,1,1
72,6,177,109,1
7,6,273,307,1
182,6,165,146,1
235,6,189,321,1
85,6,113,38,1
69,6,3,273,1
216,6,112,105,1
51,6,5,76,1
343,6,58,65,1
115,6,199,572,1
139,6,106,357,1
388,6,372,274,1
42,6,164,88,1
16,6,854,93,1
91,6,966,654,1
98,7,42,412,1
229,6,448,375,1
165,6,550,9,1
225,6,871,611,1
18,7,45,134,1
163,6,165,183,1
129,6,21,97,1
303,6,141,32,1
452,6,208,453,1
191,6,255,81,1
225,6,193,401,1
65,7,139,0,1
164,6,276,176,1
127,6,390,474,1
4,6,289,36,1
81,6,380,623,1
207,6,161,233,1
192,6,569,433,1
267,6,320,534,1
77,7,139,134,1
330,6,246,316,1
148,7,152,164,1
196,6,361,316,1
4,6,59,228,1
56,6,294,529,1
72,6,125,101,1
8,6,69,120,1
220,6,538,712,1
514,6,365,182,1
63,6,398,663,1
302,7,323,153,1
99,6,341,645,1
77,6,69,235,1
8,6,106,129,1
140,6,92,5,1
152,6,77,189,1
93,6,418,189,1
5,6,226,141,1
83,6,73,152,1
61,6,229,149,1
60,6,271,332,1
269,6,10,604,1
20,6,394,179,1
25,6,181,530,1
158,6,240,139,1
287,6,264,483,1
121,6,26,425,1
103,6,726,609,1
169,7,143,289,1
219,6,749,676,1
258,6,272,486,1
167,5,935,877,1
469,6,294,435,1
351,6,977,881,1
73,5,844,865,1
115,6,17,220,1
6,6,565,683,1
31,7,22,21,1
253,6,39,9,1
88,6,39,324,1
51,6,630,0,1
240,6,589,500,1
111,6,75,198,1
126,6,55,16,1
315,6,285,205,1
108,6,29,153,1
221,6,242,164,1
0,6,116,75,1
9,6,591,461,1
132,6,656,448,1
92,6,143,12,1
76,6,7,10,1
95,6,357,354,1
239,6,61,254,1
239,6,79,149,1
12,6,58,55,1
21,6,168,251,1
14,6,22,114,1
22,6,57,84,1
182,6,1,19,1
13,6,50,37,1
145,6,91,11,1
17,6,138,11,1
62,6,27,44,1
22,6,42,4,1
119,6,89,45,1
151,6,340,577,1
84,6,516,668,1
106,6,155,147,1
193,6,84,202,1
7,6,81,60,1
81,6,251,93,1
138,6,37,115,1
89,6,75,17,1
93,6,313,150,1
336,6,195,117,1
109,6,34,0,1
103,6,184,132,1
149,6,126,120,1
22,6,154,7,1
143,6,363,321,1
149,6,45,17,1
389,6,285,514,1
121,7,134,293,1
89,6,25,34,1
217,7,96,36,1
104,6,186,59,1
152,6,161,0,1
29,6,71,97,1
40,6,24,109,1
173,6,272,65,1
426,6,101,47,1
37,6,3,113,1
215,6,5,55,1
126,6,129,83,1
153,6,242,409,1
113,6,184,496,1
7,6,80,71,1
171,6,85,81,1
142,6,29,139,1
43,6,60,147,1
5,6,42,23,1
14,6,110,15,1
59,6,42,38,1
73,6,98,2,1
182,6,87,53,1
57,6,19,83,1
69,6,147,248,1
232,6,4,162,1
5,6,203,172,1
41,6,50,191,1
2,6,377,235,1
19,6,12,42,1
189,6,328,254,1
6,6,77,120,1
119,6,98,51,1
91,6,43,82,1
203,6,8,164,1
81,6,77,160,1
157,6,5,42,1
34,6,348,302,1
47,6,127,48,1
78,6,43,51,1
42,6,80,60,1
1,6,115,189,1
134,6,464,383,1
233,6,256,129,1
15,6,125,59,1
190,6,45,113,1
19,6,63,129,1
343,6,460,362,1
164,7,199,87,1
221,6,101,139,1
186,6,20,35,1
35,6,248,209,1
7,6,307,255,1
58,6,137,113,1
41,6,74,14,1
39,6,212,0,1
34,6,18,0,1
90,6,172,239,1
13,6,254,175,1
126,6,150,300,1
121,6,138,128,1
59,6,291,115,1
4,6,4,83,1
250,6,193,45,1
95,6,102,2,1
283,6,91,91,1
154,6,7,106,1
31,6,261,161,1
16,6,52,107,1
51,6,195,202,1
139,6,92,0,1
129,6,374,283,1
28,6,28,0,1
125,6,43,0,1
20,6,26,21,1
113,6,4,0,1
31,6,3,97,1
7,6,155,80,1
56,6,346,113,1
49,6,27,95,1
137,6,138,107,1
60,6,96,17,1
348,6,344,282,1
55,6,31,43,1
242,6,343,283,1
178,7,20,112,1
9,6,184,287,1
134,6,24,45,1
158,6,69,47,1
57,6,56,14,1
4,6,199,39,1
83,6,84,6,1
45,6,111,119,1
145,6,148,187,1
157,6,22,11,1
338,6,38,28,1
48,7,16,77,1
337,6,215,153,1
177,6,47,50,1
65,6,432,218,1
207,6,181,0,1
45,6,162,55,1
110,6,202,0,1
207,6,111,10,1
36,6,200,162,1
142,6,81,20,1
165,6,55,57,1
203,6,49,35,1
179,6,163,51,1
2,6,64,27,1
187,6,177,115,1
184,6,306,272,1
87,6,190,136,1
8,6,129,190,1
88,6,74,52,1
70,6,26,6,1
2,6,137,260,1
103,6,146,171,1
63,6,60,37,1
180,6,4,33,1
175,6,74,75,1
82,6,235,129,1
261,6,199,144,1
16,6,85,91,1
9,6,199,136,1
51,6,244,224,1
104,6,102,0,1
8,6,110,114,1
16,6,10,0,1
40,6,211,82,1
90,6,118,6,1
123,6,222,169,1
90,6,146,228,1
117,6,37,226,1
103,6,283,79,1
275,6,244,136,1
158,6,34,13,1
68,6,134,15,1
54,6,174,92,1
48,6,13,0,1
95,6,74,19,1
70,6,230,138,1
6,6,46,69,1
48,6,316,52,1
36,6,228,79,1
487,6,74,0,1
39,6,319,160,1
92,6,69,97,1
148,6,287,197,1
12,6,26,24,1
169,6,207,202,1
48,7,43,40,1
268,6,8,44,1
53,6,66,81,1
115,6,86,20,1
13,6,54,16,1
4,6,102,119,1
144,6,17,44,1
279,6,201,124,1
9,6,265,214,1
348,6,195,28,1
143,6,114,110,1
267,6,268,139,1
186,6,377,110,1
69,6,135,130,1
139,6,188,120,1
203,6,27,76,1
48,6,32,4,1
193,6,52,0,1
3,6,52,63,1
263,6,173,69,1
144,6,87,0,1
147,6,187,145,1
37,6,55,174,1
13,6,171,55,1
168,6,14,99,1
130,6,96,16,1
186,6,11,133,1
244,6,51,55,1
29,6,86,0,1
216,6,410,34,1
156,6,123,224,1
34,6,266,59,1
36,6,215,151,1
193,6,148,134,1
135,6,129,33,1
85,6,123,66,1
108,6,108,6,1
93,6,40,0,1
58,6,87,3,1
98,6,22,162,1
280,7,14,45,1
27,6,49,0,1
333,6,38,42,1
227,6,401,270,1
123,6,246,187,1
96,6,86,44,1
99,6,117,205,1
71,6,14,59,1
207,6,7,9,1
182,6,105,56,1
161,6,147,103,1
37,6,106,53,1
85,6,170,44,1
39,6,17,41,1
19,6,96,3,1
70,6,198,126,1
169,6,25,48,1
103,6,212,125,1
4,6,63,6,1
206,6,309,196,1
78,6,172,129,1
190,6,250,117,1
246,6,2,0,1
149,6,72,80,1
160,6,45,157,1
121,6,17,0,1
170,6,46,107,1
162,6,278,127,1
28,6,240,123,1
167,6,42,0,1
81,6,85,13,1
79,6,95,7,1
209,6,11,36,1
76,6,220,201,1
138,6,64,0,1
176,6,245,155,1
74,6,109,144,1
59,6,144,69,1
21,6,170,211,1
76,6,70,0,1
11,6,6,69,1
193,7,158,122,1
268,6,97,79,1
35,6,212,260,1
216,6,60,37,1
196,6,119,0,1
153,6,87,76,1
284,6,40,44,1
13,6,171,100,1
136,6,77,46,1
13,6,84,52,1
3,6,95,114,1
14,6,137,29,1
39,6,52,78,1
193,6,181,95,1
110,6,133,158,1
99,6,135,156,1
3,6,99,95,1
129,6,126,235,1
35,6,104,130,1
4,6,160,83,1
219,6,90,83,1
183,6,123,8,1
87,6,142,88,1
290,6,37,0,1
104,6,20,0,1
154,6,17,0,1
78,6,46,0,1
4,6,122,73,1
69,6,15,0,1
142,6,81,137,1
126,6,98,0,1
129,6,111,28,1
4,6,27,15,1
155,6,101,145,1
45,6,108,54,1
150,6,84,58,1
149,6,17,13,1
112,6,3,1,1
165,6,220,75,1
54,6,198,178,1
119,6,238,21,1
38,6,22,19,1
42,6,178,73,1
143,6,19,44,1
27,6,321,291,1
77,6,65,0,1
17,6,164,234,1
17,6,59,0,1
179,6,13,57,1
2,6,132,114,1
200,6,215,124,1
232,6,101,76,1
36,6,24,55,1
268,6,14,41,1
143,6,3,75,1
2,6,42,105,1
96,6,93,51,1
31,6,277,221,1
148,6,107,9,1
18,6,188,256,1
2,6,18,67,1
120,6,365,518,1
2,6,22,86,1
131,6,389,368,1
219,6,66,126,1
102,6,511,484,1
295,6,46,54,1
91,6,202,82,1
123,6,340,258,1
49,6,299,47,1
93,6,684,448,1
114,6,449,221,1
131,6,708,360,1
379,6,600,537,1
282,6,403,462,1
77,6,459,290,1
67,6,3,47,1
84,6,441,154,1
137,6,325,266,1
27,6,204,432,1
7,6,416,193,1
60,6,456,478,1
51,6,409,39,1
108,6,613,543,1
215,6,129,390,1
296,6,494,600,1
265,6,255,598,1
11,7,312,159,1
81,6,481,576,1
132,6,310,286,1
195,6,35,239,1
264,6,139,0,1
34,6,168,46,1
4,6,75,78,1
176,6,165,35,1
86,6,191,246,1
63,6,55,195,1
15,6,144,243,1
277,6,188,39,1
40,6,382,396,1
237,6,451,165,1
86,6,542,388,1
78,6,165,155,1
254,6,131,4,1
151,6,346,361,1
386,6,238,308,1
323,6,62,28,1
82,6,104,0,1
70,6,129,30,1
260,6,73,23,1
416,6,91,25,1
158,6,62,85,1
78,7,77,183,1
6,6,211,133,1
180,6,467,188,1
14,6,344,19,1
218,6,471,436,1
78,7,70,0,1
387,5,574,773,1
337,6,15,30,1
428,6,158,333,1
160,6,271,113,1
109,6,196,83,1
227,6,389,135,1
239,6,368,132,1
203,6,174,131,1
44,6,468,351,1
36,6,189,49,1
197,6,901,708,1
8,7,270,150,1
78,6,261,131,1
143,6,429,298,1
100,6,230,232,1
312,6,489,426,1
160,6,508,526,1
163,6,445,242,1
128,6,201,112,1
99,6,39,177,1
132,6,283,98,1
444,6,519,478,1
172,6,105,289,1
88,6,69,0,1
86,6,17,1,1
63,6,442,176,1
94,6,581,403,1
148,6,244,309,1
92,6,660,296,1
76,6,516,495,1
74,7,198,1,1
68,6,493,432,1
22,7,105,286,1
84,6,867,517,1
11,6,323,551,1
155,7,418,189,1
388,6,353,508,1
222,7,177,286,1
540,6,243,327,1
172,6,729,79,1
7,6,557,157,1
138,6,424,285,1
80,6,296,234,1
116,6,123,0,1
109,6,181,296,1
8,6,329,132,1
105,6,204,347,1
123,6,669,54,1
278,7,267,79,1
63,7,82,5,1
330,6,461,152,1
47,6,346,4,1
197,6,520,311,1
7,7,30,14,1
287,6,368,219,1
208,7,357,22,1
72,6,705,468,1
360,6,23,334,1
52,6,575,260,1
148,6,35,82,1
26,6,306,160,1
119,6,239,225,1
269,6,217,134,1
43,6,678,711,1
183,7,148,223,1
203,6,242,159,1
102,6,49,141,1
253,6,306,40,1
214,6,13,93,1
115,6,47,124,1
338,6,136,74,1
136,6,71,116,1
57,6,5,18,1
27,6,127,46,1
47,6,174,1,1
99,6,430,332,1
53,6,245,4,1
73,6,18,9,1
199,6,88,104,1
173,6,7,295,1
172,6,62,25,1
152,6,246,269,1
29,6,231,180,1
181,6,5,0,1
159,6,230,44,1
150,6,85,70,1
183,6,67,56,1
78,6,102,75,1
333,6,192,186,1
180,6,437,390,1
236,6,405,336,1
151,6,440,386,1
79,6,239,418,1
336,6,719,758,1
7,6,936,1023,1
159,5,115,60,1
161,6,277,0,1
192,6,15,45,1
132,6,795,798,1
190,6,367,785,1
413,6,417,312,1
143,6,374,408,1
131,6,188,202,1
103,6,87,153,1
294,6,99,83,1
558,6,94,201,1
27,6,140,162,1
259,6,296,254,1
189,6,420,210,1
435,6,562,171,1
225,6,555,801,1
20,7,65,25,1
8,18,1023,1023,1
466,5,16,187,1
169,6,849,619,1
23,7,75,190,1
47,6,55,46,1
97,6,30,152,1
2,6,301,367,1
120,6,335,347,1
88,7,130,13,1
86,6,203,293,1
350,6,43,328,1
241,6,611,434,1
162,6,533,456,1
179,6,9,136,1
180,7,32,339,1
358,6,243,505,1
221,6,125,14,1
239,6,123,425,1
349,6,105,48,1
54,6,385,304,1
223,7,14,70,1
168,6,152,269,1
119,6,102,82,1
177,6,449,529,1
201,6,141,51,1
126,6,89,84,1
205,6,37,10,1
2,6,181,217,1
210,6,465,538,1
39,6,27,144,1
16,6,144,270,1
56,6,385,342,1
36,6,146,148,1
230,6,191,12,1
102,6,91,27,1
38,6,87,0,1
7,6,104,33,1
3,6,79,77,1
20,6,74,13,1
18,7,38,9,1
188,6,148,186,1
35,6,37,6,1
34,6,122,82,1
119,6,189,299,1
289,6,379,393,1
78,6,117,305,1
30,6,361,424,1
15,6,80,326,1
145,6,85,47,1
6,6,38,71,1
52,6,298,244,1
163,6,89,77,1
55,6,8,53,1
310,6,81,72,1
363,6,44,91,1
63,6,64,42,1
134,6,340,234,1
115,6,84,43,1
394,6,251,64,1
220,6,96,1,1
85,6,68,30,1
57,6,312,463,1
64,6,20,337,1
162,6,194,241,1
61,6,41,152,1
209,6,95,0,1
1,6,167,83,1
199,6,70,48,1
234,6,197,157,1
53,6,306,279,1
256,7,25,67,1
145,6,175,64,1
32,6,198,136,1
125,6,172,56,1
51,6,120,179,1
338,6,231,194,1
242,6,220,202,1
268,6,36,215,1
48,6,7,90,1
28,6,236,28,1
37,6,41,32,1
112,6,100,0,1
294,6,223,186,1
7,6,218,75,1
107,6,227,280,1
182,6,306,209,1
232,6,268,195,1
25,6,288,141,1
72,6,214,154,1
253,6,427,259,1
12,6,30,98,1
240,6,192,221,1
58,6,214,293,1
115,6,23,20,1
33,6,193,263,1
134,6,573,502,1
173,6,453,429,1
119,6,315,130,1
12,6,149,184,1
49,6,5,133,1
34,6,128,49,1
55,6,142,17,1
78,6,51,37,1
367,6,247,267,1
351,6,130,192,1
37,6,1,5,1
99,6,270,129,1
53,6,30,7,1
198,6,40,23,1
165,6,109,105,1
99,6,254,194,1
34,6,268,197,1
8,6,160,112,1
0,6,275,293,1
19,6,277,299,1
127,6,608,372,1
73,6,233,53,1
26,6,176,178,1
134,6,112,7,1
67,6,99,108,1
8,6,285,174,1
102,6,234,264,1
167,6,236,249,1
186,6,143,126,1
13,6,337,244,1
236,6,87,20,1
85,6,276,253,1
69,6,74,39,1
178,6,191,343,1
63,6,404,56,1
384,6,150,77,1
41,6,157,139,1
17,6,62,111,1
127,6,204,213,1
94,6,225,223,1
17,6,98,111,1
73,6,242,212,1
73,6,28,169,1
187,6,8,81,1
138,6,215,212,1
21,6,5,90,1
214,6,245,142,1
68,6,11,46,1
2,6,258,173,1
88,6,359,431,1
3,7,31,8,1
175,6,254,263,1
31,7,90,17,1
100,6,127,7,1
6,6,91,47,1
101,6,107,94,1
59,6,5,16,1
14,6,41,0,1
221,6,87,119,1
298,6,164,177,1
207,6,624,529,1
337,6,445,404,1
158,6,375,254,1
257,6,170,261,1
86,6,6,178,1
123,6,207,42,1
162,6,35,40,1
186,6,76,14,1
171,7,12,105,1
19,6,12,32,1
195,6,91,34,1
170,6,23,0,1
40,6,15,25,1
143,6,15,0,1
41,6,311,242,1
80,6,141,153,1
24,6,117,52,1
94,6,193,317,1
183,6,82,47,1
134,6,379,106,1
145,6,141,143,1
105,6,183,30,1
29,6,172,23,1
111,6,182,32,1
154,6,50,0,1
185,6,189,205,1
5,6,197,100,1
33,6,46,49,1
27,6,117,89,1
95,6,185,87,1
106,6,299,116,1
88,6,223,117,1
214,6,166,1,1
118,6,22,15,1
77,6,276,336,1
113,6,46,74,1
143,6,575,333,1
91,6,167,220,1
139,6,320,247,1
128,6,1,111,1
109,6,147,184,1
46,6,142,64,1
36,6,106,28,1
154,6,108,0,1
20,6,142,37,1
152,6,37,0,1
83,6,5,65,1
65,6,192,205,1
133,6,202,169,1
140,6,74,84,2
154,6,417,367,2
91,6,9,92,2
237,6,64,29,2
187,6,125,153,2
11,6,132,117,2
82,6,6,18,2
34,6,50,12,2
180,6,223,78,2
64,6,11,3,2
72,6,70,1,2
14,6,213,113,2
82,6,77,0,2
73,6,2,26,2
72,6,145,69,2
12,6,112,65,2
106,6,485,414,2
27,6,56,261,2
34,6,232,321,2
115,6,348,357,2
46,6,105,52,2
156,6,184,51,2
100,6,204,35,2
93,6,4,103,2
183,6,57,61,2
76,6,277,68,2
100,6,95,192,2
19,6,129,1,2
95,6,4,0,2
10,6,7,0,2
136,6,241,202,2
148,6,69,139,2
55,6,256,99,2
20,6,320,317,2
187,6,143,42,2
107,6,205,46,2
143,6,371,405,2
184,6,145,226,2
66,6,108,35,2
145,6,22,43,2
86,6,133,60,2
284,6,78,11,2
242,6,230,143,2
21,6,203,0,2
429,6,100,56,2
158,6,77,137,2
69,6,136,122,2
294,6,247,356,2
3,6,74,0,2
65,6,516,574,2
71,6,61,0,2
173,6,184,178,2
83,6,261,218,2
33,6,33,16,2
325,6,88,32,2
39,6,24,64,2
168,6,22,31,2
140,6,190,116,2
80,6,33,7,2
2,6,23,27,2
199,6,150,146,2
159,6,4,42,2
27,6,400,191,2
12,6,65,0,2
109,6,127,142,2
77,6,50,85,2
99,6,425,324,2
111,6,343,240,2
196,6,233,181,2
110,6,409,330,2
51,6,168,127,2
139,6,74,19,2
116,6,155,110,2
36,6,2,39,2
35,6,95,75,2
131,6,185,89,2
92,7,186,101,2
11,6,78,92,2
45,6,13,58,2
145,6,32,57,2
6,6,441,412,2
191,6,209,93,2
13,6,619,597,2
75,6,149,80,2
92,6,189,178,2
36,6,63,129,2
53,6,257,38,2
2,6,359,360,2
9,6,3,0,2
173,6,183,283,2
34,6,221,9,2
94,6,197,125,2
65,6,43,40,2
46,6,570,206,2
82,6,435,207,2
143,7,84,0,2
37,6,104,3,2
4,6,5,2,2
41,6,156,110,2
6,6,70,51,2
9,6,290,150,2
1,6,86,66,2
207,6,65,90,2
154,6,259,227,2
17,6,62,19,2
44,6,90,0,2
24,6,40,92,2
49,6,57,122,2
42,6,98,184,2
19,6,337,58,2
41,6,392,253,2
148,6,13,62,2
138,6,232,83,2
506,6,548,430,2
120,6,280,405,2
11,6,674,356,2
260,6,424,497,2
172,6,146,57,2
113,6,347,221,2
72,6,301,159,2
71,6,345,367,2
262,6,82,173,2
245,7,16,34,2
25,6,8,78,2
184,6,47,81,2
25,6,92,160,2
44,6,342,134,2
93,6,5,3,2
62,6,62,52,2
75,6,68,0,2
22,6,8,43,2
275,6,365,72,2
34,6,337,326,2
120,6,55,92,2
236,6,103,199,2
18,6,167,21,2
356,6,288,281,2
169,6,836,458,2
166,7,134,231,2
554,5,914,671,2
64,6,375,384,2
208,6,561,515,2
68,6,358,386,2
11,7,25,0,2
2,6,248,308,2
49,6,301,139,2
76,7,136,134,2
113,6,218,80,2
84,6,588,507,2
13,7,160,265,2
201,6,472,259,2
44,7,16,150,2
61,6,553,202,2
209,6,321,340,2
48,6,28,106,2
28,6,124,124,2
196,6,381,414,2
125,6,272,348,2
156,6,234,85,2
172,6,501,628,2
28,6,64,214,2
0,6,1023,914,2
109,6,482,599,2
10,6,757,484,2
29,6,647,311,2
106,6,321,58,2
136,6,689,378,2
142,7,58,374,2
245,7,421,91,2
212,6,91,206,2
233,6,155,215,2
33,7,173,31,2
144,6,449,296,2
70,6,317,310,2
18,7,27,188,2
5,6,447,115,2
44,6,604,285,2
241,6,340,69,2
293,7,137,384,2
244,6,779,670,2
156,7,63,39,2
109,6,535,648,2
197,6,170,137,2
10,6,37,245,2
359,6,155,57,2
71,6,129,63,2
94,6,377,311,2
33,6,41,218,2
34,6,451,265,2
200,6,104,278,2
101,6,303,122,2
97,6,174,372,2
49,6,2,169,2
29,6,577,590,2
278,6,220,60,2
171,6,736,463,2
17,6,801,451,2
92,6,661,460,2
245,6,790,510,2
23,6,874,694,2
120,7,539,198,2
31,6,1023,951,2
283,7,266,347,2
2,6,32,470,2
127,6,371,22,2
260,6,228,141,2
181,6,490,358,2
97,6,140,85,2
109,6,77,45,2
218,6,97,0,2
65,6,443,377,2
127,6,5,73,2
175,6,878,842,2
19,7,73,55,2
234,6,146,357,2
54,6,454,398,2
230,6,117,248,2
12,6,512,668,2
194,7,50,309,2
8,6,440,489,2
160,7,118,111,2
51,7,34,14,2
54,6,10,466,2
8,6,348,74,2
53,6,376,585,2
36,6,217,372,2
263,6,293,377,2
86,6,229,314,2
89,6,296,230,2
174,6,151,28,2
261,6,421,99,2
217,6,299,53,2
16,6,141,133,2
131,6,166,422,2
14,6,107,222,2
246,6,610,643,2
44,6,515,699,2
168,7,115,45,2
3,6,619,780,2
156,6,263,451,2
289,7,164,43,2
353,6,126,35,2
50,6,11,106,2
158,6,63,147,2
109,6,286,403,2
245,6,373,369,2
479,7,80,214,2
4,6,328,0,2
183,6,102,1,2
310,6,25,331,2
198,7,244,183,2
336,6,443,187,2
39,6,96,328,2
187,6,107,443,2
309,6,146,117,2
19,6,138,341,2
195,6,67,7,2
371,6,322,569,2
34,7,181,404,2
84,6,477,401,2
44,6,483,677,2
120,7,340,54,2
92,6,530,375,2
1,7,181,343,2
51,6,45,250,2
104,6,228,14,2
3,6,150,248,2
356,6,712,400,2
18,6,818,775,2
63,7,185,504,2
16,7,131,32,2
34,6,57,40,2
211,6,790,561,2
500,6,99,30,2
520,6,33,186,2
169,6,39,0,2
477,17,1013,1023,2
8,5,672,1023,2
276,12,1023,1023,2
182,7,701,848,2
144,13,576,484,2
175,6,963,995,2
5,6,121,80,2
98,6,169,3,2
20,6,99,295,2
171,6,49,153,2
36,6,327,354,2
60,6,460,436,2
52,7,79,188,2
77,6,15,134,2
3,6,171,126,2
310,6,386,355,2
53,6,87,19,2
190,6,26,56,2
277,6,204,278,2
250,6,266,80,2
445,6,283,479,2
225,7,226,28,2
196,6,203,301,2
38,6,298,46,2
85,6,30,3,2
20,6,19,88,2
139,6,43,50,2
14,6,118,65,2
71,7,272,146,2
9,6,133,34,2
70,6,67,58,2
232,7,167,60,2
77,6,228,6,2
65,6,178,9,2
19,6,457,428,2
209,6,183,220,2
53,6,171,131,2
7,6,362,288,2
46,6,467,468,2
204,6,176,365,2
193,7,301,219,2
174,6,215,234,2
70,6,735,672,2
22,7,319,19,2
294,6,737,571,2
103,7,84,18,2
140,6,3,0,2
5,6,25,9,2
91,6,17,15,2
116,6,501,514,2
126,6,121,445,2
90,6,181,131,2
172,6,8,18,2
468,6,131,210,2
84,6,93,0,2
207,6,151,44,2
36,6,541,510,2
7,6,299,290,2
94,6,607,594,2
358,6,684,623,2
54,7,185,368,2
208,6,277,367,2
17,7,231,70,2
91,6,261,242,2
99,6,406,205,2
136,6,124,29,2
200,5,1023,1023,2
136,7,108,441,2
104,6,646,831,2
96,6,242,199,2
300,6,115,423,2
59,6,92,10,2
391,6,337,189,2
283,6,42,208,2
520,7,395,122,2
40,6,576,878,2
319,7,87,585,2
162,6,1023,936,2
127,5,411,735,2
79,6,434,201,2
148,7,163,324,2
148,6,3,67,2
9,7,57,62,2
232,6,185,162,2
40,6,78,31,2
260,6,4,51,2
188,6,46,133,2
115,6,301,315,2
65,6,131,226,2
112,6,62,145,2
23,6,114,85,2
81,6,82,176,2
16,6,9,43,2
125,6,143,72,2
88,6,160,129,2
58,6,121,487,2
157,6,113,234,2
64,6,655,615,2
131,7,54,31,2
55,6,82,0,2
243,6,252,143,2
132,6,102,1,2
105,6,12,4,2
60,6,221,97,2
27,6,55,101,2
145,6,3,80,2
126,6,124,48,2
103,6,129,88,2
228,6,147,15,2
286,6,593,484,2
66,6,330,551,2
95,6,93,8,2
1,6,60,91,2
128,6,56,83,2
92,6,71,28,2
154,6,196,247,2
234,6,14,165,2
13,6,183,61,2
227,6,60,75,2
168,6,542,538,2
102,6,187,2,2
0,6,253,199,2
34,6,156,203,2
225,6,47,55,2
100,6,84,133,2
155,6,229,187,2
156,6,69,61,2
63,6,152,0,2
261,6,157,87,2
78,6,155,206,2
219,6,676,435,2
151,6,201,300,2
153,6,329,301,2
141,6,131,87,2
53,6,218,287,2
87,6,139,14,2
49,6,25,0,2
10,6,56,0,2
59,6,196,104,2
88,6,290,235,2
62,6,57,148,2
190,6,19,42,2
26,6,52,91,2
2,6,222,194,2
50,6,23,22,2
232,6,31,0,2
39,6,111,1,2
183,6,198,75,2
238,6,110,35,2
138,6,68,46,2
60,6,78,196,2
85,6,30,3,2
22,6,260,325,2
235,6,137,148,2
89,6,89,41,2
4,6,87,58,2
54,6,321,109,2
32,7,51,14,2
68,6,141,40,2
2,6,43,18,2
127,6,99,171,2
160,6,16,0,2
83,6,36,93,2
19,6,357,212,2
270,7,7,12,2
89,6,298,79,2
164,6,534,358,2
140,6,515,426,2
253,6,84,4,2
93,6,49,153,2
146,6,119,96,2
276,6,61,44,2
57,6,32,0,2
138,6,4,17,2
202,6,56,99,2
379,6,88,0,2
32,6,104,164,2
41,6,11,148,2
173,6,72,62,2
64,6,141,214,2
57,6,9,102,2
78,6,149,150,2
191,6,243,232,2
382,6,218,185,2
91,6,135,146,2
164,6,84,119,2
404,6,29,0,2
74,6,53,150,2
216,6,23,129,2
234,6,27,3,2
6,6,25,0,2
166,6,52,127,2
121,6,101,34,2
36,6,32,52,2
114,6,26,121,2
24,6,149,381,2
24,6,126,9,2
140,6,101,122,2
499,6,359,166,2
113,6,45,76,2
67,6,186,0,2
96,6,215,142,2
42,6,101,110,2
162,6,97,130,2
178,6,47,126,2
37,6,10,42,2
358,6,128,95,2
73,6,15,71,2
79,6,54,10,2
135,6,108,49,2
117,7,98,106,2
51,6,95,9,2
215,6,218,220,2
52,6,42,183,2
53,6,234,0,2
10,6,104,172,2
115,6,254,83,2
192,6,122,78,2
206,6,197,70,2
194,6,259,220,2
164,6,149,43,2
92,6,81,5,2
109,6,19,90,2
237,6,48,46,2
207,6,148,111,2
8,6,392,186,2
53,6,220,31,2
36,6,357,376,2
172,7,254,161,2
24,6,397,370,2
102,6,304,343,2
16,6,56,144,2
20,6,415,212,2
100,7,228,88,2
26,6,247,254,2
41,6,13,79,2
81,6,23,19,2
11,6,46,3,2
188,6,231,5,2
36,6,222,150,2
110,6,135,22,2
188,6,60,46,2
1,6,123,63,2
313,6,26,35,2
136,6,380,304,2
259,6,56,122,2
158,6,141,173,2
309,6,96,91,2
171,6,76,18,2
84,6,47,51,2
139,6,79,78,2
79,6,64,141,2
4,6,86,243,2
106,6,213,57,2
4,6,123,0,2
149,6,210,1,2
129,6,74,10,2
290,6,109,125,2
229,6,90,3,2
198,6,157,93,2
148,6,146,132,2
193,6,40,11,2
8,6,109,112,2
32,6,60,201,2
47,6,232,122,2
196,6,37,0,2
141,6,4,122,2
106,6,318,185,2
153,6,47,59,2
7,6,334,138,2
59,6,56,11,2
80,6,444,282,2
212,6,2,79,2
165,6,41,99,2
49,6,151,149,2
298,6,100,74,2
50,6,209,175,2
195,6,33,7,2
213,6,210,145,2
138,6,31,16,2
204,6,142,191,2
171,6,303,188,2
47,6,223,169,2
281,6,81,56,2
55,6,69,0,2
14,6,146,82,2
15,6,214,39,2
25,6,134,63,2
209,6,321,207,2
275,6,105,78,2
301,6,191,84,2
296,6,249,88,2
64,6,155,82,2
438,6,175,16,2
55,6,112,40,2
429,6,112,24,2
262,6,22,3,2
172,6,19,37,2
333,6,64,22,2
191,6,106,10,2
362,6,127,190,2
207,6,223,82,2
126,6,48,54,2
40,6,372,215,2
61,6,87,16,2
147,6,120,172,2
87,6,182,28,2
115,6,46,77,2
8,6,116,63,2
66,6,104,81,2
0,6,134,93,2
94,6,81,0,2
109,6,88,27,2
44,6,7,0,2
102,6,7,98,2
138,6,39,30,2
189,6,245,101,2
82,6,92,0,2
209,6,127,0,2
12,6,228,139,2
144,6,151,102,2
189,6,87,56,2
143,6,149,32,2
171,6,182,98,2
176,6,91,133,2
156,6,98,12,2
384,6,101,29,2
13,6,108,38,2
323,6,29,0,2
72,6,7,21,2
150,6,46,61,2
5,6,13,44,2
164,6,90,50,2
181,6,78,149,2
82,6,23,64,2
229,6,22,81,2
264,7,64,67,2
15,6,49,8,2
201,6,89,72,2
151,6,35,37,2
194,6,6,0,2
110,6,60,5,2
242,6,11,11,2
236,6,78,14,2
31,6,4,45,2
176,6,67,0,2
110,6,90,0,2
20,6,20,31,2
261,6,3,50,2
164,6,51,60,2
183,6,36,154,2
88,6,20,86,2
194,6,3,33,2
174,6,40,0,2
16,6,70,39,2
49,6,90,50,2
177,6,61,14,2
66,6,9,2,2
234,6,266,116,2
35,6,186,107,2
180,6,61,99,2
106,6,46,10,2
193,6,41,41,2
402,6,188,106,2
44,6,249,150,2
313,6,61,65,2
47,6,111,29,2
30,6,135,194,2
388,6,27,23,2
113,6,14,90,2
102,6,134,58,2
267,6,152,63,2
93,6,262,158,2
212,6,12,11,2
58,6,31,0,2
315,6,41,79,2
115,6,90,75,2
43,6,32,104,2
127,6,204,104,2
54,6,357,142,2
5,6,251,123,2
35,6,357,84,2
216,6,14,34,2
199,6,12,148,2
374,6,256,152,2
219,6,382,108,2
131,7,72,138,2
15,6,559,352,2
54,6,23,69,2
202,6,380,139,2
217,6,250,193,2
20,6,282,65,2
148,6,349,206,2
152,6,79,5,2
147,6,398,225,2
445,6,316,378,2
149,6,400,276,2
244,6,847,712,2
347,7,259,204,2
18,6,465,542,2
89,6,585,268,2
45,7,139,178,2
319,6,574,339,2
45,6,385,258,2
208,7,101,62,2
168,6,461,128,2
130,6,439,277,2
49,6,309,5,2
321,6,604,391,2
113,7,87,0,2
147,6,287,527,2
28,7,278,46,2
66,6,27,93,2
256,6,764,396,2
271,6,2,67,2
197,6,508,270,2
120,6,94,293,2
226,6,286,140,2
147,6,169,111,2
161,6,108,0,2
320,6,361,357,2
361,6,22,1,2
64,6,37,199,2
55,6,226,231,2
152,6,223,66,2
320,6,40,158,2
97,6,463,294,2
94,6,213,101,2
183,6,452,392,2
111,6,441,287,2
314,6,500,508,2
347,6,433,160,2
317,6,510,470,2
313,7,237,60,2
229,6,576,472,2
174,6,31,151,2
56,6,262,367,2
364,6,267,430,2
286,6,262,183,2
62,6,548,441,2
108,6,215,184,2
144,6,285,41,2
276,6,912,714,2
379,6,273,528,2
7,6,828,535,2
394,6,638,643,2
136,6,813,450,2
298,14,1023,1023,2
418,9,513,244,2
310,5,1023,1004,2
15,6,342,6,2
33,6,342,76,2
93,6,242,215,2
464,6,349,434,2
50,7,89,76,2
372,6,759,831,2
224,7,233,221,2
68,5,1023,875,2
191,6,295,519,2
21,6,705,381,2
274,6,329,544,2
351,6,894,491,2
18,6,218,296,2
257,6,7,339,2
187,6,179,622,2
226,6,572,357,2
104,6,643,800,2
138,7,129,40,2
51,6,758,692,2
77,7,362,445,2
207,6,804,578,2
350,6,438,483,2
62,6,434,56,2
360,6,474,476,2
159,7,431,131,2
294,6,415,166,2
183,6,215,201,2
87,6,280,88,2
4,6,81,53,2
55,6,43,0,2
193,6,399,133,2
120,6,305,399,2
289,6,683,351,2
92,6,137,482,2
100,6,710,313,2
163,6,15,277,2
137,6,1023,584,2
79,6,344,408,2
84,6,369,531,2
359,6,259,238,2
305,6,53,216,2
285,6,477,105,2
184,6,188,30,2
38,6,674,344,2
224,6,48,226,2
412,6,942,488,2
95,7,15,28,2
164,6,645,344,2
59,6,172,24,2
245,6,225,99,2
218,6,19,244,2
72,6,295,506,2
61,6,400,702,2
9,7,284,126,2
166,6,105,203,2
90,6,70,211,2
190,6,154,290,2
0,6,408,327,2
297,6,146,410,2
200,7,249,197,2
222,6,33,0,2
203,6,39,296,2
246,6,52,119,2
227,6,150,285,2
345,6,7,129,2
18,6,374,469,2
81,6,718,860,2
2,6,77,80,2
31,6,640,588,2
2,6,436,263,2
4,25,1023,1023,2
385,5,7,244,2
357,6,602,363,2
288,6,372,0,2
172,6,162,71,2
138,6,198,160,2
212,6,196,302,2
198,6,478,498,2
210,6,32,70,2
79,6,125,183,2
142,6,21,0,2
32,6,95,78,2
48,6,22,0,2
77,6,82,297,2
149,6,422,383,2
302,5,857,1023,2
28,6,133,55,2
141,6,364,144,2
189,6,146,41,2
63,6,190,290,2
200,6,116,79,2
100,7,252,171,2
20,6,47,36,2
172,6,154,45,2
85,6,59,65,2
153,6,125,124,2
125,6,216,152,2
5,6,439,241,2
190,6,213,325,2
303,6,80,294,2
340,6,273,587,2
97,6,18,78,2
586,6,61,442,2
353,6,4,0,2
15,6,193,147,2
476,6,351,333,2
430,6,136,16,2
247,6,203,0,2
591,6,211,44,2
289,6,512,260,2
163,6,429,468,2
10,7,49,86,2
255,7,314,239,2
1,6,281,29,2
194,6,377,418,2
220,6,344,298,2
185,6,145,302,2
127,6,491,553,2
301,6,384,256,2
3,6,104,345,2
147,6,18,352,2
281,6,208,131,2
109,6,66,32,2
56,6,238,200,2
127,6,347,132,2
110,6,266,302,2
1,6,59,93,2
17,6,291,149,2
108,6,173,421,2
209,6,360,175,2
190,18,1023,1023,2
545,6,97,228,2
135,6,299,204,2
87,7,189,41,2
274,6,401,368,2
211,6,286,58,2
76,6,61,122,2
225,6,203,363,2
204,6,361,150,2
304,6,95,71,2
78,6,698,497,2
360,6,510,367,2
221,7,227,47,2
10,6,685,654,2
179,6,764,1023,2
8,7,27,280,2
163,6,660,734,2
129,6,227,409,2
248,6,178,223,2
135,6,319,192,2
9,6,244,351,2
171,6,109,237,2
202,6,118,123,2
389,6,194,245,2
88,6,238,199,2
65,6,541,343,2
46,6,13,142,2
19,6,419,481,2
48,6,351,505,2
189,6,218,226,2
265,7,59,81,2
110,6,277,137,2
251,6,291,190,2
115,6,572,207,2
8,6,260,561,2
199,6,244,424,2
181,6,173,134,2
195,6,103,38,2
184,6,130,22,2
218,6,231,250,2
211,6,179,205,2
167,6,571,292,2
132,6,781,939,2
80,6,468,944,2
117,7,186,11,2
143,6,246,161,2
269,6,17,155,2
59,6,217,0,2
259,6,216,211,2
1,6,284,389,2
7,6,338,520,2
17,6,358,374,2
147,6,298,565,2
252,6,342,284,2
38,7,62,113,2
14,6,23,70,2
36,6,181,340,2
8,6,41,206,2
206,6,84,43,2
141,6,34,58,2
295,6,540,380,2
32,6,532,318,2
241,6,126,80,2
102,6,88,117,2
68,6,780,748,2
203,6,395,329,2
2,7,262,254,2
43,6,445,371,2
46,6,271,457,2
215,6,317,500,2
428,6,69,445,2
153,6,98,274,2
82,6,523,252,2
524,6,558,533,2
193,6,163,302,2
113,6,348,431,2
125,6,112,368,2
295,6,504,223,2
25,6,706,536,2
127,6,569,553,2
20,6,440,598,2
6,7,128,84,2
203,6,185,97,2
204,6,49,89,2
17,6,412,470,2
115,6,187,107,2
71,6,8,72,2
207,6,365,90,2
222,6,195,3,2
27,6,134,265,2
10,6,319,290,2
55,6,44,107,2
10,6,213,490,2
121,6,483,733,2
218,7,172,102,2
10,6,394,469,2
261,6,285,386,2
231,6,245,364,2
208,6,335,313,2
27,6,52,79,2
275,6,135,273,2
246,7,46,39,2
94,6,228,206,2
146,6,783,832,2
69,6,555,587,2
382,6,407,287,2
248,6,204,108,2
110,6,224,226,2
104,6,483,819,2
82,7,40,326,2
77,7,306,235,2
351,6,24,45,2
125,6,18,14,2
235,6,198,199,2
192,6,175,89,2
65,6,19,32,2
75,6,130,151,2
99,6,227,265,2
17,6,110,50,2
84,6,367,293,2
7,6,296,160,2
184,6,103,210,2
12,6,330,373,2
73,6,430,297,2
149,6,81,0,2
68,6,201,194,2
37,6,570,686,2
46,6,363,406,2
112,7,64,2,2
71,6,450,324,2
40,6,410,280,2
80,7,151,81,2
181,6,225,165,2
253,7,164,153,2
44,6,152,10,2
173,6,298,425,2
221,6,208,172,2
127,6,660,569,2
233,6,250,149,2
28,7,190,151,2
29,6,405,510,2
12,7,46,108,2
90,6,379,326,2
20,6,386,404,2
85,6,321,90,2
218,6,81,53,2
85,6,108,27,2
207,6,119,5,2
8,6,46,8,2
4,6,150,41,2
65,6,146,141,2
91,6,23,143,2
121,6,49,36,2
137,6,61,8,2
92,6,250,216,2
132,6,143,13,2
12,6,307,173,2
58,6,30,115,2
288,6,47,0,2
141,6,77,205,2
58,6,9,121,2
26,6,39,0,2
150,6,63,175,2
15,6,132,87,2
90,6,31,28,2
17,6,114,117,2
40,6,63,9,2
2,6,89,9,2
56,6,47,18,2
21,6,150,164,2
85,6,75,27,2
8,6,1,0,2
107,6,162,49,2
26,6,16,80,2
17,6,156,153,2
206,6,91,127,2
106,6,72,31,2
95,6,316,133,2
225,6,328,135,2
46,6,125,84,2
74,6,2,134,2
138,6,150,78,2
177,6,161,14,2
190,6,113,201,2
9,6,131,37,2
90,6,5,35,2
70,6,499,488,2
168,7,18,69,2
293,6,450,400,2
284,6,10,80,2
135,6,135,196,2
294,6,446,434,2
7,6,172,106,2
279,6,271,233,2
215,6,178,187,2
229,6,60,5,2
266,6,269,286,2
190,6,82,35,2
284,6,5,27,2
135,6,259,173,2
50,6,53,32,2
266,6,41,157,2
60,6,39,77,2
119,6,200,88,2
397,6,81,9,2
54,6,95,124,2
65,6,405,275,2
92,6,211,106,2
282,6,145,31,2
17,6,43,50,2
74,6,65,6,2
0,6,51,45,2
126,6,221,172,2
63,6,52,0,2
6,6,56,26,2
182,6,131,142,2
39,6,137,48,2
5,6,358,231,2
241,6,79,0,2
30,6,179,139,2
200,6,206,266,2
11,6,431,447,2
269,6,130,10,2
151,6,27,85,2
98,6,23,91,2
22,6,37,87,2
139,6,54,86,2
57,6,19,20,2
216,6,41,24,2
4,6,158,72,2
133,6,39,54,2
80,6,235,64,2
82,6,359,365,2
83,6,11,0,2
260,6,331,444,2
27,6,74,49,2
352,6,159,37,2
45,7,3,64,2
310,6,62,105,2
17,6,72,123,2
39,6,3,0,2
229,6,148,155,2
46,6,59,75,2
224,6,166,120,2
28,6,256,6,2
187,6,15,9,2
78,6,172,98,2
48,7,164,144,2
104,6,5,30,2
73,6,13,218,2
179,6,309,493,2
57,6,18,0,2
98,6,476,644,2
246,6,3,162,2
167,6,162,22,2
267,6,136,13,2
82,6,73,63,2
150,6,23,61,2
299,6,81,0,2
153,7,4,12,2
0,6,93,65,2
454,6,168,115,2
115,6,251,70,2
232,6,53,115,2
166,6,350,231,2
93,6,156,88,2
122,6,333,309,2
19,6,174,175,2
166,6,363,435,2
43,7,16,3,2
218,6,71,46,2
215,6,66,121,2
130,6,39,32,2
62,6,41,165,2
12,6,290,42,2
163,6,8,27,2
67,6,142,129,2
75,6,99,154,2
240,6,76,48,2
88,6,128,95,2
120,6,199,227,2
132,6,24,249,2
46,6,47,198,2
27,6,328,304,2
113,6,58,231,2
111,6,120,66,2
92,6,3,195,2
4,6,162,35,2
335,6,22,57,2
165,6,279,245,2
179,6,85,115,2
226,6,36,80,2
148,6,36,82,2
131,6,238,193,2
29,6,41,23,2
162,6,130,0,2
189,6,199,109,2
152,7,125,111,2
166,6,74,43,2
2,6,163,37,2
114,7,129,104,2
319,6,492,282,2
65,6,233,117,2
269,6,174,134,2
88,6,81,12,2
242,6,18,0,2
170,6,168,28,2
136,7,202,125,2
285,6,361,62,2
71,6,87,0,2
230,6,83,74,2
259,6,73,26,2
91,6,115,50,2
215,6,176,89,2
39,6,107,16,2
192,6,328,309,2
119,6,199,74,2
110,6,709,415,2
233,6,59,47,2
8,6,152,110,2
192,6,26,0,2
70,6,201,59,2
146,6,106,37,2
237,6,39,37,2
88,6,48,0,2
225,6,59,23,2
212,6,54,45,2
134,7,3,87,2
222,6,116,6,2
98,6,164,0,2
324,6,116,71,2
187,6,138,7,2
166,6,24,37,2
284,6,71,74,2
204,6,146,82,2
362,6,72,106,2
217,6,390,414,2
161,6,57,39,2
338,6,742,705,2
35,7,3,22,2
236,6,163,183,2
231,6,34,164,2
50,6,62,4,2
89,6,118,97,2
73,6,93,40,2
83,6,14,52,2
135,6,158,43,2
74,6,63,21,2
295,6,121,25,2
10,6,16,0,2
83,6,21,50,2
41,6,13,86,2
226,6,56,61,2
112,6,63,21,2
3,6,61,21,2
302,6,55,95,2
341,6,164,155,2
44,6,47,0,2
349,6,180,54,2
78,6,4,35,2
42,6,1,106,2
162,6,33,137,2
120,6,101,95,2
201,6,3,105,2
42,6,48,150,2
277,6,132,121,2
95,6,185,50,2
10,6,307,0,2
251,6,293,116,2
8,6,100,90,2
95,6,185,289,2
345,6,47,105,2
93,6,16,45,2
107,6,10,44,2
9,6,15,96,2
118,6,49,38,2
65,6,83,63,2
17,6,66,88,2
233,6,42,9,2
65,6,124,54,2
133,6,20,0,2
278,6,99,39,2
101,6,61,11,2
15,6,88,118,2
142,6,20,0,2
189,6,19,7,2
44,7,76,84,2
78,6,22,0,2
456,6,64,0,2
53,6,26,28,2
197,6,21,86,2
221,6,6,8,2
20,6,6,18,2
120,6,73,62,2
219,6,11,49,2
162,6,94,7,2
6,6,3,0,2
22,6,24,0,2
319,6,28,9,2
24,6,43,47,2
195,6,17,52,2
455,6,139,195,2
254,6,100,2,2
3,6,40,57,2
127,6,103,22,2
266,6,76,0,2
309,6,9,1,2
11,6,3,85,2
266,6,19,51,2
5,6,26,45,2
7,6,105,159,2
380,6,10,124,2
6,6,37,47,2
254,6,5,0,2
209,6,16,14,2
205,6,6,5,2
115,6,93,85,2
149,6,25,53,2
501,6,64,0,2
171,6,111,28,2
100,6,10,88,2
151,6,69,0,2
113,6,83,8,2
112,6,71,145,2
222,6,103,118,2
185,6,7,88,2
144,6,275,110,2
56,6,65,21,2
342,6,68,23,2
28,6,30,5,2
136,6,34,34,2
196,6,29,44,2
113,6,120,32,2
330,6,1,0,2
181,6,42,21,2
385,6,29,2,2
111,6,187,77,2
116,6,94,0,2
488,6,165,53,2
66,6,118,7,2
120,6,38,32,2
48,6,107,63,2
169,6,67,47,2
110,6,178,138,2
52,6,2,82,2
190,6,235,244,2
12,6,123,98,2
38,6,137,158,2
418,6,33,53,2
38,6,137,34,2
134,6,8,55,2
141,6,96,41,2
275,6,174,47,2
264,6,73,92,2
166,6,49,45,2
206,6,14,13,2
45,6,49,16,2
26,6,79,228,2
407,6,32,40,2
6,6,256,152,2
446,6,66,77,2
214,6,233,90,2
256,6,80,58,2
46,6,72,15,2
84,6,43,98,2
275,6,87,11,2
1,6,68,40,2
252,6,100,85,2
280,6,155,162,2
56,6,329,40,2
111,6,67,1,2
45,6,141,17,2
137,6,124,0,2
120,6,61,110,2
97,6,370,53,2
84,6,43,25,2
230,6,226,27,2
15,6,203,230,2
361,6,42,143,2
128,6,302,380,2
74,6,188,114,2
356,6,451,370,2
8,6,220,207,2
310,6,355,333,2
143,6,234,71,2
358,6,10,161,2
222,6,287,319,2
55,6,255,107,2
232,6,285,196,2
16,6,344,273,2
201,6,152,86,2
338,6,346,215,2
55,6,216,64,2
62,6,328,84,2
431,6,258,223,2
121,6,203,217,2
252,6,447,279,2
255,6,305,284,2
278,6,224,69,2
274,6,78,14,2
29,6,237,35,2
604,6,291,304,2
90,6,31,328,2
55,6,301,120,2
36,7,111,0,2
31,6,214,110,2
65,6,204,15,2
313,6,503,212,2
254,7,17,28,2
391,6,765,564,2
138,7,286,564,2
43,6,325,125,2
244,6,142,281,2
151,6,102,212,2
230,6,401,488,2
157,6,504,582,2
14,6,242,63,2
28,6,517,433,2
63,6,35,136,2
107,6,375,103,2
69,6,194,17,2
400,6,245,11,2
58,6,4,210,2
9,6,151,95,2
224,6,156,118,2
36,6,117,12,2
96,6,619,656,2
94,6,330,36,2
236,7,1023,1023,2
1,5,44,301,2
245,6,1023,873,2
285,6,517,784,2
228,6,961,554,2
47,6,447,574,2
74,6,275,266,2
124,6,41,108,2
163,6,421,175,2
133,6,211,201,2
356,6,282,0,2
242,6,365,285,2
65,6,81,209,2
297,6,84,23,2
23,6,290,20,2
443,6,21,150,2
86,6,216,50,2
415,6,251,76,2
181,6,145,269,2
182,6,90,186,2
461,6,404,336,2
6,6,228,197,2
265,6,336,195,2
230,6,97,45,2
94,6,27,21,2
15,6,347,251,2
110,6,138,84,2
332,5,675,666,2
210,7,399,333,2
19,6,488,441,2
132,6,624,269,2
239,6,260,236,2
141,6,443,231,2
25,7,306,144,2
226,6,292,184,2
319,6,646,436,2
7,6,291,156,2
104,6,581,415,2
98,6,288,62,2
234,6,49,33,2
5,6,330,49,2
3,6,21,243,2
218,6,99,60,2
44,6,412,182,2
137,5,428,100,2
316,7,315,108,2
136,6,587,57,2
218,5,241,231,2
71,6,218,23,2
109,7,614,574,2
116,5,216,287,2
28,6,161,115,2
10,6,18,205,2
3,7,233,231,2
4,6,174,1,2
4,6,148,264,2
3,6,203,0,2
3,6,410,197,2
2,6,664,602,2
3,7,229,165,2
1,6,875,923,2
2,6,649,594,2
3,7,247,240,2
2,6,387,101,2
2,6,179,53,2
1,6,617,517,2
2,6,183,182,2
1,6,395,617,2
2,7,80,100,2
2,6,67,53,2
2,6,2,167,2
2,6,173,224,2
1,6,142,271,2
1,6,431,481,2
1,7,363,707,2
2,6,302,485,2
2,6,157,45,2
1,6,253,321,2
2,6,23,175,2
2,6,232,43,2
1,6,537,461,2
0,6,914,661,2
2,7,419,209,2
1,6,666,668,2
0,6,862,747,2
2,6,201,360,2
0,6,958,969,2
2,7,138,610,2
1,7,664,310,2
1,6,593,666,2
1,6,716,423,2
1,6,636,860,2
1,6,886,243,2
1,6,750,492,2
2,7,150,65,2
0,6,802,720,2
0,5,938,854,2
2,7,123,308,2
0,5,932,935,2
2,7,11,393,2
0,5,1023,1023,2
1,7,277,603,2
1,6,512,525,2
1,6,349,135,2
1,6,436,435,2
1,6,101,376,2
1,6,93,306,2
1,6,40,63,2
1,6,85,1,2
1,6,96,274,2
1,6,119,39,2
1,6,63,101,2
1,6,36,194,2
1,6,340,251,2
1,6,104,36,2
1,6,409,383,2
1,6,248,268,2
1,6,166,292,2
1,6,9,63,2
1,6,304,216,2
1,6,287,52,2
1,6,427,324,2
1,7,68,265,2
1,6,458,423,2
0,5,143,261,2
0,6,141,91,2
1,6,3,5,2
1,6,190,216,2
1,6,101,62,2
1,6,59,0,2
0,6,483,509,2
1,6,179,328,2
0,6,616,699,2
1,6,377,555,2
1,6,371,383,2
1,6,52,186,2
1,6,260,59,2
1,6,507,205,2
1,6,234,46,2
1,6,91,186,2
0,6,536,1023,2
0,5,418,304,2
0,5,932,1023,2
1,6,311,199,2
1,7,14,159,2
1,6,204,73,2
1,6,55,151,2
1,6,378,482,2
1,6,134,0,2
0,6,508,471,2
1,6,108,198,2
1,6,343,205,2
1,6,72,124,2
1,6,169,76,2
0,6,236,448,2
1,6,144,1,2
1,6,68,226,2
1,6,58,42,2
1,6,8,29,2
1,6,245,67,2
1,6,119,146,2
1,6,88,40,2
1,6,5,32,2
1,6,36,55,2
1,6,158,324,2
1,6,27,35,2
1,6,237,378,2
0,6,226,486,2
1,7,67,127,2
1,6,95,250,2
1,6,252,165,2
1,6,71,83,2
1,6,161,274,2
1,6,79,51,2
0,6,469,526,2
1,6,12,11,2
1,6,7,200,2
1,6,152,107,2
1,7,117,110,2
1,6,102,62,2
1,6,67,67,2
1,6,213,98,2
1,6,226,137,2
1,6,78,28,2
1,6,108,96,2
1,6,154,185,2
0,6,447,275,2
1,6,269,396,2
1,7,190,78,2
1,6,135,146,2
1,6,329,62,2
0,6,429,293,2
1,6,179,119,2
1,6,121,209,2
1,6,21,76,2
1,6,82,120,2
0,6,331,364,2
1,6,27,85,2
1,6,164,7,2
1,6,321,191,2
0,6,135,148,2
0,6,740,726,2
1,7,178,246,2
0,6,951,829,2
1,7,525,431,2
1,7,205,337,2
1,6,601,195,2
1,7,248,154,2
1,6,139,40,2
1,6,328,146,2
1,6,216,232,2
1,6,367,167,2
1,6,153,382,2
1,7,123,175,2
1,6,78,0,2
1,6,183,120,2
1,6,160,212,2
1,7,217,98,2
1,6,230,59,2
1,6,445,213,2
1,6,196,228,2
1,6,111,3,2
1,6,66,176,2
1,6,348,293,2
1,6,28,113,2
1,6,120,135,2
1,6,115,193,2
1,6,45,51,2
0,6,90,123,2
0,6,64,133,2
1,6,215,36,2
1,6,267,43,2
1,6,17,109,2
1,6,220,174,2
1,6,23,169,2
1,6,74,54,2
0,6,530,481,2
1,6,135,133,2
0,6,337,351,2
1,6,83,144,2
1,6,234,174,2
1,7,32,2,2
0,6,183,314,2
1,6,63,44,2
1,6,23,203,2
1,7,60,4,2
1,6,77,34,2
1,6,3,12,2
0,6,242,292,2
1,6,11,8,2
1,6,447,309,2
1,6,325,145,2
1,6,97,19,2
0,6,199,35,2
1,6,31,51,2
1,6,79,83,2
1,6,7,14,2
1,6,177,73,2
1,6,89,10,2
1,6,39,235,2
1,6,4,122,2
1,6,145,76,2
1,6,90,0,2
0,6,217,415,2
1,6,78,31,2
0,6,439,531,2
1,7,75,104,2
1,6,67,128,2
1,6,148,70,2
0,6,149,64,2
1,6,68,120,2
1,6,155,108,2
1,6,157,232,2
1,6,57,36,2
0,6,203,203,2
1,6,277,17,2
1,6,172,42,2
1,6,5,52,2
0,6,234,247,2
1,6,169,74,2
1,6,99,71,2
1,6,196,230,2
1,6,93,54,2
1,6,18,62,2
1,6,14,58,2
1,6,30,43,2
1,6,305,82,2
1,6,8,41,2
1,6,201,117,2
1,6,217,1,2
1,6,167,118,2
1,6,15,124,2
1,6,83,66,2
0,6,172,198,2
1,6,243,205,2
1,6,361,323,2
1,6,105,67,2
1,6,118,131,2
1,6,53,36,2
1,6,42,44,2
1,6,184,69,2
1,6,83,4,2
1,6,96,0,2
1,6,119,0,2
1,6,199,172,2
1,7,141,66,2
1,6,96,150,2
1,6,71,6,2
1,6,113,54,2
1,6,128,0,2
1,6,355,261,2
1,6,63,81,2
1,6,39,15,2
0,6,211,256,2
1,6,63,81,2
1,6,185,12,2
1,6,21,81,2
1,6,97,40,2
1,6,8,7,2
1,6,81,162,2
1,6,77,77,2
1,6,265,189,2
1,6,198,49,2
1,6,260,146,2
0,6,324,285,2
1,6,255,291,2
1,6,32,47,2
1,6,26,173,2
1,6,300,242,2
1,6,47,0,2
1,6,147,144,2
1,6,12,91,2
1,6,194,142,2
1,6,37,115,2
1,6,45,36,2
0,6,425,293,2
1,6,328,144,2
1,6,53,32,2
1,6,226,174,2
1,6,342,180,2
1,6,31,11,2
1,6,78,100,2
1,6,239,82,2
1,6,234,172,2
1,6,58,0,2
1,6,192,157,2
1,6,48,8,2
1,6,23,84,2
1,6,32,0,2
1,6,40,13,2
0,6,32,0,2
1,6,73,82,2
1,6,25,117,2
1,6,200,0,2
1,6,25,10,2
1,6,88,130,2
1,6,142,236,2
1,6,78,237,2
1,6,528,467,2
1,6,107,129,2
0,6,110,117,2
1,6,261,144,2
1,6,73,110,2
1,6,109,3,2
1,6,63,61,2
1,6,109,12,2
1,6,135,86,2
1,6,240,256,2
1,6,282,6,2
1,6,446,447,2
1,7,325,128,2
1,6,235,243,2
0,6,311,264,2
1,6,140,186,2
0,6,218,297,2
1,6,25,33,2
0,6,62,162,2
1,6,139,133,2
1,6,161,93,2
1,6,492,248,2
1,6,116,11,2
1,6,109,30,2
0,6,9,268,2
1,6,10,47,2
1,6,73,147,2
0,6,69,57,2
1,6,129,29,2
0,6,161,0,2
0,6,71,268,2
1,6,128,161,2
1,6,142,237,2
0,6,139,236,2
1,7,158,48,2
0,6,226,235,2
1,6,212,157,2
1,6,99,0,2
1,6,291,108,2
1,6,153,10,2
1,6,81,116,2
1,6,14,20,2
1,6,14,63,2
1,6,52,0,2
1,6,220,34,2
1,6,72,32,2
0,6,79,73,2
1,6,20,56,2
1,6,16,11,2
1,6,76,64,2
0,6,370,392,2
0,6,270,299,2
0,6,552,546,2
1,7,198,192,2
1,6,117,194,2
1,6,91,176,2
1,6,210,147,2
1,6,3,0,2
1,6,203,97,2
1,6,42,0,2
1,6,92,109,2
1,6,15,111,2
1,6,4,34,2
0,6,143,151,2
1,6,131,0,2
0,6,174,130,2
1,6,205,134,2
1,6,148,92,2
1,6,131,3,2
0,6,301,157,2
1,7,128,113,2
0,6,197,126,2
1,6,36,0,2
1,6,54,15,2
1,6,106,167,2
1,6,19,81,2
1,6,80,0,2
1,6,77,0,2
1,6,159,145,2
1,6,301,218,2
1,6,58,26,2
1,6,375,218,2
1,6,280,270,2
1,6,112,168,2
0,6,155,212,2
1,6,100,91,2
1,6,16,43,2
1,6,142,137,2
1,6,161,213,2
1,6,185,109,2
1,6,58,26,2
1,6,93,101,2
1,6,238,21,2
0,6,85,5,2
1,6,28,0,2
1,6,128,88,2
1,6,4,39,2
0,6,322,408,2
1,6,63,46,2
0,6,419,433,2
1,7,73,9,2
1,6,31,118,2
0,6,153,129,2
1,6,258,121,2
1,6,100,0,2
1,6,151,157,2
0,6,249,257,2
0,6,431,272,2
0,6,348,364,2
1,6,303,203,2
1,6,5,41,2
1,6,149,4,2
1,6,77,123,2
0,6,288,163,2
1,6,19,8,2
1,6,142,76,2
1,6,199,67,2
1,6,101,63,2
1,6,99,19,2
0,6,343,245,2
1,6,302,67,2
0,6,277,268,2
1,6,256,153,2
1,6,106,138,2
1,6,18,116,2
1,6,133,143,2
1,6,85,41,2
1,6,22,0,2
1,6,271,10,2
0,6,296,78,2
1,6,46,12,2
1,6,357,133,2
1,6,193,0,2
1,6,14,47,2
1,6,145,41,2
0,6,76,125,2
1,6,27,37,2
1,6,154,0,2
0,6,54,107,2
1,6,215,154,2
1,6,129,127,2
1,6,45,0,2
0,6,447,246,2
1,6,60,29,2
0,6,323,384,2
1,6,183,0,2
1,6,69,248,2
1,6,378,81,2
1,6,76,159,2
1,6,170,134,2
1,6,233,313,2
0,6,1,31,2
1,6,224,317,2
1,7,208,70,2
0,6,329,347,2
1,6,57,198,2
1,6,86,32,2
0,6,509,410,2
1,7,185,58,2
0,6,432,258,2
1,6,31,67,2
1,6,60,62,2
0,6,251,433,2
1,6,25,200,2
0,6,189,298,2
0,6,40,292,2
1,6,372,202,2
1,6,283,369,2
0,6,528,393,2
0,6,380,491,2
0,6,571,459,2
1,6,88,81,2
1,6,344,292,2
0,6,332,323,2
1,6,73,0,2
0,6,273,255,2
1,6,211,264,2
0,6,352,425,2
0,6,257,539,2
1,7,28,115,2
0,6,441,570,2
1,7,645,186,2
0,6,772,765,2
1,7,125,254,2
1,6,476,375,2
0,6,202,659,2
0,6,456,270,2
0,6,773,848,2
1,7,9,52,2
0,6,389,325,2
1,6,341,117,2
0,6,306,511,2
1,6,91,142,2
0,6,875,1023,2
1,7,101,397,2
1,7,1023,1023,2
1,6,225,135,2
0,6,918,739,2
1,7,330,127,2
0,6,639,359,2
1,7,204,74,2
1,6,521,97,2
0,6,141,90,2
1,6,18,29,2
1,6,108,0,2
0,6,619,549,2
0,6,549,355,2
0,6,521,587,2
0,7,261,435,2
0,6,630,542,2
1,7,111,87,2
1,6,326,424,2
1,7,13,127,2
0,6,741,800,2
1,7,302,1,2
0,6,585,225,2
1,7,132,5,2
1,6,463,232,2
1,6,231,230,2
1,6,151,143,2
1,6,109,51,2
1,6,427,72,2
1,6,122,91,2
1,6,298,121,2
1,6,145,170,2
0,6,5,587,2
1,6,61,77,2
0,6,182,176,2
0,6,524,364,2
0,6,426,437,2
1,6,47,120,2
0,5,517,794,2
1,6,392,362,2
1,6,411,349,2
1,7,124,450,2
1,6,130,228,2
0,6,578,503,2
1,6,129,290,2
1,6,192,175,2
0,6,187,583,2
1,7,234,20,2
0,6,257,510,2
1,6,239,115,2
0,6,611,382,2
1,6,69,193,2
0,6,927,741,2
1,7,312,241,2
0,6,619,296,2
1,7,139,54,2
0,6,209,257,2
1,6,424,50,2
1,6,108,92,2
1,6,302,42,2
0,6,19,77,2
0,6,136,240,2
0,6,240,429,2
0,6,244,165,2
0,6,528,740,2
1,7,19,154,2
0,6,352,681,2
1,7,73,0,2
0,6,410,460,2
0,6,363,630,2
1,6,79,248,2
0,6,652,618,2
1,6,17,198,2
1,6,149,164,2
0,6,47,0,2
1,6,115,433,2
0,6,503,589,2
0,6,305,547,2
0,6,456,508,2
0,6,620,906,2
1,7,235,296,2
1,6,142,437,2
1,6,533,344,2
0,6,447,629,2
1,7,118,246,2
1,6,104,52,2
1,7,85,66,2
1,6,215,234,2
0,5,716,1023,2
1,7,212,0,2
0,6,530,916,2
0,5,143,271,2
0,6,373,624,2
1,6,58,211,2
1,6,20,40,2
1,6,57,190,2
0,6,185,257,2
0,5,718,867,2
1,6,558,534,2
0,6,452,574,2
0,6,765,869,2
1,7,266,56,2
0,6,714,994,2
1,7,39,77,2
0,6,512,652,2
0,6,243,496,2
1,7,119,52,2
0,6,397,702,2
0,6,588,567,2
1,7,130,490,2
0,6,843,835,2
1,7,231,393,2
1,6,825,1023,2
1,7,55,39,2
0,6,544,747,2
1,7,17,8,2
1,6,414,99,2
1,6,14,113,2
1,6,357,45,2
0,6,285,596,2
0,6,637,670,2
1,7,390,358,2
1,7,250,108,2
0,6,381,139,2
1,6,235,201,2
1,7,15,15,2
0,6,77,192,2
1,6,9,29,2
0,6,51,225,2
0,5,607,509,2
0,7,375,418,2
1,7,27,163,2
1,6,80,5,2
1,6,6,127,2
0,6,371,680,2
1,7,194,188,2
0,6,676,714,2
1,7,5,171,2
0,6,369,239,2
1,6,183,250,2
1,7,17,105,2
1,6,7,245,2
0,6,307,201,2
1,6,38,108,2
1,6,17,148,2
1,6,50,63,2
0,6,327,184,2
1,6,148,56,2
1,6,122,199,2
0,6,289,143,2
0,6,242,530,2
1,7,378,93,2
1,6,322,368,2
1,6,14,0,2
0,6,138,173,2
1,6,69,40,2
1,6,69,4,2
1,6,84,71,2
1,6,57,10,2
1,6,25,21,2
1,6,59,28,2
0,6,9,119,2
1,6,25,0,2
1,6,177,133,2
0,6,217,287,2
1,6,11,4,2
0,6,28,50,2
0,6,366,476,2
0,6,214,94,2
0,6,808,873,2
1,7,21,46,2
0,6,157,325,2
1,6,69,132,2
1,6,137,42,2
1,6,106,133,2
1,6,31,0,2
0,6,174,34,2
1,6,41,20,2
1,6,39,32,2
1,6,68,24,2
0,6,359,409,2
1,6,154,198,2
1,6,23,50,2
1,6,84,23,2
0,6,20,5,2
1,6,147,39,2
0,6,246,167,2
1,6,135,25,2
0,6,323,181,2
1,6,29,10,2
1,6,80,67,2
0,6,182,91,2
0,6,318,101,2
1,6,16,103,2
0,6,207,225,2
0,6,207,217,2
1,6,17,182,2
0,6,50,54,2
0,6,626,475,2
1,7,209,191,2
1,6,318,133,2
0,6,118,85,2
1,6,86,0,2
1,6,50,54,2
0,6,217,202,2
0,6,39,3,2
0,7,118,168,2
1,6,260,71,2
0,6,204,253,2
1,6,59,165,2
1,6,246,224,2
1,6,26,2,2
0,6,64,64,2
1,6,57,155,2
1,7,205,176,2
0,6,285,336,2
0,6,63,241,2
0,6,204,222,2
1,6,248,0,2
0,6,65,65,2
0,6,83,21,2
0,6,235,154,2
0,6,242,104,2
0,6,8,103,2
0,6,261,357,2
1,6,211,231,2
1,7,14,115,2
1,6,43,19,2
0,6,128,140,2
1,6,18,66,2
1,6,319,79,2
1,6,261,30,2
0,6,246,382,2
0,6,177,152,2
0,6,224,366,2
1,7,36,218,2
0,6,478,404,2
1,6,73,70,2
1,6,8,107,2
0,6,266,224,2
1,6,235,73,2
1,6,245,90,2
1,6,68,58,2
0,6,489,448,2
1,6,166,154,2
0,6,622,548,2
0,6,367,239,2
1,7,76,0,2
1,6,268,68,2
1,6,83,144,2
1,6,153,1,2
0,6,63,10,2
1,6,248,42,2
1,6,135,0,2
1,6,15,41,2
1,6,145,0,2
0,6,324,220,2
1,7,123,15,2
0,6,298,181,2
0,6,108,51,2
0,6,207,228,2
0,6,379,341,3
0,6,326,303,3
1,6,226,323,3
1,7,46,69,3
1,6,179,0,3
1,6,23,47,3
0,6,94,0,3
1,6,96,80,3
1,6,270,0,3
0,6,451,276,3
0,6,406,282,3
1,6,149,147,3
1,6,34,27,3
0,6,220,255,3
1,6,206,50,3
1,6,179,111,3
0,6,133,72,3
1,6,85,0,3
0,6,37,0,3
1,6,2,51,3
1,6,195,248,3
1,6,69,0,3
1,6,53,10,3
0,6,272,283,3
1,6,211,141,3
0,6,385,309,3
1,6,170,146,3
1,6,135,1,3
1,6,86,147,3
1,6,1,9,3
1,6,133,128,3
0,6,151,246,3
0,6,77,164,3
1,6,58,5,3
1,6,326,96,3
1,6,254,202,3
0,6,742,509,3
1,6,289,120,3
0,6,624,633,3
1,7,15,146,3
0,6,566,437,3
0,6,507,560,3
1,7,307,288,3
1,6,41,175,3
1,6,112,116,3
0,6,248,90,3
1,6,79,85,3
0,6,168,0,3
0,6,24,82,3
0,6,326,57,3
1,6,22,0,3
1,6,264,113,3
0,6,167,184,3
0,6,178,113,3
1,6,284,252,3
1,6,41,72,3
1,6,17,51,3
0,6,196,117,3
1,6,6,99,3
1,6,92,59,3
1,6,45,101,3
1,6,20,38,3
1,6,148,96,3
1,6,163,93,3
0,6,359,191,3
1,6,62,148,3
1,6,56,85,3
0,6,177,121,3
0,6,175,47,3
0,6,362,286,3
1,6,318,228,3
1,6,85,102,3
1,6,161,51,3
1,6,48,51,3
1,6,145,0,3
1,6,108,0,3
1,6,72,22,3
1,6,143,18,3
0,6,76,27,3
1,6,194,28,3
0,6,197,218,3
1,6,87,62,3
1,6,247,178,3
1,6,147,43,3
1,6,12,67,3
1,6,287,53,3
1,7,99,12,3
1,6,340,141,3
1,6,6,29,3
0,6,149,131,3
1,6,3,125,3
1,6,5,1,3
1,6,38,0,3
0,6,12,71,3
1,6,26,97,3
1,6,217,65,3
1,6,107,74,3
1,6,273,89,3
1,6,166,40,3
1,6,94,149,3
1,6,70,44,3
0,6,318,420,3
1,6,46,18,3
1,6,4,106,3
0,6,315,393,3
0,6,317,78,3
0,6,271,301,3
1,7,422,176,3
1,6,64,39,3
1,6,228,129,3
0,6,244,185,3
1,6,182,98,3
1,6,70,36,3
1,6,58,0,3
1,6,29,39,3
1,6,180,65,3
0,6,117,138,3
0,6,96,8,3
1,6,97,40,3
1,6,269,127,3
0,6,229,99,3
1,6,356,210,3
1,6,52,0,3
1,6,96,118,3
1,6,121,112,3
1,6,147,0,3
1,6,46,0,3
1,6,45,53,3
0,6,71,1,3
1,6,16,62,3
1,6,102,0,3
0,6,26,19,3
0,6,365,191,3
1,6,48,72,3
0,6,536,391,3
1,7,192,220,3
1,6,92,56,3
1,6,67,71,3
1,6,32,11,3
1,6,52,19,3
1,6,79,0,3
0,6,19,0,3
1,6,103,19,3
1,6,186,156,3
1,6,91,17,3
0,6,42,4,3
0,6,293,269,3
1,6,81,161,3
1,6,239,326,3
1,6,202,143,3
1,6,144,64,3
1,6,27,38,3
1,6,208,75,3
1,6,55,6,3
1,6,69,71,3
1,6,26,80,3
1,6,25,84,3
1,6,108,87,3
0,6,272,211,3
1,6,81,125,3
1,6,204,148,3
0,6,209,217,3
1,6,173,83,3
1,6,116,32,3
1,6,237,80,3
1,6,46,65,3
1,6,70,154,3
1,6,94,40,3
0,6,222,1,3
1,6,108,98,3
1,6,76,159,3
1,7,68,84,3
0,6,287,329,3
1,6,103,100,3
0,6,188,367,3
1,6,121,58,3
0,6,334,359,3
1,6,247,94,3
0,6,766,476,3
1,6,296,115,3
0,6,1004,593,3
1,7,17,80,3
1,6,431,208,3
1,6,218,246,3
0,6,774,364,3
1,7,162,94,3
0,6,724,388,3
1,7,322,171,3
1,6,139,106,3
1,6,259,199,3
1,6,432,92,3
1,6,237,130,3
0,6,659,287,3
0,6,481,457,3
1,7,72,223,3
0,6,842,620,3
1,7,130,246,3
0,6,660,416,3
0,6,325,536,3
1,7,360,242,3
0,6,449,623,3
1,7,339,332,3
1,6,312,261,3
0,6,603,683,3
1,7,298,77,3
0,6,513,552,3
1,7,60,180,3
0,6,514,534,3
1,6,442,419,3
0,6,702,679,3
1,6,102,149,3
1,6,62,109,3
1,6,237,110,3
0,6,69,74,3
0,6,9,43,3
0,6,337,167,3
0,6,338,660,3
0,6,474,416,3
1,6,64,205,3
0,6,435,251,3
1,6,127,11,3
0,6,920,770,3
1,7,189,159,3
0,6,841,803,3
1,7,70,172,3
0,6,707,513,3
0,6,348,420,3
1,7,177,36,3
0,6,68,300,3
1,7,126,76,3
1,6,215,0,3
1,6,230,31,3
0,6,477,130,3
1,6,42,245,3
1,6,265,83,3
1,6,17,26,3
0,6,235,453,3
0,6,64,262,3
1,6,114,157,3
1,6,50,143,3
1,6,81,119,3
1,6,116,26,3
0,6,245,421,3
0,6,520,385,3
1,6,120,80,3
0,6,812,539,3
1,6,251,248,3
0,6,868,706,3
0,6,761,845,3
1,7,506,81,3
0,6,981,1023,3
1,7,141,424,3
1,7,595,408,3
1,6,305,419,3
0,6,457,289,3
0,6,597,746,3
1,7,92,177,3
0,6,234,449,3
0,6,164,104,3
1,6,38,114,3
1,6,121,92,3
1,6,22,60,3
1,7,69,43,3
1,6,154,177,3
0,6,227,338,3
0,6,511,693,3
1,7,72,213,3
0,6,259,408,3
0,6,567,359,3
0,6,509,792,3
1,6,179,178,3
0,6,74,331,3
1,6,196,84,3
0,6,185,486,3
1,6,24,278,3
0,6,94,55,3
0,6,522,181,3
1,6,22,135,3
1,6,112,0,3
1,6,308,25,3
1,6,55,92,3
0,6,116,331,3
1,7,105,55,3
0,6,449,308,3
1,6,16,109,3
0,6,233,93,3
0,6,50,43,3
1,6,177,190,3
0,6,489,92,3
0,6,205,329,3
1,7,209,0,3
1,6,238,6,3
0,7,85,6,3
0,6,298,127,3
0,6,196,75,3
1,6,232,153,3
1,6,244,138,3
0,6,242,523,3
1,6,149,100,3
0,6,321,579,3
0,6,425,386,3
0,6,620,654,3
1,6,172,37,3
0,6,682,587,3
1,6,225,127,3
0,6,600,504,3
1,7,149,292,3
0,6,579,495,3
1,6,85,173,3
0,6,346,327,3
1,6,660,0,3
1,6,277,334,3
1,6,137,194,3
0,6,203,323,3
0,6,58,340,3
1,6,295,76,3
1,6,71,0,3
0,6,74,477,3
1,6,73,16,3
0,6,475,144,3
1,5,69,61,3
0,6,478,444,3
1,7,83,61,3
1,6,185,138,3
1,6,125,62,3
0,6,435,471,3
1,6,74,66,3
1,6,132,16,3
1,6,66,13,3
1,6,505,10,3
0,6,262,326,3
1,6,8,148,3
1,6,103,236,3
1,6,168,40,3
1,6,102,102,3
1,6,315,60,3
1,6,186,53,3
0,6,585,434,3
1,6,71,12,3
0,5,929,1002,3
1,7,413,318,3
0,6,718,569,3
1,6,14,274,3
0,6,735,989,3
1,7,316,349,3
1,7,10,258,3
1,6,245,34,3
1,7,191,189,3
1,6,14,193,3
0,6,549,638,3
0,6,588,597,3
0,6,523,605,3
1,7,480,453,3
1,7,124,82,3
0,6,621,727,3
1,6,324,6,3
0,6,369,609,3
1,6,35,187,3
1,6,40,394,3
0,6,407,771,3
0,6,566,894,3
0,6,525,708,3
1,7,483,444,3
0,6,553,705,3
1,7,214,15,3
1,6,319,259,3
0,6,296,217,3
0,6,406,462,3
1,6,5,120,3
0,6,348,396,3
0,6,390,673,3
0,6,535,780,3
0,6,465,661,3
1,7,248,307,3
1,6,36,23,3
0,6,334,315,3
1,6,169,75,3
1,6,98,40,3
0,6,128,86,3
1,6,34,132,3
0,6,594,509,3
1,6,42,146,3
1,6,393,176,3
0,6,161,311,3
1,6,124,119,3
0,6,380,465,3
1,6,162,382,3
0,6,493,589,3
0,6,189,296,3
0,6,398,525,3
1,6,72,79,3
0,6,373,586,3
0,6,84,465,3
0,6,307,539,3
1,7,205,67,3
1,6,19,139,3
0,6,236,199,3
1,6,7,45,3
1,6,54,0,3
1,6,132,119,3
1,6,280,45,3
1,6,14,104,3
1,6,380,267,3
0,7,235,281,3
0,6,487,574,3
0,7,89,54,3
1,6,28,2,3
1,6,233,231,3
1,6,115,193,3
1,6,183,208,3
1,6,92,177,3
1,6,6,34,3
0,6,285,170,3
1,6,54,79,3
0,6,500,347,3
1,6,38,30,3
1,6,105,134,3
1,6,33,31,3
0,6,615,405,3
1,7,161,200,3
1,6,594,356,3
1,7,162,159,3
1,6,291,73,3
0,6,548,572,3
1,7,55,3,3
1,7,56,101,3
1,7,210,29,3
1,6,45,0,3
0,6,300,219,3
1,6,155,0,3
0,6,190,298,3
1,6,66,35,3
1,6,134,0,3
0,6,80,86,3
0,6,571,623,3
0,6,239,247,3
1,6,202,80,3
1,6,254,238,3
1,6,194,31,3
1,6,75,47,3
1,6,112,0,3
0,6,62,146,3
1,6,134,18,3
0,6,492,512,3
1,6,180,84,3
1,6,214,51,3
0,6,252,72,3
1,6,78,183,3
1,6,38,35,3
0,6,352,252,3
1,7,99,163,3
1,6,101,0,3
1,6,247,223,3
0,6,210,332,3
1,7,10,28,3
0,6,135,260,3
1,6,27,158,3
1,6,190,32,3
0,6,341,355,3
1,7,34,2,3
0,6,422,234,3
1,6,7,34,3
1,6,27,78,3
1,6,13,117,3
0,6,79,125,3
0,6,581,411,3
1,6,325,192,3
0,6,264,236,3
1,6,25,34,3
0,6,316,356,3
1,6,117,39,3
1,6,44,101,3
1,6,140,90,3
1,6,84,71,3
0,6,418,277,3
1,6,246,102,3
0,6,368,132,3
1,6,375,56,3
1,6,41,21,3
1,6,138,88,3
0,6,107,157,3
1,6,144,145,3
1,6,5,69,3
0,6,107,256,3
1,6,34,36,3
0,6,194,0,3
0,6,140,169,3
1,6,63,15,3
0,6,34,249,3
1,6,341,240,3
1,7,87,3,3
1,6,255,57,3
1,6,258,148,3
1,6,61,32,3
0,6,136,80,3
1,6,203,49,3
1,6,57,64,3
1,6,18,52,3
1,6,18,43,3
1,6,69,66,3
0,7,83,87,3
1,6,18,0,3
0,6,85,101,3
0,6,119,254,3
1,6,140,148,3
1,6,11,0,3
0,6,215,187,3
1,6,159,70,3
1,6,36,4,3
1,6,100,43,3
1,6,155,7,3
1,6,84,30,3
1,6,194,50,3
1,6,50,63,3
0,6,5,179,3
0,6,524,224,3
1,6,203,39,3
0,6,563,218,3
1,6,18,4,3
1,6,71,66,3
0,6,275,229,3
1,6,129,44,3
1,6,20,0,3
1,6,10,4,3
0,6,48,100,3
1,6,158,60,3
1,6,38,98,3
1,6,242,21,3
1,6,4,43,3
1,6,265,68,3
0,6,61,71,3
1,6,92,123,3
1,6,70,94,3
0,6,484,372,3
1,6,95,40,3
0,6,162,51,3
0,6,456,445,3
1,6,120,39,3
0,6,438,583,3
1,7,5,5,3
0,7,26,176,3
0,6,127,158,3
0,6,336,73,3
1,6,222,101,3
1,6,362,100,3
1,6,145,89,3
1,6,141,93,3
1,6,50,0,3
1,6,50,29,3
0,6,187,356,3
1,6,11,0,3
0,6,169,367,3
1,6,123,50,3
1,6,212,327,3
0,6,194,200,3
0,6,215,274,3
1,6,65,60,3
1,6,51,143,3
1,6,144,10,3
1,6,128,0,3
1,6,9,0,3
0,6,129,37,3
1,6,19,0,3
0,6,20,81,3
1,6,14,0,3
1,6,45,23,3
0,6,312,211,3
1,6,7,72,3
1,6,84,16,3
0,6,314,393,3
0,6,387,332,3
1,7,27,41,3
1,6,99,219,3
0,6,260,247,3
0,6,164,197,3
1,6,143,140,3
0,6,7,6,3
1,6,65,53,3
1,6,156,49,3
0,6,179,93,3
1,6,76,23,3
1,6,81,26,3
1,6,91,34,3
1,6,92,141,3
0,6,355,381,3
1,6,187,25,3
1,6,331,293,3
0,6,415,120,3
1,6,5,0,3
1,6,101,4,3
0,7,107,8,3
1,6,26,31,3
0,6,381,206,3
1,6,86,24,3
1,6,183,52,3
1,6,2,0,3
0,6,83,77,3
1,6,18,28,3
0,6,6,32,3
1,6,21,0,3
0,6,17,107,3
1,6,161,127,3
1,6,153,23,3
1,6,301,9,3
0,6,275,290,3
1,6,139,11,3
0,6,450,457,3
1,6,197,78,3
1,6,70,36,3
1,6,34,0,3
1,6,73,104,3
1,6,66,39,3
1,6,121,47,3
1,7,18,60,3
1,6,113,3,3
0,6,61,0,3
1,6,101,111,3
1,6,9,0,3
0,6,155,133,3
0,6,142,244,3
1,6,133,142,3
0,6,404,337,3
1,6,203,53,3
0,6,71,209,3
0,6,13,92,3
0,6,81,183,3
1,6,87,0,3
1,6,121,89,3
1,6,85,49,3
1,6,21,0,3
1,6,168,18,3
0,6,83,136,3
0,6,25,0,3
1,6,153,147,3
0,6,144,58,3
1,6,69,0,3
1,6,43,27,3
1,7,21,6,3
0,6,111,89,3
0,6,207,103,3
0,7,83,107,3
0,6,253,60,3
1,6,242,177,3
1,6,10,10,3
0,6,219,256,3
1,6,94,112,3
1,6,17,29,3
0,7,159,107,3
0,6,56,0,3
1,6,65,35,3
1,6,15,4,3
0,6,122,119,3
1,6,52,7,3
1,6,225,214,3
0,6,229,159,3
0,6,259,380,3
1,6,406,252,3
1,6,309,150,3
1,6,155,194,3
1,6,178,0,3
1,6,321,33,3
1,6,152,0,3
0,6,158,285,3
1,6,8,67,3
1,6,233,67,3
0,7,82,104,3
0,6,116,1,3
1,7,74,57,3
0,6,431,319,3
1,6,5,43,3
1,6,12,55,3
1,6,29,54,3
0,6,351,422,3
1,6,172,9,3
0,6,318,295,3
1,6,75,111,3
0,6,743,397,3
1,7,273,184,3
0,6,605,469,3
1,7,238,308,3
1,6,6,106,3
0,6,4,17,3
0,6,549,373,3
1,6,293,26,3
0,5,801,686,3
1,7,188,190,3
0,6,640,872,3
1,7,12,385,3
0,6,402,744,3
1,7,130,308,3
0,6,452,720,3
1,7,117,254,3
0,6,343,479,3
1,6,95,132,3
0,6,70,208,3
0,6,158,132,3
0,6,519,326,3
1,6,92,8,3
1,6,442,86,3
1,7,7,88,3
1,6,265,0,3
0,6,36,144,3
0,6,38,11,3
1,6,198,70,3
0,6,444,318,3
1,6,205,56,3
1,6,127,145,3
0,6,429,274,3
0,6,409,215,3
0,6,262,748,3
0,6,806,420,3
0,7,200,321,3
1,6,509,322,3
0,6,687,688,3
1,7,101,171,3
1,6,477,192,3
1,7,37,87,3
0,6,560,368,3
0,6,444,477,3
1,6,106,0,3
0,6,205,253,3
0,6,206,226,3
0,6,477,235,3
0,6,223,332,3
0,6,617,319,3
0,6,259,355,3
0,6,829,788,3
1,7,135,184,3
0,6,630,583,3
1,7,319,346,3
1,7,393,273,3
0,6,540,631,3
1,7,227,73,3
0,6,164,333,3
0,6,453,286,3
0,6,49,151,3
0,6,700,430,3
1,7,299,202,3
0,6,521,485,3
1,6,303,354,3
0,6,819,732,3
1,6,242,123,3
0,6,346,446,3
1,7,217,126,3
0,6,529,497,3
0,6,502,333,3
0,6,321,402,3
1,6,535,171,3
0,6,25,250,3
1,6,228,58,3
0,6,294,162,3
1,6,5,85,3
0,6,488,315,3
1,6,75,108,3
0,6,233,123,3
0,6,336,312,3
1,6,17,28,3
0,6,708,592,3
0,7,296,200,3
1,6,649,288,3
1,7,241,2,3
0,6,566,791,3
1,7,12,29,3
1,6,136,246,3
0,6,137,92,3
0,6,445,525,3
1,7,148,105,3
0,6,876,665,3
1,7,375,116,3
1,7,264,11,3
0,6,435,83,3
0,6,428,285,3
1,6,358,157,3
1,6,254,347,3
1,6,374,83,3
1,6,6,112,3
1,6,8,243,3
0,6,572,388,3
0,6,527,455,3
0,6,819,713,3
0,6,450,623,3
1,6,539,435,3
0,6,880,656,3
0,7,422,613,3
0,6,764,782,3
1,7,162,138,3
0,6,425,470,3
1,7,8,31,3
0,6,257,371,3
0,6,322,349,3
0,6,428,248,3
0,6,456,353,3
0,6,349,315,3
1,6,146,303,3
1,6,11,8,3
1,6,503,86,3
1,7,122,27,3
0,6,392,415,3
0,6,337,743,3
1,7,339,113,3
0,6,424,591,3
1,7,508,193,3
0,6,371,254,3
1,6,419,264,3
1,6,364,271,3
0,6,547,325,3
1,6,82,239,3
1,6,9,42,3
1,6,220,11,3
0,6,516,670,3
0,6,246,565,3
0,6,464,573,3
1,7,161,526,3
0,6,535,576,3
1,6,377,187,3
0,6,620,531,3
1,7,288,0,3
1,6,129,111,3
1,6,256,65,3
1,6,79,6,3
1,6,109,138,3
0,6,350,376,3
0,6,575,389,3
1,7,58,109,3
0,6,525,655,3
1,7,134,10,3
0,6,749,685,3
1,6,128,300,3
1,6,528,321,3
1,7,35,36,3
0,6,544,604,3
1,7,278,319,3
0,6,838,732,3
0,6,664,710,3
0,7,397,449,3
0,6,583,763,3
1,7,40,51,3
0,6,568,804,3
0,6,506,689,3
0,6,479,705,3
1,6,262,285,3
0,6,307,180,3
0,6,714,536,3
1,6,124,88,3
0,6,267,60,3
0,6,385,418,3
1,6,171,14,3
1,6,398,40,3
0,6,607,663,3
1,7,166,265,3
6,10,1023,1023,3
0,6,703,591,3
0,6,321,541,3
0,6,413,309,3
1,6,19,143,3
1,6,93,12,3
0,7,91,151,3
1,6,186,152,3
1,6,80,103,3
0,6,26,19,3
0,6,536,540,3
1,7,133,14,3
0,6,597,375,3
1,6,255,77,3
1,6,335,182,3
1,6,157,321,3
0,6,465,494,3
1,6,97,97,3
0,6,302,450,3
1,6,294,245,3
0,6,120,369,3
1,6,240,236,3
1,6,67,141,3
0,6,401,291,3
1,6,135,14,3
1,6,142,226,3
1,6,10,34,3
0,6,270,226,3
1,6,152,26,3
1,6,273,253,3
1,6,160,39,3
1,6,204,96,3
1,6,117,241,3
1,7,165,153,3
0,6,290,629,3
1,7,187,50,3
0,5,582,958,3
1,7,156,343,3
1,6,276,371,3
0,6,719,775,3
1,7,172,39,3
0,6,313,331,3
1,6,369,223,3
0,6,44,170,3
0,6,328,186,3
1,6,340,66,3
0,7,31,196,3
0,6,278,80,3
0,6,248,516,3
1,6,35,143,3
0,6,319,588,3
0,7,62,258,3
1,6,237,299,3
0,6,411,314,3
1,6,32,88,3
1,6,78,60,3
1,6,256,144,3
0,6,98,160,3
1,6,113,117,3
1,6,78,85,3
1,6,150,347,3
1,6,103,251,3
0,6,370,267,3
1,6,257,103,3
0,6,476,391,3
1,6,16,109,3
0,6,72,76,3
1,6,49,0,3
0,6,356,266,3
1,6,208,104,3
1,6,88,0,3
1,6,239,223,3
1,6,122,70,3
1,6,1,98,3
0,6,9,105,3
0,6,565,614,3
1,7,325,130,3
0,6,746,869,3
1,7,151,114,3
1,6,132,190,3
1,6,20,15,3
0,6,72,72,3
0,6,10,61,3
1,6,38,58,3
1,6,69,83,3
1,6,52,5,3
1,6,7,59,3
1,6,163,36,3
1,6,215,148,3
0,6,199,234,3
0,6,454,296,3
1,6,230,209,3
1,6,191,177,3
1,6,74,33,3
0,6,132,191,3
1,6,19,0,3
1,6,12,45,3
1,6,1,52,3
1,6,101,36,3
1,6,125,15,3
1,6,92,15,3
1,6,115,86,3
1,6,24,47,3
1,6,2,40,3
1,6,22,13,3
1,6,119,78,3
0,6,108,115,3
1,6,3,0,3
1,6,211,51,3
1,6,58,103,3
0,6,30,41,3
0,6,188,344,3
1,6,3,43,3
1,6,23,131,3
1,6,114,0,3
1,6,182,109,3
1,6,25,0,3
0,6,369,113,3
1,6,126,79,3
1,6,67,49,3
1,6,51,95,3
1,6,61,91,3
1,6,148,81,3
0,6,76,162,3
1,6,104,0,3
1,6,42,17,3
1,6,236,121,3
0,6,10,108,3
1,6,149,110,3
0,6,227,262,3
1,6,60,78,3
1,6,7,0,3
1,6,88,147,3
0,6,317,228,3
1,6,72,13,3
1,6,23,93,3
1,6,89,3,3
1,6,234,147,3
1,6,18,17,3
1,6,20,142,3
1,6,31,11,3
1,6,85,0,3
1,6,17,32,3
1,6,64,38,3
1,6,47,4,3
0,6,446,277,3
1,6,157,152,3
0,6,309,275,3
1,7,4,0,3
1,6,274,208,3
0,6,339,183,4
1,6,43,22,4
1,6,5,51,4
1,6,3,113,4
0,6,72,13,4
0,6,282,59,4
1,6,123,22,4
0,6,106,93,4
1,6,135,87,4
0,6,121,53,4
1,6,99,0,4
1,6,6,108,4
1,6,192,97,4
0,6,173,114,4
1,6,185,90,4
1,6,31,69,4
1,6,4,4,4
0,6,146,87,4
1,6,113,5,4
0,6,79,38,4
1,6,175,8,4
1,6,16,0,4
1,6,230,162,4
0,6,134,226,4
0,6,130,94,4
1,6,31,186,4
1,6,201,147,4
0,6,11,118,4
1,6,16,48,4
0,6,57,31,4
1,7,225,80,4
0,6,202,283,4
1,7,22,28,4
1,6,84,41,4
1,6,65,57,4
1,6,131,33,4
0,7,106,128,4
1,6,10,0,4
0,6,17,50,4
0,6,30,119,4
0,6,115,164,4
1,6,127,0,4
0,6,88,163,4
0,6,520,463,4
1,6,114,184,4
1,6,287,55,4
1,6,165,200,4
1,6,55,0,4
0,6,96,26,4
1,6,94,114,4
0,6,91,91,4
1,6,138,17,4
1,6,205,0,4
1,6,8,141,4
1,6,143,38,4
0,6,127,43,4
1,6,11,94,4
1,7,200,178,4
1,6,42,23,4
1,6,171,51,4
1,6,18,54,4
1,6,126,108,4
0,6,126,180,4
0,6,343,246,4
1,6,265,109,4
1,6,127,133,4
1,6,12,40,4
1,6,50,130,4
1,6,257,9,4
1,6,2,175,4
1,7,108,85,4
1,6,203,5,4
1,6,109,107,4
0,6,302,223,4
1,6,103,66,4
1,6,49,18,4
1,7,97,38,4
0,6,180,135,4
0,6,222,307,4
0,6,230,294,4
0,6,331,426,4
0,6,178,333,4
1,6,184,173,4
1,7,129,161,4
0,6,32,142,4
0,6,158,149,4
0,6,184,124,4
1,6,172,59,4
0,6,65,47,4
0,6,170,122,4
1,6,50,25,4
0,6,50,58,4
1,6,198,110,4
0,6,223,96,4
1,6,165,193,4
1,6,126,19,4
1,6,89,176,4
1,6,135,79,4
1,6,20,61,4
1,6,168,81,4
1,6,22,85,4
0,6,115,173,4
1,6,68,33,4
0,6,331,372,4
1,7,85,38,4
0,6,156,135,4
1,6,242,178,4
1,6,30,0,4
1,6,179,231,4
1,6,10,10,4
1,6,7,5,4
1,6,123,65,4
0,6,261,361,4
0,6,449,393,4
1,6,22,53,4
0,6,393,396,4
1,7,16,107,4
0,6,203,288,4
1,6,2,48,4
1,6,87,135,4
1,6,45,83,4
0,6,145,0,4
1,6,98,13,4
1,6,176,2,4
1,6,31,67,4
1,6,419,95,4
1,6,26,199,4
1,6,220,61,4
0,6,69,338,4
1,7,186,7,4
1,6,19,166,4
0,6,79,69,4
1,6,67,42,4
1,6,174,183,4
1,6,196,51,4
1,6,89,118,4
0,6,23,261,4
0,6,465,589,4
1,6,664,9,4
0,6,941,938,4
2,7,351,160,4
0,6,425,376,4
1,7,96,217,4
1,6,372,76,4
0,6,584,521,4
1,6,142,27,4
0,6,931,783,4
1,6,13,130,4
0,6,690,470,4
1,7,106,312,4
0,6,537,482,4
1,6,8,204,4
0,6,560,533,4
1,7,24,43,4
0,6,417,592,4
1,6,100,28,4
0,6,79,518,4
1,6,364,294,4
0,6,328,152,4
0,6,533,532,4
1,6,125,103,4
0,6,269,342,4
1,6,299,0,4
0,6,573,488,4
1,6,288,27,4
1,6,252,38,4
0,6,82,141,4
1,6,15,116,4
0,6,477,399,4
1,7,10,161,4
0,6,836,573,4
1,6,48,52,4
0,6,497,544,4
1,7,277,2,4
1,6,26,181,4
0,6,691,326,4
0,7,335,384,4
1,6,472,156,4
0,6,412,529,4
1,7,122,165,4
0,6,374,526,4
1,6,566,42,4
0,6,370,466,4
1,7,368,104,4
0,6,528,554,4
1,6,276,53,4
0,6,391,874,4
1,6,143,238,4
0,6,115,410,4
0,6,469,350,4
0,6,229,585,4
1,7,21,52,4
0,6,55,449,4
1,6,157,6,4
1,6,422,47,4
0,6,588,753,4
1,6,380,112,4
0,6,776,521,4
1,6,495,467,4
0,6,655,587,4
0,6,467,571,4
1,7,396,305,4
1,6,238,201,4
1,6,41,211,4
1,6,199,65,4
0,6,124,207,4
0,6,486,500,4
0,6,340,438,4
1,6,287,517,4
0,6,524,760,4
1,7,243,313,4
0,6,467,737,4
1,7,332,136,4
1,6,346,388,4
1,6,308,182,4
0,6,417,387,4
1,6,133,79,4
1,6,188,194,4
1,6,391,326,4
1,6,223,324,4
0,6,495,575,4
1,7,5,70,4
0,6,566,401,4
1,6,244,428,4
0,6,353,651,4
0,6,420,223,4
0,7,198,47,4
1,6,297,87,4
1,6,290,435,4
0,6,323,309,4
1,6,371,325,4
1,6,230,5,4
0,6,381,397,4
1,7,338,298,4
1,7,464,71,4
1,6,251,216,4
1,6,364,184,4
0,6,720,736,4
1,6,130,32,4
0,5,942,892,4
1,7,266,46,4
0,5,1001,1023,4
1,7,246,32,4
0,6,518,596,4
1,7,294,107,4
1,6,197,55,4
1,6,51,303,4
0,6,760,205,4
1,6,263,12,4
0,6,420,795,4
1,7,41,310,4
0,7,302,320,4
0,6,174,569,4
0,6,376,349,4
0,6,352,293,4
0,6,151,376,4
0,6,352,531,4
1,7,17,71,4
1,6,250,132,4
1,6,47,22,4
1,6,177,81,4
1,6,496,261,4
1,7,75,26,4
1,6,18,113,4
0,6,173,226,4
0,6,17,251,4
1,6,72,77,4
1,6,18,210,4
0,6,266,221,4
0,6,215,215,4
1,6,140,265,4
0,6,539,437,4
1,7,52,22,4
0,6,425,311,4
1,6,348,121,4
0,6,662,665,4
1,6,191,190,4
0,6,655,700,4
1,7,99,226,4
0,7,129,211,4
1,6,88,13,4
1,6,104,158,4
0,6,81,295,4
0,6,274,334,4
0,6,159,269,4
1,6,305,129,4
0,6,590,615,4
0,6,174,458,4
0,6,522,568,4
1,6,101,58,4
1,6,317,271,4
0,6,512,587,4
0,6,488,453,4
0,7,80,331,4
0,5,984,899,4
1,6,263,473,4
0,6,455,558,4
0,6,222,319,4
1,7,164,44,4
0,6,419,590,4
1,6,36,0,4
0,6,596,821,4
0,6,301,396,4
0,6,1023,1023,4
0,6,161,295,4
12,17,1023,1023,4
0,5,75,30,4
0,5,462,620,4
1,7,91,281,4
0,6,425,468,4
1,7,303,202,4
0,6,238,285,4
1,7,76,143,4
1,6,230,223,4
1,6,187,88,4
0,6,316,357,4
1,6,255,152,4
1,6,327,126,4
1,6,30,137,4
1,7,41,113,4
1,6,30,86,4
0,6,215,216,4
1,6,198,252,4
0,6,341,312,4
0,6,636,1023,4
0,6,335,443,4
0,6,633,494,4
0,6,325,617,4
0,6,507,745,4
0,6,541,687,4
2,7,28,17,4
0,6,833,935,4
1,7,262,453,4
1,6,176,350,4
0,7,82,163,4
0,6,92,181,4
0,6,407,426,4
1,6,151,302,4
0,6,122,381,4
0,6,441,555,4
1,6,73,128,4
0,6,301,304,4
1,6,85,268,4
0,6,512,566,4
1,7,199,86,4
1,6,136,209,4
1,6,118,193,4
0,6,190,198,4
0,6,28,31,4
0,6,10,73,4
1,6,7,44,4
1,6,4,27,4
0,6,71,292,4
0,6,358,271,4
0,6,553,659,4
1,6,36,69,4
1,6,177,259,4
1,6,22,144,4
1,6,76,84,4
1,6,66,20,4
1,6,110,24,4
1,6,70,0,4
1,6,75,57,4
0,6,229,307,4
1,6,273,163,4
1,6,64,39,4
0,6,303,402,4
1,6,63,116,4
0,6,485,615,4
1,6,40,98,4
1,7,97,119,4
1,6,252,66,4
1,6,65,117,4
1,6,305,218,4
1,6,250,88,4
0,6,425,339,4
1,6,301,128,4
1,6,108,91,4
1,6,224,147,4
0,6,328,313,4
1,6,4,81,4
0,6,76,72,4
0,6,501,699,4
0,6,478,340,4
1,6,181,142,4
0,6,579,334,4
1,6,16,24,4
0,6,113,132,4
1,6,235,55,4
1,6,136,79,4
1,6,39,27,4
1,6,190,44,4
1,6,33,26,4
1,6,55,210,4
1,6,148,27,4
0,6,194,211,4
0,6,206,436,4
1,6,69,24,4
0,6,61,368,4
1,6,78,78,4
1,7,103,164,4
1,6,132,144,4
1,6,237,0,4
1,6,18,10,4
1,6,439,123,4
1,6,181,83,4
0,6,52,81,4
1,6,84,40,4
1,6,113,89,4
1,6,23,53,4
1,6,60,58,4
1,6,150,98,4
1,6,241,91,4
0,6,224,208,4
1,6,256,279,4
0,7,206,203,4
1,6,232,273,4
1,6,43,39,4
0,6,339,340,4
1,6,150,136,4
1,6,115,54,4
1,6,27,80,4
1,6,249,133,4
0,6,81,94,4
1,6,219,30,4
1,6,31,13,4
1,6,3,144,4
0,6,52,113,4
1,6,151,214,4
1,6,23,25,4
1,6,10,115,4
1,6,106,13,4
1,6,45,6,4
0,6,243,139,4
1,6,163,3,4
1,6,4,59,4
1,7,63,0,4
1,6,3,0,4
1,6,151,67,4
1,6,78,0,4
1,6,56,0,4
1,6,4,36,4
1,6,130,9,4
1,6,56,8,4
0,7,217,8,4
0,6,144,42,4
0,6,322,355,4
0,6,217,155,4
0,6,228,329,4
1,6,150,139,4
1,6,90,28,4
1,6,6,0,4
0,6,81,31,4
1,6,149,121,4
1,6,38,0,4
1,6,60,66,4
0,6,40,0,4
1,6,97,44,4
0,6,122,123,4
0,6,301,202,4
0,6,23,125,4
0,6,338,230,4
1,6,57,15,4
0,6,430,353,4
1,6,140,28,4
0,6,94,192,4
1,7,45,4,4
1,6,83,44,4
0,6,12,126,4
1,6,178,5,4
0,6,103,304,4
1,6,292,134,4
1,6,84,202,4
0,6,364,332,4
0,6,62,258,4
1,6,15,0,4
1,6,320,32,4
1,6,228,266,4
0,6,543,362,4
1,6,113,144,4
0,6,370,302,4
1,6,35,0,4
0,6,85,61,4
1,6,43,53,4
1,6,14,0,4
0,6,130,126,4
1,6,53,86,4
0,6,107,185,4
1,6,4,0,4
1,6,37,4,4
1,6,54,78,4
1,6,55,69,4
0,6,149,101,4
1,6,169,98,4
1,6,80,107,4
1,6,49,9,4
1,6,61,1,4
1,6,108,26,4
1,6,19,0,4
1,6,161,129,4
0,6,35,96,4
0,6,110,0,4
1,6,78,98,4
1,6,167,0,4
1,6,61,29,4
0,6,200,133,4
1,6,68,80,4
1,6,13,35,4
1,6,39,53,4
1,6,13,0,4
1,6,2,17,4
1,6,18,23,4
1,6,194,36,4
1,6,160,5,4
1,6,175,14,4
0,6,386,235,4
1,6,27,70,4
0,6,313,229,4
1,6,5,25,4
1,6,135,155,4
1,6,144,130,4
0,6,7,92,4
1,6,115,63,4
1,7,55,0,4
0,6,95,112,4
1,6,183,202,4
1,6,274,95,4
0,6,201,150,4
1,6,68,99,4
0,6,115,126,4
0,6,15,230,4
1,6,78,12,4
1,6,40,99,4
1,6,64,63,4
1,6,30,19,4
1,6,47,3,4
1,6,15,0,4
1,6,93,84,4
0,6,125,135,4
0,6,176,106,4
1,6,119,57,4
1,6,30,8,4
1,6,143,218,4
0,6,128,181,4
1,6,202,172,4
0,6,210,227,4
1,6,19,0,4
0,6,22,85,4
0,6,244,240,4
0,6,352,226,4
1,6,203,167,4
0,6,338,249,4
1,6,44,207,4
1,6,77,176,4
1,6,16,48,4
1,6,283,59,4
1,6,14,39,4
0,6,408,358,4
1,6,142,23,4
0,6,299,253,4
1,6,232,106,4
1,6,197,121,4
0,6,232,54,4
1,6,84,13,4
1,6,124,74,4
0,6,225,326,4
1,6,395,213,4
1,6,103,282,4
0,6,604,415,4
1,7,54,112,4
1,6,143,1,4
1,6,212,0,4
1,6,304,114,4
1,6,345,86,4
1,6,57,110,4
1,6,386,123,4
1,6,50,138,4
1,6,147,0,4
0,6,3,399,4
1,6,465,133,4
1,6,80,33,4
1,6,374,101,4
0,6,239,432,4
1,6,490,329,4
0,6,11,445,4
0,6,370,261,4
1,6,159,21,4
1,6,309,89,4
0,6,602,443,4
0,6,453,325,4
0,6,579,412,4
0,7,297,204,4
1,6,383,31,4
0,6,296,273,4
0,6,569,352,4
0,6,392,288,4
1,6,85,224,4
0,6,232,201,4
0,6,329,357,4
0,6,412,477,4
1,7,134,26,4
0,6,559,514,4
1,7,171,88,4
0,6,323,330,4
1,6,11,144,4
0,6,606,611,4
1,7,308,160,4
0,6,633,475,4
0,6,586,505,4
0,5,1023,1023,4
0,5,399,434,4
0,5,753,657,4
1,6,688,225,4
0,6,1003,680,4
1,7,73,335,4
0,6,777,532,4
1,7,271,360,4
0,6,887,556,4
0,6,167,631,4
0,6,491,114,4
1,6,152,82,4
1,7,84,131,4
1,6,189,5,4
0,6,376,385,4
0,6,114,516,4
0,6,618,577,4
1,6,238,368,4
0,6,627,482,4
1,6,339,231,4
0,6,311,280,4
0,6,518,357,4
1,6,120,33,4
0,6,363,295,4
1,6,10,62,4
0,6,480,616,4
1,7,78,295,4
1,7,250,441,4
1,6,480,134,4
0,5,758,1023,4
0,5,717,281,4
0,6,442,906,4
0,7,653,470,4
0,6,523,822,4
1,6,592,489,4
0,6,493,698,4
0,6,589,538,4
0,6,643,484,4
1,7,255,202,4
1,6,291,58,4
1,6,333,9,4
1,7,76,15,4
0,6,357,315,4
1,6,11,68,4
0,6,321,290,4
1,6,6,81,4
0,6,203,289,4
0,6,584,289,4
1,6,183,91,4
0,6,436,233,4
1,6,155,0,4
1,6,333,2,4
0,6,242,98,4
0,6,29,200,4
1,6,167,0,4
1,6,6,88,4
0,6,162,354,4
1,6,247,260,4
1,6,26,185,4
0,6,27,161,4
1,6,297,161,4
1,6,247,185,4
1,6,212,121,4
0,6,116,204,4
1,6,429,151,4
0,6,517,470,4
1,6,155,46,4
1,6,150,92,4
1,6,265,66,4
0,6,30,58,4
0,6,398,226,4
0,6,104,246,4
1,7,383,276,4
1,6,9,164,4
0,6,67,267,4
1,6,20,5,4
0,6,307,309,4
1,7,151,238,4
0,6,390,275,4
1,6,428,59,4
1,7,59,92,4
0,6,617,421,4
1,7,82,145,4
0,6,423,458,4
0,7,56,380,4
1,6,214,357,4
0,6,27,509,4
1,7,147,303,4
1,6,285,170,4
1,6,277,80,4
0,6,355,634,4
1,6,95,201,4
1,6,264,137,4
1,7,166,71,4
1,6,15,38,4
0,6,94,94,4
1,6,178,201,4
0,6,72,151,4
1,6,162,0,4
0,6,20,17,4
0,6,210,45,4
1,6,196,222,4
1,6,77,69,4
1,6,219,19,4
1,6,33,65,4
0,6,40,241,4
0,6,152,38,4
1,6,96,104,4
0,6,127,12,4
1,6,30,115,4
0,6,382,203,4
0,6,171,357,4
0,6,319,75,4
0,6,340,428,4
0,6,769,1023,4
1,6,72,148,4
1,6,262,394,4
1,6,359,336,4
0,6,191,414,4
1,6,103,4,4
0,6,211,347,4
1,6,131,32,4
1,6,156,119,4
0,6,254,314,4
1,6,221,152,4
0,6,426,405,4
1,6,223,311,4
0,6,435,444,4
0,6,428,609,4
0,6,154,352,4
0,6,609,651,4
1,7,251,165,4
0,6,836,769,4
1,6,614,359,4
1,6,177,210,4
0,6,568,562,4
1,7,3,80,4
1,6,21,49,4
0,6,433,356,4
1,6,498,86,4
1,7,13,154,4
0,6,537,543,4
1,6,183,12,4
1,6,325,517,4
0,6,333,442,4
0,6,530,799,4
0,6,455,608,4
1,7,112,167,4
0,6,21,137,4
1,6,95,170,4
1,6,109,65,4
0,6,267,423,4
0,6,484,269,4
1,6,26,389,4
0,6,256,141,4
0,6,98,590,4
1,7,259,95,4
0,6,122,465,4
0,7,88,125,4
1,6,260,223,4
1,7,126,324,4
0,7,596,448,4
1,6,416,208,4
0,6,652,789,4
0,6,627,724,4
0,6,573,674,4
0,6,482,408,4
11,17,1023,1023,4
0,5,13,318,4
0,5,890,892,4
1,7,159,18,4
0,6,403,196,4
1,6,134,138,4
0,6,357,266,4
1,7,99,94,4
0,6,10,18,4
0,6,453,449,4
1,7,149,90,4
0,6,230,518,4
0,6,785,881,4
1,7,105,289,4
0,6,781,755,4
1,7,65,47,4
0,6,981,820,4
1,7,476,409,4
0,6,743,851,4
0,5,649,1023,4
0,6,477,584,4
0,6,758,1010,4
1,7,82,162,4
0,6,436,654,4
0,5,218,483,4
0,6,442,684,4
0,6,804,635,4
1,7,442,102,4
0,6,509,476,4
1,6,158,288,4
1,6,274,257,4
0,6,454,398,4
1,6,332,175,4
0,6,398,378,4
1,7,56,29,4
0,5,716,750,4
1,7,24,68,4
0,6,556,863,4
0,6,295,692,4
1,7,66,29,4
1,6,30,175,4
0,6,597,595,4
1,6,114,202,4
0,6,426,302,4
0,6,374,550,4
0,6,430,427,4
0,6,553,661,4
1,6,255,319,4
0,6,375,443,4
1,6,421,218,4
0,6,434,497,4
0,6,170,352,4
0,6,160,482,4
1,6,319,217,4
0,6,388,483,4
1,6,321,185,4
0,6,225,265,4
0,7,6,108,4
1,6,157,247,4
1,6,121,200,4
0,6,422,564,4
1,6,77,38,4
1,6,214,272,4
0,6,348,483,4
1,6,36,260,4
1,6,85,236,4
0,6,233,450,4
1,6,31,286,4
0,6,45,276,4
0,6,396,382,4
1,6,17,42,4
0,6,433,413,4
1,7,110,138,4
0,6,264,203,4
1,6,18,55,4
0,6,55,162,4
1,6,77,3,4
1,6,94,0,4
1,6,23,81,4
0,6,194,167,4
1,6,117,167,4
0,6,127,29,4
1,6,25,78,4
0,6,122,159,4
1,6,144,102,4
0,6,62,429,4
0,6,477,257,4
0,6,83,277,4
0,6,13,73,4
0,6,161,201,4
1,6,141,197,4
1,6,149,49,4
1,7,81,78,4
0,6,158,156,4
1,6,11,3,4
1,6,39,53,4
0,6,38,83,4
1,6,270,267,4
1,6,57,7,4
0,6,286,261,4
0,6,93,73,4
0,6,35,122,4
0,6,106,137,4
0,6,106,84,4
1,6,152,133,4
0,6,337,343,4
1,6,2,35,4
1,6,340,459,4
1,6,32,134,4
1,6,8,263,4
1,6,6,103,4
1,6,46,41,4
0,6,81,146,4
1,6,182,330,4
1,6,258,225,4
0,6,418,300,4
0,6,273,263,4
0,6,55,68,4
1,6,3,0,4
0,6,367,387,4
1,6,166,75,4
0,6,78,88,4
0,6,74,92,4
1,6,89,0,4
1,6,81,163,4
1,6,30,0,4
1,6,14,41,4
1,6,77,0,4
0,6,352,361,4
1,7,54,187,4
0,6,241,232,4
0,6,302,399,4
1,6,84,92,4
1,6,2,76,4
0,6,300,171,4
1,6,192,82,4
1,7,141,186,4
0,7,92,153,4
0,6,57,146,4
1,6,166,0,4
1,6,237,73,4
1,6,57,211,4
1,6,68,112,4
1,6,104,191,4
1,6,78,145,4
1,6,68,62,4
1,6,64,58,4
1,6,44,80,4
0,6,212,268,4
0,6,91,79,4
0,6,389,327,4
0,7,101,44,4
0,6,270,228,4
1,6,307,162,4
1,6,266,73,4
1,6,63,108,4
1,6,48,37,4
0,6,18,136,4
1,6,164,42,4
1,6,183,244,4
1,6,50,79,4
1,6,128,208,4
1,6,35,32,4
0,6,168,193,4
1,6,65,231,4
0,6,63,120,4
0,7,234,239,4
1,6,76,22,4
0,6,205,123,4
1,6,200,288,4
1,6,120,0,4
0,6,243,338,4
1,6,147,59,4
0,6,2,111,4
0,6,315,144,4
1,6,141,70,4
0,6,278,299,4
1,6,42,4,4
0,6,405,329,4
1,6,105,103,4
1,6,104,162,4
0,6,303,422,4
0,6,154,129,4
0,6,228,340,4
1,6,482,322,4
1,6,77,23,4
0,6,252,359,4
1,6,88,36,4
0,6,326,339,4
1,6,230,111,4
1,6,150,176,4
1,6,257,129,4
0,6,213,266,4
1,6,114,81,4
0,6,2,115,4
1,6,33,11,4
1,6,123,147,4
1,6,173,195,4
0,6,147,239,4
1,7,127,96,4
1,6,179,228,4
1,6,2,13,4
1,6,169,200,4
1,6,64,4,4
0,6,231,270,4
1,6,102,99,4
0,6,203,158,4
1,6,14,51,4
1,6,72,113,4
1,6,80,39,4
1,6,7,133,4
0,6,135,151,4
1,6,67,57,4
1,6,211,171,4
1,6,103,105,4
0,6,159,131,4
1,6,25,93,4
1,6,104,168,4
1,6,267,226,4
1,6,134,39,4
1,6,51,23,4
1,6,88,99,4
0,6,57,52,4
0,6,166,238,4
1,6,166,11,4
0,6,97,147,4
0,6,345,257,4
1,6,37,15,4
0,6,390,270,4
1,6,109,19,4
0,6,128,199,4
1,6,183,85,4
0,6,78,132,4
1,6,64,54,4
1,6,174,73,4
1,6,49,0,4
0,6,256,173,4
1,6,239,20,4
1,6,3,0,4
1,6,84,58,4
1,6,77,209,4
1,6,45,28,4
0,6,13,109,4
1,6,230,258,4
0,6,151,172,4
1,6,158,183,4
1,6,99,182,4
1,6,123,79,4
1,6,175,230,4
1,6,170,6,4
1,6,145,21,4
0,6,208,162,4
1,6,91,31,4
1,6,206,177,4
1,6,8,0,4
0,6,35,70,4
1,6,91,73,4
1,6,115,48,4
1,6,38,64,4
0,6,192,145,4
1,6,39,43,4
1,6,112,35,4
0,6,124,48,4
0,6,464,425,4
1,6,215,138,4
0,6,154,290,4
1,6,237,135,4
1,6,203,97,4
1,6,209,89,4
1,6,198,23,4
1,6,5,91,4
1,6,239,100,4
0,6,241,113,4
1,6,247,123,4
1,6,43,20,4
1,6,147,134,4
1,6,8,38,4
0,6,114,190,4
1,6,60,4,4
0,6,32,76,4
1,6,236,243,4
1,6,77,4,4
0,6,158,100,4
0,6,283,209,4
1,6,70,144,4
0,6,88,88,4
1,6,142,137,4
1,6,9,39,4
0,6,326,273,4
0,6,115,5,4
0,6,296,251,4
0,6,282,110,4
1,6,66,24,4
1,6,250,120,4
1,6,196,168,4
0,6,95,109,4
1,6,152,72,4
1,6,42,71,4
1,6,310,81,4
1,6,9,31,4
1,6,19,4,4
0,6,13,27,4
1,6,126,55,4
1,6,114,20,4
1,6,133,0,4
0,6,291,190,4
1,6,229,233,4
1,6,11,14,4
0,6,126,222,4
0,7,110,131,4
0,6,388,171,4
1,6,58,41,4
0,6,415,200,4
0,6,381,48,4
0,6,221,232,4
0,6,679,577,4
1,7,186,84,4
0,6,660,559,4
0,7,283,337,4
1,6,406,303,4
1,6,77,368,4
1,6,142,10,4
1,6,108,15,4
1,6,74,18,4
1,6,117,41,4
0,6,133,177,4
0,6,126,213,4
0,6,466,428,4
1,6,152,215,4
0,6,250,337,4
1,6,74,149,4
1,6,223,75,4
1,6,179,210,4
1,6,168,33,4
1,6,207,185,4
1,6,172,13,4
0,6,263,429,4
1,6,35,27,4
0,6,302,281,4
1,6,277,157,4
0,6,746,426,4
1,6,243,159,4
0,6,888,704,4
1,6,357,221,4
0,6,418,344,4
0,6,428,549,4
1,6,187,0,4
0,6,302,390,4
1,6,554,116,4
1,6,436,327,4
1,6,395,153,4
0,6,451,436,4
1,6,52,152,4
0,6,251,233,4
1,7,54,35,4
0,6,491,647,4
1,6,222,85,4
0,6,478,920,4
1,7,66,9,4
0,6,517,780,4
1,7,83,78,4
0,6,339,596,4
1,7,83,178,4
0,6,247,366,4
0,6,125,324,4
1,6,144,155,4
0,5,920,988,4
1,7,271,440,4
0,6,766,780,4
1,7,80,123,4
1,6,375,364,4
0,6,37,160,4
0,6,75,28,4
1,6,205,6,4
1,6,38,0,4
0,6,590,480,4
1,6,339,232,4
1,7,364,300,4
1,6,130,0,4
1,6,119,39,4
1,7,44,36,4
1,6,217,67,4
1,6,9,180,4
1,6,263,11,4
1,6,15,0,4
1,6,120,0,4
1,6,43,67,4
0,6,341,510,4
1,6,20,146,4
1,6,50,151,4
0,6,96,219,4
0,6,269,98,4
1,6,53,43,4
1,6,343,92,4
1,6,311,82,4
1,6,67,2,4
1,6,260,111,4
1,7,87,0,4
0,6,489,37,4
1,7,125,110,4
0,6,677,460,4
1,6,210,115,4
1,6,589,319,4
1,7,5,163,4
0,6,421,248,4
1,6,118,14,4
1,7,103,0,4
1,6,256,20,4
0,6,313,183,4
0,6,528,534,4
1,6,494,153,4
1,6,14,136,4
1,6,347,9,4
0,6,407,291,4
0,6,851,566,4
1,6,156,81,4
0,6,619,359,4
1,7,225,105,4
1,6,27,4,4
0,6,117,171,4
1,6,186,350,4
0,6,106,126,4
1,6,54,128,4
0,7,63,37,4
1,6,268,58,4
0,6,79,345,4
0,6,598,257,4
1,6,71,0,4
0,6,442,432,4
0,6,220,413,4
1,6,201,153,4
1,7,143,89,4
0,6,725,537,4
1,7,110,128,4
0,6,350,575,4
0,6,406,259,4
1,7,106,41,4
0,6,277,212,4
1,6,122,0,4
1,6,161,18,4
1,6,11,57,4
0,6,268,536,4
1,6,104,132,4
0,6,418,442,4
1,7,96,7,4
0,6,354,320,4
0,6,454,498,4
1,7,269,374,4
0,6,183,281,4
1,6,194,61,4
0,6,71,364,4
0,6,27,149,4
1,6,97,72,4
0,6,179,237,4
1,6,93,122,4
0,6,15,71,4
0,7,80,154,4
1,6,44,115,4
1,6,140,106,4
0,6,124,206,4
1,6,160,171,4
0,6,277,322,4
0,6,243,237,4
1,6,338,301,4
1,6,57,9,4
0,6,432,293,4
1,6,235,338,4
1,7,35,34,4
0,6,157,200,4
0,6,266,212,4
0,6,269,551,4
1,6,156,173,4
1,6,16,8,4
0,7,148,0,4
1,6,372,313,4
1,6,41,97,4
0,6,407,540,4
1,6,204,129,4
0,6,334,177,4
0,6,102,218,4
1,6,35,45,4
1,7,183,69,4
0,6,158,326,4
1,6,251,271,4
1,6,57,25,4
0,6,1,219,4
1,6,4,65,4
0,6,558,435,4
1,6,258,60,4
0,6,595,375,4
0,6,545,271,4
0,6,851,551,4
1,6,325,67,4
0,6,707,443,4
1,6,220,0,4
1,6,435,220,4
0,6,645,713,4
1,7,257,146,4
0,6,447,602,4
1,6,296,377,4
1,7,228,303,4
1,7,282,114,4
0,6,228,403,4
1,6,505,254,4
1,7,193,13,4
0,6,593,557,4
1,7,303,7,4
1,6,283,31,4
1,7,117,177,4
1,6,213,109,4
1,6,8,102,4
1,6,75,144,4
0,6,598,500,4
1,6,85,98,4
0,6,543,431,4
0,6,659,410,4
1,7,295,404,4
1,7,279,144,4
0,6,122,203,4
0,6,1,92,4
0,6,346,510,4
0,6,376,38,4
1,6,227,307,4
1,7,670,356,4
1,6,242,425,4
0,6,532,580,4
0,6,345,718,4
1,6,479,210,4
0,6,4,347,4
0,5,726,892,4
1,7,145,102,4
9,13,751,1023,4
0,5,387,536,4
0,6,376,160,4
0,5,615,592,4
0,6,611,709,4
1,6,591,692,4
1,7,1023,1023,4
0,6,1023,972,4
8,14,633,502,4
0,5,691,828,4
0,6,471,650,4
0,6,631,807,4
0,5,589,806,4
0,6,416,615,4
0,5,692,782,4
1,6,52,175,4
0,6,481,535,4
0,6,229,474,4
0,6,196,272,4
0,6,581,753,4
1,7,178,172,4
1,6,376,482,4
1,6,420,310,4
1,7,8,11,4
0,6,176,190,4
0,6,331,245,4
1,6,202,26,4
1,6,104,224,4
0,6,588,68,4
1,6,259,249,4
1,6,351,128,4
1,6,123,156,4
1,6,370,77,4
1,6,32,43,4
0,6,296,333,4
1,6,95,112,4
1,6,258,273,4
1,6,10,51,4
1,6,63,5,4
0,6,260,202,4
1,6,234,0,4
0,6,294,324,4
1,6,91,36,4
0,6,43,456,4
0,6,743,706,4
1,7,14,155,4
0,7,434,361,4
0,5,817,903,4
1,7,28,117,4
0,6,588,577,4
1,6,248,203,4
0,6,113,161,4
1,7,31,74,4
0,6,29,351,4
0,6,179,212,4
0,6,147,221,4
0,6,795,998,4
1,7,43,406,4
0,6,552,537,4
1,7,81,37,4
0,6,388,600,4
1,6,335,163,4
0,6,195,486,4
0,6,942,945,4
1,7,207,127,4
0,6,713,625,4
1,6,707,626,4
1,7,438,450,4
0,6,844,689,4
0,6,630,717,4
0,6,549,483,4
1,6,370,391,4
1,7,37,0,4
0,6,159,197,4
1,6,6,155,4
1,6,193,385,4
0,6,265,159,4
1,6,76,179,4
1,6,79,68,4
0,6,454,543,4
0,6,642,451,4
1,6,493,344,4
0,6,549,527,4
1,6,322,306,4
0,6,538,806,4
0,6,686,752,4
1,6,160,225,4
0,6,402,485,4
0,6,329,364,4
0,6,196,389,4
0,6,496,549,4
1,6,112,182,4
1,6,415,278,4
1,6,178,116,4
0,6,544,646,4
0,6,453,462,4
0,6,153,636,4
1,6,15,0,4
1,6,129,153,4
1,6,305,237,4
0,6,246,541,4
1,6,129,141,4
1,6,367,166,4
0,6,315,543,4
1,6,55,146,4
1,6,41,142,4
0,6,209,550,4
0,6,330,454,4
1,6,119,171,4
0,6,907,754,4
1,6,537,584,4
1,6,495,312,4
1,6,222,4,4
0,6,352,292,4
1,6,662,158,4
1,6,367,387,4
1,7,135,23,4
0,5,717,769,4
1,7,351,77,4
0,6,490,829,4
1,7,22,275,4
1,6,38,235,4
1,6,353,15,4
1,6,148,380,4
1,6,48,5,4
1,7,27,213,4
1,6,144,51,4
1,7,85,50,4
0,6,429,635,4
1,7,380,100,4
0,6,800,1023,4
0,6,754,519,4
0,5,1023,1023,4
7,12,1023,1023,4
1,6,872,1023,4
6,13,797,713,4
0,5,319,387,4
0,6,301,309,4
0,6,246,249,4
0,7,237,195,4
0,6,282,311,4
0,6,243,638,4
1,6,271,356,4
0,6,517,661,4
1,6,580,326,4
1,6,157,158,4
0,6,140,285,4
0,6,101,78,4
0,6,147,79,4
0,6,347,399,4
1,6,245,59,4
1,6,10,2,4
0,6,331,250,4
1,6,122,171,4
0,6,151,382,4
0,6,265,231,4
1,7,133,75,4
0,6,66,116,4
1,6,85,0,4
0,6,262,330,4
1,6,152,13,4
0,6,420,342,4
0,6,262,249,4
0,6,423,340,4
0,6,196,181,4
1,6,1,145,4
1,7,36,2,4
0,6,171,377,4
1,6,147,211,4
1,7,135,62,4
1,6,80,0,4
1,6,75,71,4
1,6,6,0,4
1,6,45,47,4
0,6,91,214,4
1,6,31,44,4
1,6,84,69,4
1,6,250,61,4
1,6,63,103,4
0,6,46,214,4
1,6,19,52,4
1,6,56,0,4
0,6,198,292,4
1,6,96,55,4
0,6,207,42,4
1,6,12,0,4
1,6,281,130,4
0,6,337,259,4
0,6,220,165,4
1,6,278,439,4
0,6,148,199,4
0,6,175,291,4
1,7,207,0,4
1,6,94,36,4
1,6,161,221,4
1,6,182,35,4
13,7,199,327,4
20,5,82,85,4
3,6,301,268,4
116,8,235,216,4
3,7,41,80,4
31,6,22,25,4
21,6,140,259,4
35,6,14,13,4
59,6,302,503,4
292,6,251,51,4
149,6,187,311,4
155,6,256,264,4
14,6,176,366,4
185,6,170,0,4
69,6,4,170,4
161,6,36,7,4
27,6,79,120,4
130,6,194,267,4
93,6,77,30,4
168,6,500,401,4
118,6,187,33,4
264,6,177,171,4
9,6,139,28,4
134,6,351,184,4
65,7,167,88,4
6,6,41,63,4
136,6,198,116,4
170,6,414,483,4
96,6,104,55,4
178,6,596,589,4
178,7,83,1,4
166,6,187,246,4
47,6,50,3,4
197,6,148,109,4
248,6,134,67,4
4,6,164,76,4
187,7,146,150,4
4,6,140,324,4
236,6,80,89,4
171,6,268,258,4
39,6,437,379,4
328,6,88,84,4
94,6,188,201,4
36,6,75,92,4
56,6,10,54,4
2,6,132,119,4
202,7,159,233,4
62,7,301,153,4
35,6,298,293,4
41,7,28,0,4
22,6,35,58,4
235,6,80,41,4
2,6,14,11,4
322,6,205,350,4
213,6,112,119,4
145,7,123,21,4
102,6,89,79,4
94,6,122,117,4
73,6,127,39,4
49,6,217,156,4
136,6,96,0,4
211,6,41,114,4
21,6,302,115,4
190,6,299,203,4
94,6,95,57,4
5,6,121,72,4
283,7,20,94,4
18,6,111,0,4
185,6,53,29,4
2,6,146,162,4
24,6,85,49,4
99,6,194,60,4
67,6,4,89,4
27,6,306,344,4
287,6,283,198,4
147,6,372,252,4
279,6,99,73,4
65,6,66,196,4
169,6,145,100,4
48,6,52,21,4
272,7,217,61,4
42,6,32,28,4
108,6,35,84,4
109,6,39,71,4
30,6,129,70,4
78,6,88,112,4
142,6,205,177,4
75,6,75,127,4
13,6,103,52,4
76,6,132,154,4
67,7,53,171,4
18,6,109,0,4
51,6,17,37,4
158,6,169,124,4
202,6,261,236,4
119,6,326,105,4
113,6,213,287,4
32,7,392,207,4
85,6,106,60,4
120,6,91,2,4
213,6,57,230,4
272,6,14,114,4
97,6,113,100,4
83,7,80,189,4
173,6,11,31,4
84,6,203,276,4
139,6,53,7,4
12,6,25,50,4
171,6,46,26,4
278,7,3,73,4
5,6,12,67,4
122,6,215,39,4
170,6,236,170,4
190,6,294,205,4
84,6,188,161,4
76,6,114,183,4
199,6,309,178,4
169,6,145,51,4
408,6,219,14,4
278,6,172,192,4
30,6,215,68,4
180,6,16,180,4
14,6,98,71,4
64,6,79,2,4
209,6,56,39,4
191,6,91,75,4
45,6,45,69,4
15,6,34,38,4
265,6,83,101,4
388,6,149,1,4
97,6,110,90,4
307,6,8,66,4
39,6,203,65,4
91,6,6,1,4
200,6,200,121,4
159,6,51,34,4
131,6,28,0,4
177,6,212,141,4
78,6,232,71,4
290,7,134,122,4
62,6,267,198,4
61,6,151,29,4
118,6,183,42,4
295,7,8,38,4
87,6,19,82,4
138,6,118,35,4
111,6,28,101,4
31,6,174,162,4
48,6,47,16,4
12,6,341,370,4
2,6,340,161,4
270,6,116,178,4
3,6,112,46,4
133,7,52,20,4
121,6,182,156,4
42,6,93,49,4
28,6,8,30,4
13,6,98,48,4
212,6,123,103,4
213,6,120,85,4
93,6,88,0,4
188,6,61,45,4
65,6,13,22,4
95,6,54,59,4
133,6,14,61,4
117,6,103,74,4
299,6,90,19,4
12,6,21,48,4
126,6,270,245,4
49,6,205,55,4
4,6,177,208,4
192,6,246,14,4
85,6,264,280,4
234,8,51,44,4
93,6,405,445,4
64,6,33,98,4
179,6,97,289,4
2,7,76,81,4
51,5,126,189,4
208,8,126,125,4
61,7,315,206,4
156,6,145,58,4
85,6,516,478,4
46,6,421,12,4
327,6,50,86,4
66,6,92,4,4
237,6,97,50,4
43,6,94,146,4
348,6,361,290,4
213,7,180,145,4
112,6,11,8,4
228,6,267,138,4
159,6,166,244,4
66,6,74,172,4
36,6,109,38,4
8,6,35,291,4
93,7,220,330,4
31,6,36,32,4
103,6,254,105,4
68,6,199,176,4
23,6,431,472,4
312,6,118,0,4
48,6,261,241,4
31,6,264,134,4
59,6,482,247,4
38,6,277,221,4
65,6,562,454,4
63,7,75,57,4
218,6,463,461,4
489,6,173,296,4
21,6,6,159,4
269,6,228,364,4
121,6,140,184,4
395,6,413,399,4
28,6,50,116,4
141,6,454,427,4
93,6,244,135,4
184,6,513,615,4
103,6,179,233,4
16,6,36,211,4
270,6,87,311,4
196,6,12,57,4
63,6,140,96,4
270,6,204,182,4
163,6,220,71,4
281,6,9,159,4
362,6,222,187,4
150,6,363,241,4
464,6,286,45,4
383,7,313,326,4
253,7,126,131,4
48,6,124,0,4
118,6,25,230,4
96,7,26,53,4
16,6,159,344,4
70,6,640,822,4
95,7,376,181,4
310,5,1023,944,4
111,5,508,487,4
377,6,902,652,4
153,7,190,47,4
150,6,803,716,4
488,6,374,283,4
497,6,251,357,4
160,6,102,0,4
71,7,75,61,4
276,6,590,628,4
199,6,280,293,4
58,7,116,327,4
4,6,219,661,4
231,6,318,544,4
487,6,256,437,4
118,6,106,262,4
325,6,527,518,4
296,7,100,196,4
126,6,388,316,4
309,6,114,114,4
171,6,29,95,4
412,6,311,412,4
109,6,526,583,4
234,6,438,289,4
577,6,69,408,4
57,5,1023,884,4
341,7,548,222,4
48,7,63,120,4
190,6,357,334,4
84,6,236,372,4
2,6,537,481,4
443,6,4,46,4
176,6,180,182,4
62,6,280,236,4
59,6,206,234,4
234,6,82,51,4
157,6,425,220,4
69,6,7,158,4
48,6,497,147,4
101,6,311,410,4
128,6,310,124,4
160,6,702,713,4
209,7,144,99,4
116,6,776,703,4
450,6,475,365,4
44,7,239,216,4
478,7,187,194,4
3,6,225,333,4
86,6,457,345,4
191,7,92,65,4
118,6,382,327,4
207,6,391,225,4
169,6,359,372,4
148,6,595,632,4
42,7,55,55,4
45,6,594,590,4
207,7,162,49,4
113,6,532,711,4
38,6,547,504,4
261,6,109,340,4
341,5,810,656,4
10,7,329,266,4
100,7,462,283,4
163,7,128,203,4
192,6,87,29,4
140,6,68,18,4
41,6,18,136,4
140,6,155,312,4
2,6,190,7,4
379,6,10,83,4
70,6,91,53,4
301,6,164,0,4
2,6,92,231,4
410,6,236,263,4
390,6,205,390,4
8,6,490,492,4
687,6,166,23,4
2,6,570,471,4
347,6,253,373,4
22,6,216,169,4
374,6,268,27,4
21,6,184,134,4
150,6,301,410,4
55,6,133,74,4
64,6,181,82,4
158,6,163,9,4
177,6,294,390,4
43,6,276,106,4
37,6,7,123,4
68,6,492,347,4
373,6,382,243,4
222,6,269,180,4
177,6,515,459,4
18,7,304,313,4
83,6,235,264,4
171,6,10,27,4
72,6,505,481,4
92,7,97,95,4
146,6,116,484,4
23,6,231,309,4
185,6,58,487,4
144,6,310,432,4
202,6,35,141,4
325,6,527,628,4
316,6,212,276,4
88,6,530,439,4
446,7,316,258,4
305,6,47,26,4
145,6,21,39,4
295,6,209,220,4
157,6,189,161,4
7,6,91,144,4
130,6,122,25,4
120,6,147,132,4
77,6,82,123,4
167,6,225,342,4
268,7,32,1,4
58,6,110,63,4
117,6,124,93,4
172,6,42,0,4
12,6,12,256,4
171,6,275,342,4
200,6,210,216,4
459,6,29,31,4
222,6,201,22,4
124,6,269,205,4
202,6,153,54,4
12,6,59,72,4
65,6,103,113,4
233,6,36,39,4
205,6,96,109,4
53,6,108,112,4
168,6,266,299,4
7,6,424,485,4
180,7,55,54,4
110,6,105,34,4
71,6,126,71,4
3,6,450,544,4
120,6,143,32,4
379,7,4,37,4
46,6,31,210,4
119,6,49,100,4
169,6,310,455,4
38,6,177,226,4
157,6,267,250,4
447,6,89,127,4
36,7,24,28,4
56,6,316,70,4
183,6,256,229,4
82,6,122,193,4
128,6,352,344,4
208,6,386,322,4
210,6,246,17,4
148,6,176,173,4
171,6,283,153,4
67,6,10,49,4
71,6,23,162,4
19,6,299,178,4
258,6,164,165,4
410,6,95,119,4
6,6,202,323,4
232,6,58,61,4
147,6,407,349,4
108,7,248,93,4
283,6,145,71,4
45,6,176,259,4
135,6,69,3,4
155,6,209,156,4
302,6,24,10,4
221,6,16,179,4
145,6,37,24,4
169,6,46,0,4
40,6,23,8,4
285,6,108,104,4
93,6,77,106,4
7,6,105,27,4
27,6,167,215,4
44,6,127,306,4
138,6,159,4,4
105,6,45,273,4
160,6,34,5,4
105,6,200,66,4
239,6,221,46,4
20,7,21,15,4
46,6,59,72,4
187,6,13,4,4
32,6,65,64,4
95,6,25,0,4
207,6,409,255,4
142,6,60,199,4
74,6,140,60,4
54,6,67,150,4
85,6,68,43,4
75,6,254,324,4
75,6,70,17,4
2,6,142,199,4
3,6,23,16,4
199,6,179,177,4
40,6,129,190,4
109,6,117,167,4
9,6,39,57,4
116,6,96,114,4
107,6,288,237,4
101,6,27,79,4
184,6,15,0,4
38,6,90,140,4
240,6,179,163,4
41,6,216,113,4
75,6,209,331,4
78,7,266,194,4
14,6,401,467,4
243,6,113,124,4
170,6,301,116,4
100,6,102,49,4
171,6,100,0,4
50,6,3,11,4
31,6,81,116,4
141,6,13,37,4
10,6,28,61,4
232,6,226,80,4
44,6,351,178,4
180,6,214,199,4
112,6,107,40,4
14,6,89,77,4
138,6,3,7,4
124,7,183,11,4
118,7,4,66,4
100,6,15,37,4
45,6,59,208,4
107,6,5,0,4
43,6,215,235,4
57,6,49,35,4
375,6,81,163,4
163,6,72,42,4
87,6,131,5,4
48,6,213,213,4
192,6,258,140,4
151,6,358,247,4
80,6,82,164,4
78,6,225,120,4
55,6,105,125,4
169,6,121,82,4
29,6,138,89,4
164,6,112,224,4
103,6,171,190,4
11,6,186,256,4
191,6,49,54,4
77,6,54,46,4
206,6,69,48,4
263,7,126,64,4
15,6,199,194,4
149,6,73,72,4
475,6,191,42,4
159,6,155,55,4
68,6,236,10,4
156,6,6,81,4
168,6,103,97,4
48,6,10,84,4
135,6,236,138,4
217,6,9,79,4
44,6,248,106,5
177,6,97,3,5
41,6,190,188,5
48,6,155,152,5
265,6,13,20,5
24,6,84,159,5
162,6,15,0,5
21,6,79,59,5
150,6,210,81,5
246,6,35,31,5
204,6,20,0,5
287,6,254,49,5
90,6,8,26,5
96,6,106,0,5
28,6,40,1,5
12,6,82,25,5
124,6,91,60,5
136,6,85,94,5
142,6,27,91,5
220,6,7,52,5
60,6,7,43,5
19,6,16,4,5
110,6,153,25,5
137,6,33,14,5
288,6,44,1,5
108,6,68,44,5
335,6,43,10,5
1,6,43,155,5
10,6,6,0,5
109,6,224,153,5
10,6,92,29,5
142,6,101,35,5
99,6,159,207,5
29,6,149,117,5
14,6,231,183,5
67,6,101,175,5
53,6,12,4,5
13,6,76,82,5
26,6,150,123,5
85,6,3,10,5
197,6,107,154,5
84,6,127,60,5
63,6,95,6,5
12,6,128,125,5
129,6,53,86,5
46,6,78,36,5
247,6,33,57,5
51,6,144,90,5
65,6,44,30,5
125,6,323,276,5
61,6,198,122,5
141,6,139,117,5
195,6,274,355,5
231,6,194,148,5
111,6,30,83,5
47,6,309,154,5
165,6,55,59,5
78,6,184,74,5
179,6,60,0,5
267,6,210,134,5
61,6,46,98,5
105,6,66,0,5
177,6,83,0,5
85,6,107,5,5
71,6,41,53,5
47,6,381,437,5
131,7,5,0,5
29,6,142,157,5
66,6,221,110,5
209,6,49,1,5
19,6,141,132,5
19,6,3,11,5
248,6,67,91,5
99,6,189,232,5
266,6,44,1,5
119,6,15,38,5
376,6,96,42,5
90,6,3,0,5
13,6,34,162,5
115,6,178,108,5
58,6,37,24,5
38,6,21,12,5
124,6,133,86,5
82,6,82,0,5
75,6,93,105,5
37,6,13,41,5
139,6,88,69,5
169,6,60,22,5
52,6,196,146,5
157,6,172,96,5
47,6,63,96,5
188,6,272,257,5
83,7,35,0,5
49,6,74,94,5
119,6,83,62,5
16,6,147,0,5
137,6,36,0,5
142,6,78,84,5
70,6,9,54,5
175,6,138,164,5
8,6,145,145,5
179,6,58,34,5
5,6,165,113,5
41,6,90,94,5
240,6,63,31,5
19,6,151,132,5
270,6,59,38,5
149,6,80,134,5
124,6,25,88,5
43,6,35,4,5
11,6,3,18,5
189,6,2,44,5
155,6,142,76,5
33,6,33,18,5
207,6,54,69,5
104,6,142,43,5
142,6,83,77,5
161,6,30,0,5
91,6,97,20,5
278,6,95,0,5
74,6,137,24,5
273,6,149,311,5
6,6,115,15,5
74,6,3,68,5
286,6,74,16,5
46,6,77,47,5
424,6,18,28,5
80,6,23,11,5
140,6,92,4,5
76,6,93,54,5
10,7,2,9,5
200,6,5,3,5
56,6,129,37,5
55,6,18,1,5
267,6,121,66,5
198,6,62,2,5
209,7,6,40,5
5,6,51,53,5
51,6,9,37,5
34,6,34,30,5
15,6,52,71,5
4,6,82,26,5
40,6,65,0,5
88,6,98,63,5
207,6,45,25,5
127,6,69,35,5
41,6,115,111,5
56,6,72,43,5
28,6,72,38,5
176,6,47,46,5
83,6,21,0,5
329,6,79,67,5
113,6,73,12,5
208,6,49,43,5
147,6,80,51,5
67,6,101,30,5
390,6,1,0,5
99,6,11,56,5
10,6,104,0,5
148,6,20,73,5
22,6,108,0,5
71,6,67,97,5
37,6,36,0,5
74,6,22,29,5
197,6,10,0,5
25,6,96,41,5
131,6,116,80,5
148,6,51,17,5
124,6,19,2,5
210,6,92,85,5
5,6,66,130,5
252,6,163,185,5
19,6,3,100,5
319,6,175,104,5
169,6,171,69,5
102,6,130,27,5
163,6,64,96,5
266,6,106,73,5
155,6,36,45,5
230,6,160,123,5
4,6,12,34,5
239,6,92,43,5
218,6,111,83,5
86,6,72,48,5
194,6,36,57,5
31,6,68,26,5
253,6,37,34,5
208,6,26,0,5
136,6,77,54,5
206,6,151,129,5
5,6,14,81,5
225,6,43,175,5
244,6,221,259,5
3,6,391,308,5
277,6,30,0,5
178,6,194,213,5
230,6,160,144,5
6,6,13,0,5
144,6,123,2,5
155,6,189,175,5
27,6,50,80,5
240,6,134,202,5
92,6,109,103,5
146,6,81,45,5
33,6,109,66,5
10,6,192,111,5
141,6,17,43,5
