Ch1,Ch2,Ch3,Ch4,label
0,5,0,2,1
56,8,14,25,1
18,39,8,18,1
23,49,0,41,1
39,117,44,14,1
31,100,0,39,1
147,114,9,3,1
1,7,18,18,1
46,119,7,2,1
255,75,6,55,1
66,28,7,8,1
123,62,19,22,1
139,73,0,26,1
84,97,32,41,1
22,46,43,20,1
24,37,0,4,1
23,28,20,70,1
0,9,87,10,1
24,55,71,41,1
168,180,36,2,1
171,26,0,13,1
5,19,146,65,1
63,82,87,44,1
31,26,132,69,1
50,78,157,176,1
16,30,0,14,1
28,17,10,80,1
17,20,80,24,1
107,31,0,30,1
11,22,0,51,1
54,163,36,22,1
51,23,23,48,1
63,10,71,50,1
116,82,0,59,1
35,112,170,17,1
18,65,97,67,1
163,85,158,24,1
99,6,94,102,1
17,121,25,23,1
155,155,35,94,1
61,60,45,29,1
62,24,134,2,1
41,110,26,2,1
1,83,75,23,1
73,22,0,5,1
6,42,333,163,1
246,15,34,62,1
41,46,450,357,1
265,233,195,176,1
42,21,17,24,1
7,15,33,53,1
46,92,123,12,1
98,50,214,116,1
35,10,54,85,1
136,145,29,3,1
133,26,274,210,1
8,80,215,634,1
4,33,204,280,1
74,30,394,497,1
50,48,349,317,1
161,107,188,50,1
139,160,766,386,1
183,239,13,165,1
124,104,624,295,1
19,98,102,95,1
493,250,1,24,1
252,15,231,107,1
285,241,23,54,1
307,118,24,21,1
165,177,323,268,1
67,111,85,75,1
68,164,277,206,1
73,97,245,53,1
115,14,426,351,1
105,95,584,474,1
147,27,148,238,1
45,70,261,125,1
178,126,15,88,1
163,181,92,373,1
83,16,118,22,1
230,27,57,667,1
26,26,312,494,1
79,74,241,279,1
47,135,98,37,1
259,117,53,73,1
82,199,27,122,1
69,67,903,666,1
124,13,387,50,1
11,133,129,297,1
206,101,149,243,1
78,111,92,142,1
180,71,300,296,1
40,34,170,279,1
13,55,42,75,1
40,87,97,55,1
148,28,40,287,1
4,26,42,120,1
111,59,590,417,1
177,95,204,100,1
307,95,512,353,1
92,53,175,110,1
54,86,57,269,1
223,182,108,3,1
55,85,590,448,1
27,232,579,231,1
253,75,240,248,1
28,8,132,245,1
120,117,85,270,1
134,99,529,447,1
391,326,100,111,1
230,193,526,509,1
227,17,83,231,1
6,11,193,88,1
72,207,18,46,1
128,15,183,132,1
63,30,325,393,1
10,6,22,6,1
146,22,0,166,1
9,143,337,2,1
69,87,50,48,1
61,47,156,190,1
86,233,344,536,1
57,262,538,751,1
377,73,256,12,1
34,218,26,133,1
15,45,362,10,1
119,125,48,117,1
64,60,132,344,1
278,103,157,22,1
53,178,756,14,1
104,199,897,604,1
80,70,85,43,1
52,113,349,515,1
45,246,587,392,1
419,247,132,164,1
49,85,1023,735,1
56,40,141,73,1
225,158,364,216,1
15,160,713,333,1
461,241,212,200,1
482,444,321,179,1
94,120,396,526,1
40,25,91,12,1
367,266,478,29,1
30,13,874,471,1
91,95,189,26,1
307,143,338,301,1
0,62,474,542,1
43,16,269,3,1
15,12,14,223,1
147,302,930,627,1
218,25,162,41,1
222,193,1023,179,1
118,7,698,157,1
59,56,517,610,1
79,96,272,126,1
48,110,698,560,1
12,79,506,298,1
56,189,619,355,1
51,325,934,744,1
224,73,212,132,1
12,212,317,230,1
39,13,152,417,1
131,68,235,831,1
35,24,233,21,1
189,125,505,478,1
400,508,444,99,1
20,62,1023,523,1
29,83,43,299,1
267,130,970,652,1
291,163,118,33,1
36,45,331,354,1
37,140,58,139,1
397,95,209,254,1
22,164,615,247,1
84,110,345,146,1
221,231,418,166,1
77,154,17,1,1
250,344,649,657,1
273,141,791,594,1
10,122,258,246,1
267,116,441,128,1
123,222,659,33,1
259,8,110,606,1
147,34,80,235,1
93,65,199,66,1
7,165,532,96,1
95,48,26,85,1
140,10,68,579,1
522,117,532,314,1
378,91,424,84,1
116,171,4,99,1
285,41,410,362,1
101,161,653,300,1
243,133,79,24,1
28,109,124,309,1
9,25,71,29,1
227,10,369,453,1
177,83,540,111,1
95,159,230,154,1
141,115,305,281,1
94,40,72,222,1
32,78,549,167,1
83,28,811,398,1
15,176,926,70,1
25,63,468,150,1
287,120,228,122,1
0,7,226,8,1
159,12,360,674,1
398,446,0,72,1
152,163,990,432,1
73,69,54,239,1
254,335,250,163,1
242,25,108,342,1
679,338,694,216,1
249,215,494,172,1
87,101,64,3,1
173,50,85,165,1
147,79,763,87,1
190,292,21,220,1
189,129,191,147,1
108,85,385,95,1
93,151,241,113,1
167,297,27,62,1
9,79,524,173,1
28,135,27,215,1
101,49,136,8,1
34,62,702,382,1
83,137,336,163,1
39,98,125,149,1
6,30,3,59,1
168,107,8,114,1
192,43,110,149,1
227,48,261,239,1
112,75,565,111,1
305,203,310,77,1
85,94,194,212,1
267,191,382,59,1
330,189,463,135,1
2,102,821,220,1
220,384,567,219,1
5,70,731,327,1
158,170,199,182,1
512,418,73,90,1
339,99,203,113,1
113,32,247,64,1
28,33,217,109,1
2,48,3,4,1
224,196,264,19,1
57,98,647,202,1
1,296,900,248,1
95,306,598,173,1
61,34,39,25,1
266,217,172,163,1
32,84,92,49,1
234,89,267,195,1
31,137,179,202,1
362,287,255,67,1
382,299,349,137,1
143,117,198,34,1
181,189,137,101,1
361,272,471,220,1
70,51,109,32,1
38,161,316,25,1
298,352,203,2,1
226,191,105,38,1
18,279,142,86,1
377,430,0,92,1
231,210,294,34,1
93,22,134,11,1
153,78,130,2,1
48,78,297,213,1
23,46,38,7,1
116,253,267,67,1
59,153,0,111,1
188,7,72,22,1
568,416,179,154,1
87,200,147,51,1
87,168,69,27,1
1,254,61,38,1
131,10,12,5,1
223,159,353,141,1
256,96,121,98,1
209,8,22,174,1
49,103,194,59,1
38,193,165,94,1
121,177,102,83,1
219,95,368,141,1
92,116,218,146,1
294,155,43,94,1
20,20,215,55,1
111,14,231,250,1
478,140,53,26,1
187,66,323,139,1
97,38,276,18,1
353,223,146,141,1
8,30,64,318,1
35,33,36,6,1
5,43,261,36,1
225,236,179,166,1
203,89,259,48,1
384,508,574,340,1
369,60,303,88,1
253,124,114,109,1
41,42,15,43,1
13,184,137,179,1
231,121,89,57,1
375,145,79,19,1
173,7,73,165,1
105,68,89,98,1
37,20,88,174,1
6,37,0,125,1
87,119,98,142,1
200,95,17,103,1
330,308,114,193,1
83,24,152,147,1
4,12,468,182,1
49,188,0,10,1
80,68,0,140,1
14,219,0,61,1
530,603,19,89,1
257,310,251,63,1
204,279,459,276,1
74,55,123,94,1
218,21,0,63,1
30,15,269,190,1
111,67,387,68,1
228,51,72,269,1
106,7,13,167,1
276,360,125,35,1
15,74,256,107,1
443,90,334,6,1
292,254,399,218,1
359,83,15,37,1
2,99,24,10,1
359,10,107,18,1
151,66,270,9,1
39,235,103,182,1
233,276,8,60,1
15,27,143,64,1
11,331,207,35,1
388,209,0,111,1
171,19,0,121,1
173,77,167,338,1
382,48,439,598,1
117,30,34,219,1
15,12,165,117,1
183,357,28,16,1
84,69,344,70,1
158,200,17,362,1
133,167,159,139,1
103,31,405,210,1
81,378,17,221,1
44,23,93,56,1
105,226,211,183,1
51,82,255,59,1
183,77,420,119,1
73,21,182,2,1
85,24,136,235,1
4,77,76,325,1
17,86,672,385,1
205,25,155,82,1
30,31,13,275,1
246,31,178,129,1
15,138,138,45,1
186,479,190,133,1
219,58,117,26,1
59,33,178,22,1
307,293,70,9,1
352,158,164,258,1
196,206,472,111,1
533,378,102,10,1
66,25,449,216,1
11,39,78,103,1
108,12,2,287,1
266,73,155,393,1
55,24,38,45,1
129,53,105,106,1
22,223,29,10,1
13,54,219,158,1
61,103,0,55,1
93,176,11,7,1
417,212,38,54,1
326,125,0,41,1
77,14,171,159,1
19,10,316,12,1
49,29,0,95,1
209,122,15,79,1
104,15,357,233,1
43,34,187,126,1
120,81,747,362,1
63,91,99,55,1
262,148,62,149,1
27,12,87,62,1
42,86,115,75,1
289,130,310,25,1
180,31,377,19,1
156,118,28,21,1
21,26,18,46,1
195,192,28,112,1
318,245,175,174,1
52,13,54,183,1
255,175,386,275,1
80,192,101,137,1
53,30,275,109,1
111,267,373,276,1
430,177,41,16,1
26,7,172,117,1
57,246,238,405,1
317,328,145,43,1
66,191,434,237,1
210,26,340,154,1
53,31,160,67,1
736,252,26,69,1
38,261,101,154,1
172,156,501,106,1
19,186,609,348,1
387,530,132,11,1
174,28,177,179,1
175,228,8,116,1
92,211,34,51,1
46,28,75,123,1
173,110,43,3,1
67,119,231,350,1
465,109,42,197,1
132,117,55,58,1
71,176,33,98,1
89,142,37,107,1
62,40,243,135,1
107,130,152,94,1
10,116,57,164,1
99,77,15,38,1
166,297,437,212,1
46,145,107,113,1
41,90,41,161,1
92,12,350,44,1
27,106,0,17,1
266,189,78,80,1
411,243,95,78,1
189,93,187,83,1
17,6,119,131,1
15,279,176,41,1
29,47,56,41,1
52,23,2,66,1
651,205,103,39,1
24,14,64,99,1
23,49,161,239,1
8,40,183,321,1
451,382,183,128,1
187,21,86,55,1
235,122,189,151,1
119,201,347,207,1
342,146,111,33,1
219,132,0,144,1
31,113,209,83,1
153,8,4,36,1
150,146,149,13,1
343,66,345,131,1
177,266,54,21,1
128,50,475,99,1
441,224,30,16,1
47,37,86,42,1
140,77,147,141,1
13,60,149,107,1
9,38,41,143,1
7,115,303,250,1
45,15,106,136,1
121,102,22,221,1
63,48,226,83,1
156,42,249,68,1
49,41,142,93,1
55,91,90,63,1
44,6,41,88,1
352,137,0,45,1
323,43,38,27,1
5,232,42,61,1
123,142,15,28,1
34,39,228,144,1
38,21,107,16,1
132,9,69,73,1
143,133,65,123,1
56,6,143,9,1
35,224,53,72,1
10,80,56,165,1
278,199,71,86,1
138,15,147,247,1
204,47,74,36,1
42,74,15,58,1
94,56,14,2,1
14,33,28,17,1
31,87,69,16,1
2,16,102,39,1
116,21,0,33,1
2,80,55,38,1
559,281,161,62,1
244,7,161,125,1
11,71,123,13,1
85,69,180,147,1
38,34,43,136,1
100,13,116,279,1
34,28,215,189,1
36,50,280,313,1
126,144,255,156,1
230,12,108,83,1
263,247,87,7,1
155,288,70,43,1
177,238,50,23,1
236,44,69,8,1
215,394,11,1,1
285,56,40,45,1
256,78,7,11,1
13,11,3,7,1
118,169,45,5,1
438,135,137,49,1
105,68,65,1,1
223,133,189,5,1
89,140,49,1,1
104,252,224,9,1
255,49,53,147,1
16,33,119,235,1
43,58,121,95,1
197,46,247,148,1
348,292,92,209,1
99,33,225,97,1
30,76,229,120,1
159,174,42,39,1
158,14,60,78,1
156,18,74,75,1
133,61,49,16,1
53,89,1,23,1
331,371,188,46,1
186,47,83,5,1
3,53,247,205,1
65,149,194,86,1
75,174,239,188,1
184,121,300,90,1
1,37,5,62,1
38,50,247,137,1
130,134,176,60,1
67,217,39,43,1
330,438,187,78,1
50,124,4,78,1
216,273,0,3,1
13,138,53,32,1
149,80,86,5,1
205,20,54,46,1
119,136,196,55,1
258,150,22,5,1
74,46,172,114,1
67,159,16,19,1
132,8,84,7,1
27,61,132,66,1
11,119,228,122,1
164,199,41,33,1
109,66,149,50,1
316,49,187,34,1
87,17,105,20,1
134,44,171,45,1
97,203,46,35,1
123,139,18,14,1
53,141,64,24,1
375,98,373,134,1
361,265,0,95,1
136,204,238,184,1
272,27,115,152,1
153,59,92,68,1
5,55,169,118,1
30,62,163,96,1
251,319,348,67,1
310,259,1,55,1
212,13,26,197,1
249,5,0,73,1
358,270,77,30,1
57,143,298,179,1
154,241,5,36,1
38,75,232,503,1
157,11,93,122,1
12,134,205,387,1
441,163,409,66,1
318,308,8,32,1
135,62,193,63,1
36,217,18,88,1
84,110,235,17,1
136,34,144,137,1
159,419,358,16,1
426,330,651,162,1
213,25,271,87,1
245,255,10,32,1
253,77,71,159,1
68,47,500,395,1
299,118,142,12,1
306,76,111,101,1
82,181,64,139,1
334,394,391,287,1
92,46,189,218,1
4,292,225,185,1
205,349,170,96,1
246,66,135,112,1
70,51,359,127,1
51,137,223,231,1
75,228,369,80,1
208,54,236,138,1
204,88,97,432,1
144,66,279,258,1
118,18,595,613,1
365,275,275,231,1
251,282,203,73,1
27,213,3,132,1
384,433,295,58,1
344,241,34,105,1
166,27,396,54,1
32,54,341,99,1
53,162,518,318,1
61,49,140,46,1
120,141,238,17,1
81,82,694,420,1
213,307,699,219,1
118,9,276,154,1
118,57,27,29,1
114,113,19,353,1
15,181,245,79,1
12,85,397,251,1
174,100,0,67,1
81,43,742,333,1
102,255,275,182,1
88,113,216,228,1
38,12,290,84,1
189,38,95,210,1
7,68,23,164,1
168,330,21,6,1
116,157,388,49,1
140,322,63,11,1
56,134,494,173,1
83,15,903,252,1
420,299,273,211,1
213,51,332,120,1
25,200,47,230,1
70,149,322,327,1
86,27,266,190,1
11,83,1023,936,1
21,10,1001,483,1
7,56,456,1018,1
17,171,329,75,1
6,191,748,505,1
53,11,479,252,1
318,205,667,247,1
206,39,51,43,1
109,291,825,141,1
437,451,333,166,1
106,44,53,378,1
219,135,490,13,1
15,18,276,110,1
136,32,106,5,1
272,141,542,414,1
21,96,279,277,1
231,25,818,456,1
193,53,65,7,1
8,53,42,188,1
176,63,164,342,1
133,129,640,311,1
83,38,569,8,1
18,90,421,468,1
143,268,377,224,1
160,120,277,15,1
17,114,364,94,1
22,53,194,7,1
27,93,142,206,1
174,59,28,68,1
154,79,1023,596,1
49,23,902,325,1
214,127,167,38,1
76,226,283,241,1
38,8,832,313,1
55,225,205,127,1
3,160,768,461,1
66,16,0,23,1
168,188,245,260,1
17,44,241,333,1
70,169,236,177,1
127,224,26,537,1
127,52,287,544,1
80,177,275,78,1
373,96,659,141,1
21,39,244,202,1
45,157,685,157,1
308,103,274,60,1
387,254,368,78,1
43,132,63,11,1
134,266,679,366,1
202,28,139,175,1
335,93,1023,220,1
45,284,5,287,1
93,184,943,402,1
285,28,203,185,1
32,49,284,79,1
213,125,29,191,1
162,104,557,187,1
147,208,320,120,1
112,19,24,205,1
20,266,228,234,1
176,135,655,391,1
158,329,79,165,1
252,168,958,272,1
94,73,13,288,1
149,10,960,156,1
385,243,1023,81,1
139,70,734,722,1
9,15,641,236,1
485,112,331,112,1
214,84,379,11,1
223,193,344,202,1
158,58,254,231,1
199,81,731,394,1
39,167,273,208,1
479,49,1023,731,1
269,156,14,11,1
11,274,890,231,1
429,495,588,20,1
30,90,624,256,1
259,175,251,164,1
113,141,228,23,1
146,209,194,223,1
81,51,82,20,1
70,374,65,49,1
300,58,254,317,1
199,117,172,302,1
136,96,665,440,1
140,52,96,79,1
220,440,493,245,1
293,36,325,201,1
34,89,785,182,1
85,162,123,64,1
210,103,465,33,1
8,165,599,454,1
271,291,323,516,1
391,74,241,83,1
199,94,182,84,1
90,324,61,142,1
131,191,806,251,1
29,188,288,106,1
175,59,100,61,1
351,249,332,254,1
204,335,379,88,1
350,354,4,34,1
225,71,720,337,1
150,120,111,120,1
31,155,207,22,1
277,400,111,30,1
364,167,446,187,1
60,102,522,143,1
125,79,156,59,1
179,46,256,20,1
309,21,335,145,1
163,52,408,49,1
64,85,2,195,1
171,19,496,193,1
176,38,425,174,1
135,87,273,147,1
27,165,239,137,1
139,65,31,162,1
259,95,225,61,1
178,69,145,265,1
38,19,304,181,1
427,88,158,78,1
235,124,175,11,1
203,169,82,35,1
357,239,141,56,1
20,52,59,34,1
98,202,233,66,1
2,49,74,180,1
131,166,53,186,1
387,212,177,210,1
104,352,700,300,1
294,198,27,13,1
150,68,119,88,1
114,94,35,67,1
193,97,575,207,1
49,10,35,135,1
149,254,70,9,1
124,74,16,12,1
73,128,483,145,1
25,29,144,115,1
379,326,152,71,1
178,32,113,93,1
81,12,41,77,1
219,188,188,138,1
2,72,187,178,1
121,222,385,317,1
40,71,81,50,1
92,15,428,127,1
161,50,21,75,1
60,167,943,312,1
98,358,54,52,1
153,142,21,9,1
185,316,0,33,1
238,186,0,98,1
39,156,131,64,1
309,308,38,149,1
63,82,215,244,1
56,117,61,67,1
151,187,195,279,1
108,139,281,92,1
54,145,575,63,1
86,245,190,135,1
20,86,47,228,1
163,243,393,247,1
67,64,341,31,1
175,30,0,61,1
245,127,174,261,1
99,120,8,56,1
31,83,0,199,1
126,25,15,19,1
115,65,145,185,1
48,229,78,6,1
60,19,417,110,1
5,64,698,228,1
0,20,59,161,1
367,454,288,101,1
271,362,22,123,1
238,218,402,123,1
190,122,17,57,1
313,176,339,158,1
12,136,409,112,1
63,73,251,98,1
223,98,55,101,1
316,152,350,149,1
44,43,160,15,1
152,334,209,111,1
86,27,272,19,1
160,124,228,119,1
216,152,51,7,1
10,40,11,62,1
132,166,131,104,1
24,36,97,17,1
113,106,350,35,1
125,214,113,57,1
14,28,186,8,1
77,182,104,23,1
104,61,334,42,1
193,428,79,108,1
217,120,39,56,1
119,22,61,118,1
253,24,164,202,1
2,10,316,465,1
82,26,358,97,1
54,54,438,7,1
225,160,68,80,1
151,57,278,208,1
116,96,23,62,1
12,272,147,80,1
243,259,873,469,1
162,191,15,84,1
14,100,265,182,1
105,151,348,247,1
184,86,17,9,1
66,72,193,69,1
262,181,252,63,1
19,38,224,73,1
47,185,79,79,1
116,82,134,89,1
216,55,443,88,1
21,47,392,25,1
111,22,168,62,1
103,158,286,5,1
13,50,636,352,1
12,87,207,101,1
113,21,40,9,1
171,22,547,171,1
30,77,776,187,1
3,136,322,381,1
84,65,33,40,1
53,261,130,205,1
118,386,359,262,1
305,269,139,76,1
239,57,153,50,1
155,119,284,136,1
6,10,21,124,1
100,59,580,317,1
300,134,180,30,1
307,84,244,297,1
290,266,524,317,1
6,149,366,86,1
26,161,218,38,1
170,132,236,136,1
77,13,196,212,1
78,73,119,204,1
330,173,42,69,1
5,128,73,125,1
397,289,76,21,1
348,126,51,13,1
257,89,37,125,1
393,164,32,31,1
27,44,34,56,1
104,6,312,22,1
166,332,169,34,1
42,31,213,83,1
262,121,0,42,1
146,181,76,145,1
168,135,85,9,1
101,234,147,10,1
176,8,132,286,1
27,87,0,123,1
33,100,339,212,1
75,113,133,44,1
50,10,209,213,1
205,113,169,49,1
25,106,71,5,1
17,161,180,44,1
162,99,323,16,1
128,62,89,47,1
0,58,259,107,1
196,247,453,149,1
189,137,54,30,1
8,94,73,106,1
3,164,147,42,1
335,104,127,18,1
106,34,64,254,1
142,36,23,145,1
74,84,14,22,1
429,274,131,40,1
255,38,337,333,1
186,9,268,93,1
50,88,41,63,1
288,209,399,141,1
222,39,10,10,1
83,14,130,14,1
59,35,202,277,1
232,169,113,92,1
144,47,664,193,1
201,18,505,17,1
13,26,212,191,1
158,274,0,22,1
155,145,43,113,1
9,50,367,350,1
116,174,84,79,1
154,250,562,159,1
10,86,123,112,1
120,38,333,116,1
36,22,142,69,1
66,131,208,160,1
23,52,15,28,1
36,217,61,103,1
234,144,104,19,1
33,70,21,22,1
202,9,158,10,1
224,51,144,4,1
72,76,37,129,1
83,96,1,72,1
50,23,106,48,1
105,183,65,278,1
282,377,117,29,1
131,37,269,133,1
1,143,279,97,1
199,161,154,70,1
316,386,166,2,1
72,109,258,86,1
94,60,343,73,1
140,27,31,46,1
45,118,121,115,1
31,10,0,25,1
172,46,185,185,1
119,14,283,91,1
33,105,29,192,1
154,74,213,218,1
291,84,30,2,1
5,217,11,8,1
204,79,145,95,1
145,214,166,33,1
475,21,437,192,1
437,309,89,18,1
76,13,313,58,1
183,22,416,18,1
238,66,167,113,1
113,153,123,69,1
31,12,158,64,1
149,254,197,65,1
257,294,33,30,1
88,68,198,198,1
52,7,113,22,1
157,110,88,12,1
102,16,334,187,1
47,30,117,64,1
177,161,37,68,1
12,21,0,47,1
164,248,0,14,1
66,19,78,222,1
165,178,77,75,1
45,34,312,65,1
229,143,0,135,1
84,97,204,93,1
143,53,6,68,1
155,112,0,259,1
150,175,286,65,1
117,131,96,55,1
284,97,277,104,1
260,194,205,9,1
4,159,120,64,1
173,54,27,14,1
34,10,51,51,1
288,227,179,109,1
213,368,253,219,1
298,158,95,36,1
92,92,366,236,1
130,24,70,50,1
43,39,213,115,1
46,185,346,81,1
316,93,55,137,1
84,191,3,36,1
199,199,99,5,1
271,199,143,98,1
583,374,36,115,1
83,46,42,27,1
274,193,89,122,1
170,68,20,39,1
427,277,66,21,1
73,69,52,51,1
15,49,102,78,1
104,33,168,46,1
308,157,16,178,1
168,250,210,76,1
126,163,476,74,1
32,105,208,46,1
210,28,168,29,1
207,234,249,150,1
188,65,40,76,1
38,29,162,50,1
55,132,36,60,1
70,203,117,19,1
139,11,0,104,1
246,22,99,143,1
423,183,71,23,1
984,600,0,55,1
95,349,66,42,1
148,20,26,89,1
211,85,281,113,1
236,164,158,85,1
143,146,364,114,1
168,130,86,159,1
24,33,248,154,1
47,44,53,40,1
41,69,106,72,1
224,208,0,10,1
369,233,88,2,1
8,7,82,5,1
90,58,239,33,1
14,123,25,54,1
455,86,28,15,1
126,97,0,48,1
294,333,294,195,1
145,26,71,110,1
131,50,525,396,1
41,50,169,61,1
413,431,121,40,1
39,133,788,243,1
19,142,149,45,1
310,163,320,296,1
92,84,107,4,1
34,14,171,15,1
131,100,466,59,1
23,131,0,91,1
146,74,142,22,1
112,108,1,225,1
1,103,278,52,1
22,86,104,106,1
26,146,555,321,1
194,43,256,84,1
129,165,322,173,1
368,328,153,189,1
291,227,69,81,1
176,66,167,79,1
206,26,181,128,1
194,183,75,34,1
63,22,140,75,1
140,39,88,45,1
248,198,88,39,1
108,25,40,106,1
113,95,175,156,1
79,9,39,46,1
17,75,304,431,1
232,18,199,67,1
180,123,178,79,1
269,247,216,112,1
207,249,15,48,1
55,179,266,117,1
57,69,369,98,1
25,122,1,4,1
187,131,630,332,1
96,85,61,40,1
234,38,342,20,1
147,48,163,64,1
452,324,126,137,1
578,246,27,269,1
34,79,367,159,1
95,235,289,131,1
126,134,757,194,1
49,83,105,129,1
5,220,349,149,1
219,89,110,86,1
319,270,149,141,1
132,61,213,109,1
236,111,122,2,1
187,241,286,121,1
74,227,377,242,1
151,151,124,263,1
114,44,168,9,1
151,109,98,33,1
75,154,288,71,1
67,111,365,35,1
238,215,530,56,1
93,261,29,297,1
254,59,590,105,1
106,81,200,69,1
19,56,622,315,1
16,121,154,458,1
155,123,599,475,1
277,78,259,131,1
226,88,13,195,1
579,585,13,80,1
170,262,193,39,1
179,132,334,244,1
205,393,164,147,1
111,204,215,75,1
231,195,598,141,1
303,32,66,99,1
48,257,238,285,1
193,250,240,238,1
99,61,11,13,1
184,78,261,52,1
241,136,452,312,1
33,104,185,245,1
484,448,476,157,1
29,86,626,361,1
408,351,438,208,1
31,102,97,24,1
22,189,782,297,1
207,239,659,385,1
73,32,614,418,1
340,112,179,137,1
74,111,510,290,1
89,50,549,96,1
17,129,559,22,1
73,39,321,273,1
566,189,352,6,1
124,165,300,279,1
44,41,534,636,1
131,119,26,145,1
22,95,508,169,1
256,149,233,6,1
272,119,249,220,1
62,153,864,280,1
58,10,765,66,1
211,141,460,136,1
108,243,53,49,1
153,18,431,235,1
39,23,129,3,1
199,179,0,20,1
111,86,489,185,1
347,56,324,361,1
133,177,720,212,1
26,206,505,94,1
1,21,804,518,1
282,42,387,139,1
201,228,221,486,1
157,101,19,313,1
34,7,372,285,1
465,52,76,114,1
402,210,641,351,1
185,10,609,37,1
12,119,674,107,1
142,248,681,171,1
192,68,452,375,1
125,116,171,49,1
191,464,530,101,1
187,69,952,126,1
133,95,761,305,1
274,253,303,133,1
200,241,196,21,1
336,234,8,243,1
23,20,512,260,1
305,330,418,23,1
124,117,278,312,1
148,166,423,416,1
102,84,208,102,1
1,97,315,303,1
486,82,399,14,1
57,25,613,344,1
122,111,34,47,1
33,239,63,129,1
103,35,64,199,1
171,223,128,139,1
336,186,612,536,1
120,189,745,552,1
218,87,567,495,1
150,60,480,141,1
398,256,775,197,1
166,54,596,31,1
98,79,113,236,1
14,29,677,89,1
44,91,439,196,1
63,28,228,45,1
256,11,62,128,1
169,51,18,263,1
184,59,871,261,1
734,97,827,60,1
156,83,93,88,1
254,107,1023,792,1
245,109,269,33,1
139,197,1002,421,1
77,105,939,87,1
172,145,80,28,1
36,136,399,168,1
11,183,491,174,1
271,108,836,23,1
6,34,200,3,1
80,6,369,226,1
346,393,321,234,1
140,20,61,113,1
28,46,793,818,1
335,149,135,186,1
49,10,1023,761,1
352,87,53,71,1
240,396,785,334,1
204,47,645,212,1
232,79,706,221,1
181,136,772,426,1
344,530,112,62,1
96,39,169,365,1
110,54,453,83,1
203,52,551,518,1
180,223,61,39,1
52,140,990,525,1
108,140,18,8,1
51,73,619,621,1
17,55,0,78,1
90,160,504,291,1
197,55,389,50,1
187,36,481,223,1
279,275,927,196,1
6,67,802,300,1
127,173,797,338,1
163,84,164,24,1
58,114,327,90,1
7,57,565,357,1
156,372,901,499,1
71,159,241,23,1
36,109,491,286,1
647,403,40,12,1
39,11,408,156,1
27,56,469,73,1
152,23,201,113,1
177,23,902,396,1
90,104,417,213,1
244,94,423,18,1
81,79,353,285,1
22,34,0,6,1
175,62,764,353,1
182,19,310,137,1
16,226,472,30,1
181,183,12,46,1
231,62,141,6,1
349,133,633,173,1
135,144,473,17,1
156,132,4,119,1
4,56,392,97,1
51,87,463,189,1
23,73,226,236,1
28,13,437,31,1
219,201,3,38,1
189,132,6,6,1
157,151,94,100,1
51,132,528,285,1
117,88,93,21,1
131,92,27,6,1
14,9,300,13,1
166,119,0,65,1
107,206,250,19,1
117,9,270,213,1
67,107,399,276,1
200,90,577,323,1
52,88,300,268,1
9,132,437,141,1
44,64,52,184,1
129,250,411,180,1
91,157,377,287,1
342,212,332,123,1
85,114,193,36,1
38,16,399,89,1
258,80,477,303,1
2,193,70,168,1
149,11,111,100,1
147,21,39,49,1
66,144,191,314,1
10,90,104,227,1
67,50,105,6,1
35,157,91,143,1
126,33,7,374,1
293,14,429,150,1
137,199,101,19,1
189,193,146,73,1
260,69,208,31,1
160,123,41,37,1
208,169,316,11,1
114,217,834,434,1
422,179,337,30,1
200,183,488,86,1
140,31,245,96,1
305,371,330,31,1
91,117,6,210,1
105,142,570,343,1
100,108,339,200,1
10,42,73,8,1
294,37,292,8,1
286,160,38,89,1
51,52,427,161,1
18,43,767,111,1
99,43,267,140,1
250,259,354,172,1
119,260,673,262,1
102,13,293,117,1
18,451,91,78,1
40,52,21,22,1
105,63,3,107,1
70,349,150,50,1
77,181,309,100,1
54,210,40,120,1
11,29,109,196,1
319,116,111,22,1
64,64,137,5,1
68,45,3,82,1
368,52,27,25,1
87,107,39,51,1
320,563,2,5,1
51,259,298,20,1
52,15,226,372,1
205,76,250,15,1
198,109,325,231,1
7,24,422,118,1
303,388,275,46,1
132,181,237,57,1
50,205,218,226,1
97,138,521,114,1
106,39,385,123,1
88,220,95,47,1
228,198,310,89,1
22,207,501,44,1
121,107,628,2,1
362,340,359,10,1
125,99,38,43,1
207,149,454,14,1
189,32,11,76,1
100,119,76,24,1
26,22,113,248,1
106,35,372,201,1
47,131,0,5,1
373,114,99,58,1
55,57,56,4,1
2,154,178,138,1
23,37,35,13,1
10,7,75,34,1
15,200,63,205,1
16,316,385,368,1
239,291,294,150,1
54,68,602,107,1
28,107,26,328,1
110,121,85,461,1
98,210,0,50,1
255,75,97,98,1
14,64,159,261,1
274,312,121,17,1
312,102,157,103,1
321,104,72,37,1
51,180,70,167,1
137,86,140,198,1
87,202,355,36,1
116,83,327,20,1
71,36,457,74,1
42,222,105,52,1
102,248,258,16,1
17,19,212,72,1
55,66,142,178,1
90,13,103,32,1
78,94,133,149,1
135,22,150,94,1
109,94,39,29,1
16,74,313,99,1
302,232,41,54,1
213,174,91,7,1
18,137,78,128,1
421,99,171,61,1
38,223,58,57,1
262,122,11,42,1
526,310,23,93,1
120,133,335,43,1
29,254,307,22,1
82,40,221,230,1
7,186,0,74,1
21,48,214,299,1
218,63,144,116,1
105,207,168,177,1
175,79,75,99,1
7,23,312,110,1
83,12,79,76,1
65,155,109,58,1
243,315,77,21,1
268,151,10,11,1
72,82,888,367,1
439,296,510,77,1
79,95,642,382,1
85,107,83,237,1
158,45,114,75,1
223,257,202,184,1
215,21,311,3,1
82,86,65,54,1
291,291,0,1,1
301,20,27,18,1
187,41,28,107,1
22,15,38,133,1
76,46,137,130,1
52,108,256,189,1
334,85,26,57,1
330,43,72,224,1
95,127,206,44,1
65,216,415,184,1
262,76,284,15,1
6,178,124,64,1
50,100,206,87,1
290,84,174,67,1
333,98,350,117,1
474,155,369,246,1
307,193,348,153,1
65,33,401,175,1
19,98,333,125,1
43,122,184,220,1
214,230,133,44,1
326,25,300,292,1
122,96,263,488,1
80,23,30,9,1
240,127,127,253,1
62,66,29,29,1
334,57,358,152,1
304,150,95,266,1
66,10,4,77,1
127,203,432,180,1
327,287,6,50,1
196,126,227,70,1
36,123,361,199,1
93,39,40,110,1
110,58,291,127,1
81,45,253,84,1
423,243,0,117,1
153,77,20,32,1
55,30,92,149,1
395,294,3,13,1
252,161,27,83,1
7,39,57,56,1
275,256,0,95,1
125,31,226,64,1
66,35,54,61,1
217,67,110,66,1
115,95,164,58,1
4,47,328,140,1
83,32,548,164,1
3,102,344,88,1
218,105,72,3,1
132,166,435,180,1
7,78,579,274,1
47,17,224,190,1
37,35,123,40,1
304,87,97,80,1
79,45,0,82,1
189,205,157,6,1
203,51,52,33,1
514,341,39,74,1
72,25,18,7,1
28,263,11,11,1
403,148,92,85,1
173,46,27,4,1
21,49,231,45,1
67,53,121,127,1
1,22,77,56,1
76,79,15,79,1
24,36,63,123,1
242,15,230,9,1
153,157,82,60,1
7,53,63,28,1
212,171,0,35,1
15,7,196,67,1
4,164,14,52,1
50,70,47,154,1
217,84,0,13,1
207,170,97,4,1
75,177,25,27,1
136,55,120,123,1
204,6,21,126,1
316,10,363,39,1
162,37,365,289,1
263,262,207,8,1
169,47,82,46,1
158,119,262,85,1
62,16,179,116,1
139,59,293,232,1
247,108,120,110,1
123,211,645,131,1
23,81,17,121,1
165,237,92,71,1
39,147,140,110,1
107,211,104,62,1
46,8,74,1,1
19,92,48,46,1
97,344,130,17,1
52,139,85,11,1
82,9,398,183,1
122,75,193,14,1
32,100,433,446,1
70,83,314,76,1
136,19,221,94,1
7,147,390,142,1
5,11,37,24,1
53,16,201,154,1
38,111,162,143,1
92,104,145,111,1
143,133,141,73,1
205,52,0,20,1
44,116,149,40,1
127,99,140,104,1
67,353,277,146,1
67,182,429,220,1
271,145,58,175,1
2,17,0,63,1
258,301,512,276,1
38,28,145,145,1
85,49,477,346,1
259,122,218,10,1
53,75,58,2,1
762,427,89,102,1
99,275,85,46,1
31,199,283,20,1
24,50,76,64,1
306,165,53,209,1
106,124,277,34,1
243,191,426,154,1
489,92,44,86,1
45,55,338,546,1
123,28,145,109,1
230,233,462,584,1
296,299,85,54,1
32,232,36,119,1
7,38,154,73,1
433,73,155,39,1
170,26,303,38,1
178,11,116,20,1
289,103,634,234,1
535,232,445,244,1
37,29,232,81,1
314,310,695,150,1
7,180,284,225,1
320,224,274,275,1
130,88,282,90,1
105,120,196,391,1
8,24,505,182,1
429,240,167,467,1
33,17,140,23,1
64,127,209,284,1
122,154,403,205,1
296,86,212,276,1
7,19,103,42,1
168,8,450,313,1
84,46,410,66,1
42,78,1023,631,1
185,257,279,33,1
535,29,0,200,1
306,112,683,312,1
165,34,418,210,1
269,75,629,389,1
350,189,300,272,1
345,343,130,211,1
338,276,904,191,1
299,337,529,11,1
184,362,225,71,1
231,8,643,93,1
176,21,481,31,1
281,190,672,9,1
351,215,268,194,1
156,225,113,376,1
471,298,40,229,1
55,20,358,161,1
259,144,164,150,1
130,12,503,46,1
330,221,130,185,1
319,100,537,65,1
96,276,521,425,1
236,100,192,29,1
32,122,339,175,1
541,444,45,163,1
51,26,831,214,1
65,7,601,7,1
143,23,1023,161,1
156,183,86,277,1
338,229,534,172,1
231,81,495,414,1
249,219,558,106,1
407,457,235,69,1
268,214,190,333,1
94,105,571,253,1
268,11,365,142,1
399,143,91,63,1
52,69,236,221,1
217,112,654,179,1
111,145,163,2,1
164,294,450,92,1
307,181,121,24,1
2,63,116,127,1
130,76,22,127,1
886,696,149,294,1
276,177,772,250,1
15,6,655,52,1
12,82,121,856,1
34,131,631,364,1
157,318,461,2,1
64,74,55,42,1
205,394,97,56,1
278,343,180,542,1
242,114,258,178,1
235,468,191,444,1
14,59,111,94,1
44,14,536,287,1
5,45,613,415,1
22,28,548,33,1
80,29,336,50,1
90,235,101,170,1
94,29,733,218,1
80,84,1023,116,1
44,17,36,6,1
366,182,755,354,1
4,15,1023,445,1
189,102,533,25,1
277,227,0,451,1
86,35,158,97,1
208,242,713,485,1
99,15,297,225,1
322,190,335,107,1
219,454,792,531,1
180,138,239,151,1
1,190,939,350,1
497,204,69,259,1
184,61,5,220,1
59,31,1023,569,1
351,150,1023,65,1
63,205,141,166,1
313,22,616,21,1
63,38,1023,286,1
431,366,840,232,1
130,28,611,34,1
152,52,279,89,1
246,286,267,27,1
331,117,616,181,1
312,199,1023,218,1
235,307,544,30,1
308,22,131,5,1
109,67,427,274,1
420,424,379,62,1
15,212,342,261,1
529,324,857,201,1
129,134,785,10,1
371,142,371,90,1
42,28,146,157,1
297,5,28,139,1
160,129,1023,634,1
108,365,413,307,1
208,136,300,209,1
238,242,4,43,1
208,460,51,48,1
693,29,16,63,1
98,61,607,70,1
61,155,1023,68,1
66,48,89,1,1
246,56,1023,464,1
50,82,941,364,1
223,125,455,454,1
84,97,516,83,1
245,15,310,350,1
29,155,380,11,1
102,15,279,61,1
133,351,708,240,1
52,68,811,475,1
141,136,224,315,1
288,71,665,344,1
407,206,318,118,1
544,413,563,295,1
30,165,865,293,1
42,183,597,265,1
179,105,221,421,1
525,268,324,349,1
921,780,463,45,1
7,174,72,4,1
294,263,492,677,1
313,24,0,28,1
91,8,406,167,1
194,379,1023,357,1
96,124,119,7,1
388,362,674,217,1
2,199,429,164,1
142,31,399,14,1
363,239,111,35,1
43,23,294,40,1
583,209,252,11,1
145,17,941,660,1
71,32,706,233,1
167,230,27,144,1
249,26,185,161,1
113,99,71,23,1
27,181,279,129,1
25,104,782,323,1
374,98,1023,655,1
8,89,35,43,1
39,18,735,265,1
377,314,932,282,1
93,266,193,148,1
172,15,59,48,1
162,131,72,51,1
153,20,534,108,1
152,289,267,114,1
107,97,277,275,1
49,201,111,153,1
188,180,203,114,1
99,213,445,361,1
198,238,511,170,1
720,135,0,49,1
266,215,126,32,1
304,23,158,94,1
29,13,361,36,1
271,228,7,26,1
218,66,232,11,1
13,121,589,53,1
261,250,215,196,1
17,7,663,385,1
319,58,298,170,1
204,175,344,20,1
63,11,592,185,1
211,206,53,70,1
102,173,184,60,1
35,153,236,44,1
37,87,314,102,1
43,71,54,361,1
56,196,108,234,1
24,335,241,61,1
138,207,196,104,1
106,79,180,81,1
41,74,127,117,1
270,119,253,41,1
23,122,366,221,1
643,440,623,152,1
367,110,536,11,1
1,59,36,102,1
197,140,17,179,1
116,86,126,21,1
219,283,371,114,1
49,68,291,202,1
171,364,338,124,1
114,87,152,132,1
263,178,211,43,1
594,467,44,63,1
400,260,72,166,1
357,119,284,227,1
120,162,554,74,1
156,225,806,25,1
405,125,341,129,1
427,362,40,107,1
233,101,368,106,1
150,21,213,67,1
130,24,168,43,1
178,41,113,9,1
160,108,236,228,1
343,345,314,180,1
19,168,227,141,1
15,50,6,57,1
212,65,240,10,1
253,337,90,115,1
173,425,316,147,1
264,174,503,127,1
150,26,110,119,1
266,23,226,9,1
530,374,245,4,1
48,8,178,14,1
215,8,311,256,1
230,164,103,123,1
4,81,92,84,1
136,185,769,291,1
114,107,759,26,1
51,73,64,24,1
130,37,87,207,1
176,216,185,42,1
123,59,234,170,1
330,125,62,80,1
153,87,321,262,1
384,517,313,188,1
8,231,402,119,1
117,123,144,3,1
232,241,312,172,1
415,243,221,31,1
55,147,152,37,1
72,69,237,260,1
10,236,245,23,1
66,342,830,201,1
114,109,88,18,1
185,42,385,93,1
18,70,326,117,1
5,55,102,41,1
130,61,24,61,1
256,19,217,119,1
108,66,185,120,1
194,138,286,95,1
8,10,245,86,1
152,134,377,81,1
201,69,259,29,1
159,200,28,81,1
135,195,235,79,1
140,48,215,249,1
112,180,26,242,1
16,54,279,195,1
54,54,22,116,1
134,67,62,17,1
231,151,105,16,1
29,26,71,9,1
361,91,249,134,1
262,38,515,541,1
191,39,584,64,1
147,348,131,61,1
42,87,8,49,1
177,93,684,314,1
237,69,435,32,1
47,58,108,140,1
233,9,83,36,1
204,269,0,72,1
165,179,311,6,1
120,80,44,3,1
24,6,191,99,1
40,65,96,197,1
248,47,87,86,1
172,120,111,458,1
43,228,13,79,1
306,270,230,23,1
237,63,22,9,1
133,110,527,256,1
18,33,472,104,1
33,170,414,119,1
39,116,904,327,1
279,54,118,119,1
94,143,150,108,1
173,197,163,42,1
165,219,274,28,1
117,246,24,129,1
23,112,35,144,1
21,110,302,131,1
334,138,6,21,1
62,62,315,96,1
62,30,37,100,1
141,168,388,276,1
133,21,158,13,1
121,93,200,267,1
457,200,242,80,1
297,509,36,14,1
363,430,267,104,1
224,41,149,81,1
81,20,28,116,1
95,17,292,67,1
172,58,0,16,1
204,181,442,86,1
138,99,330,75,1
330,284,469,79,1
968,489,190,88,1
166,157,5,187,1
315,176,180,168,1
116,151,428,315,1
489,25,156,261,1
446,315,369,99,1
35,189,33,162,1
167,200,359,67,1
120,227,429,403,1
17,179,659,23,1
5,43,0,7,1
54,204,0,90,1
4,56,91,24,1
91,64,311,95,1
109,20,148,99,1
13,149,110,59,1
14,115,2,53,1
9,261,168,19,1
68,105,87,264,1
496,175,650,266,1
118,6,648,73,1
201,14,515,207,1
172,95,36,1,1
53,87,312,118,1
154,22,83,184,1
350,215,156,115,1
185,259,239,99,1
101,66,58,69,1
220,6,93,41,1
108,49,237,86,1
160,19,111,81,1
7,207,223,188,1
233,235,30,336,1
73,96,139,68,1
63,38,138,46,1
27,198,14,174,1
140,16,31,135,1
89,64,466,151,1
127,155,334,24,1
58,37,215,4,1
100,108,162,79,1
43,80,127,119,1
213,69,277,209,1
266,208,400,143,1
141,192,127,11,1
11,15,201,17,1
10,111,472,117,1
196,69,260,15,1
167,22,193,59,1
145,161,61,42,1
259,308,105,56,1
44,290,110,53,1
196,73,17,275,1
144,242,23,10,1
81,58,36,6,1
116,15,131,64,1
138,20,50,9,1
28,13,66,220,1
123,290,561,215,1
256,97,611,60,1
46,16,6,283,1
117,8,205,71,1
136,29,3,42,1
106,61,236,51,1
48,67,94,232,1
138,24,376,390,1
297,63,47,41,1
103,85,65,2,1
248,10,56,63,1
463,31,226,184,1
48,231,0,34,1
214,215,67,134,1
7,7,0,49,1
266,257,289,43,1
131,265,75,336,1
188,44,264,152,1
76,298,62,91,1
216,95,183,53,1
93,37,330,102,1
45,97,466,116,1
2,37,183,46,1
2,139,4,15,1
155,197,141,282,1
149,31,0,256,1
147,98,52,34,1
49,83,183,213,1
9,244,226,118,1
173,247,54,25,1
238,149,26,75,1
359,142,287,25,1
335,175,45,131,1
52,181,58,97,1
2,25,122,8,1
81,90,0,45,1
256,223,91,78,1
175,108,94,70,1
16,259,237,68,1
230,141,149,14,1
47,136,31,102,1
196,75,0,1,1
180,176,5,80,1
173,275,257,68,1
228,264,172,134,1
172,180,182,64,1
243,21,134,160,1
165,7,432,79,1
44,60,60,134,1
237,71,228,213,1
143,41,31,54,1
200,40,205,107,1
46,34,172,114,1
1,9,23,6,1
115,30,328,225,1
28,28,52,63,1
24,21,69,41,1
253,130,2,117,1
320,111,94,12,1
156,287,25,34,1
640,331,119,39,1
119,10,248,108,1
319,427,150,67,1
115,233,280,286,1
284,123,31,81,1
314,85,14,123,1
55,146,467,241,1
46,152,247,109,1
176,61,166,143,1
413,174,10,77,1
150,61,32,125,1
30,117,4,6,1
37,99,128,17,1
293,228,188,66,1
317,504,46,11,1
26,187,68,7,1
30,92,56,25,1
52,122,77,40,1
180,399,39,9,1
370,367,84,16,1
390,103,185,55,1
46,172,264,104,1
144,334,533,130,1
25,45,78,184,1
332,209,261,160,1
349,13,0,148,1
268,182,226,63,1
3,19,148,173,1
125,105,316,100,1
686,766,288,88,1
452,155,110,32,1
521,312,84,95,1
95,52,80,148,1
26,121,96,80,1
284,239,317,67,1
148,320,268,238,1
192,140,339,205,1
101,6,83,139,1
49,44,173,149,1
167,26,573,133,1
67,144,374,54,1
323,99,32,24,1
197,73,204,143,1
108,47,1,36,1
51,157,214,34,1
346,243,320,278,1
77,395,241,485,1
7,10,511,215,1
24,160,721,277,1
66,41,136,90,1
112,35,559,418,1
59,46,19,9,1
176,116,0,20,1
270,260,433,96,1
66,60,227,232,1
148,429,259,175,1
350,453,81,19,1
244,483,34,6,1
162,219,66,44,1
46,104,349,288,1
73,24,162,14,1
25,81,439,282,1
159,65,178,220,1
285,86,463,256,1
175,85,788,306,1
71,13,98,270,1
138,65,395,153,1
18,68,97,100,1
138,98,1014,309,1
16,68,896,37,1
190,196,157,168,1
33,38,212,315,1
114,206,70,40,1
377,252,632,395,1
406,27,68,40,1
501,441,637,353,1
161,200,206,149,1
33,11,807,363,1
21,33,65,14,1
29,249,297,193,1
10,59,551,514,1
184,50,607,183,1
61,35,617,185,1
151,13,604,364,1
227,40,218,529,1
222,287,577,498,1
84,105,312,107,1
305,423,784,267,1
205,322,574,325,1
200,362,10,21,1
66,166,454,572,1
125,56,79,17,1
62,75,749,296,1
278,212,81,169,1
44,528,279,10,1
246,267,59,102,1
67,293,387,153,1
291,74,367,87,1
11,125,981,450,1
138,52,953,231,1
199,228,798,593,1
209,120,1023,130,1
121,104,195,401,1
57,117,1017,415,1
283,266,329,117,1
156,11,329,8,1
144,172,1023,592,1
404,495,330,67,1
823,474,189,271,1
72,154,263,136,1
34,295,272,363,1
384,468,584,34,1
146,180,660,697,1
62,128,497,557,1
258,11,1023,720,1
13,123,57,291,1
307,318,120,151,1
67,21,1023,759,1
162,383,381,96,1
136,292,1023,981,1
49,64,752,318,1
270,144,1023,474,1
251,69,75,25,1
187,59,1023,371,1
6,27,547,439,1
115,183,540,569,1
500,165,1023,373,1
166,86,1023,387,1
43,151,263,479,1
9,81,545,434,1
210,96,1023,462,1
324,267,534,36,1
97,75,1023,493,1
167,49,752,99,1
170,119,226,770,1
169,238,674,811,1
282,184,1023,215,1
10,352,1023,240,1
512,136,26,77,1
291,237,593,351,1
247,229,493,457,1
133,23,27,129,1
206,258,1023,1023,1
305,63,269,145,1
192,28,1023,763,1
96,283,73,177,1
13,140,1023,718,1
181,77,1016,563,1
256,144,137,185,1
40,99,1023,616,1
431,152,735,567,1
441,139,770,258,1
160,183,683,384,1
536,267,1023,603,1
124,92,1023,48,1
679,467,329,19,1
68,31,206,6,1
6,282,1023,644,1
191,70,449,212,1
232,98,431,237,1
103,158,288,383,1
167,119,702,129,1
277,292,997,545,1
43,98,404,359,1
39,39,122,13,1
150,109,569,76,1
161,154,1023,477,1
245,211,345,297,1
24,26,864,654,1
75,18,1023,632,1
293,118,37,259,1
314,241,747,259,1
239,101,408,42,1
276,173,422,125,1
102,165,31,165,1
15,53,72,124,1
99,42,325,211,1
402,134,58,79,1
48,275,739,214,1
208,68,163,92,1
32,226,532,322,1
111,70,785,260,1
411,548,268,30,1
82,185,427,262,1
35,7,1023,133,1
50,46,224,158,1
99,33,34,342,1
151,116,201,3,1
221,73,63,71,1
150,203,421,239,1
79,138,257,82,1
124,132,624,375,1
21,78,182,150,1
243,15,352,65,1
409,326,420,337,1
144,51,263,31,1
124,165,280,440,1
383,304,32,8,1
159,63,357,80,1
290,158,105,13,1
22,157,8,14,1
113,30,314,42,1
130,127,228,107,1
72,103,537,211,1
69,69,161,112,1
197,112,10,18,1
246,119,50,175,1
316,282,67,160,1
223,419,746,491,1
157,168,43,155,1
17,86,678,173,1
501,287,429,79,1
432,369,0,65,1
6,169,419,137,1
118,93,430,279,1
158,85,351,6,1
56,171,22,115,1
168,190,59,83,1
78,154,105,50,1
176,187,322,295,1
331,280,269,153,1
6,171,325,196,1
9,150,77,182,1
159,177,71,143,1
60,28,90,93,1
151,18,435,195,1
89,106,93,53,1
196,54,243,207,1
88,44,337,343,1
264,50,66,81,1
199,203,10,151,1
177,43,513,161,1
85,32,41,7,1
164,97,486,197,1
70,16,60,27,1
52,168,41,15,1
54,61,289,189,1
149,75,158,56,1
169,123,219,65,1
54,193,43,5,1
316,366,236,64,1
118,90,364,36,1
6,15,215,87,1
53,310,181,141,1
142,645,596,220,1
29,29,173,20,1
58,54,189,100,1
354,237,109,10,1
628,154,194,26,1
364,147,510,4,1
50,21,382,77,1
234,28,282,26,1
69,45,0,153,1
16,22,123,43,1
43,25,89,107,1
37,108,552,153,1
13,90,871,146,1
47,135,83,129,1
91,85,267,331,1
50,132,66,96,1
85,190,8,1,1
15,229,0,6,1
120,23,848,148,1
310,241,560,193,1
140,112,399,222,1
639,443,371,193,1
301,62,109,163,1
84,126,5,31,1
137,244,170,208,1
43,41,425,162,1
220,526,263,161,1
18,106,410,484,1
243,343,236,26,1
175,371,55,155,1
52,110,26,160,1
86,84,150,43,1
100,167,5,298,1
77,50,190,323,1
104,110,456,16,1
229,33,210,331,1
299,51,65,47,1
233,52,211,232,1
26,80,222,64,1
258,144,234,99,1
24,42,290,208,1
106,24,183,9,1
188,192,54,274,1
14,173,120,51,1
93,21,13,150,1
8,86,105,100,1
30,81,171,214,1
13,66,40,52,1
43,178,0,10,1
119,76,249,32,1
19,71,241,149,1
29,69,314,96,1
9,70,239,216,1
329,9,498,253,1
451,287,200,263,1
66,167,99,139,1
38,240,133,63,1
40,33,314,229,1
0,14,162,134,1
225,329,356,181,1
108,179,32,29,1
22,84,191,76,1
57,88,131,283,1
188,148,203,218,1
11,153,321,659,1
7,79,359,190,1
23,26,513,240,1
34,17,117,142,1
10,132,168,15,1
121,207,267,37,1
116,60,428,215,1
39,293,172,94,1
455,130,914,232,1
441,92,62,77,1
43,306,38,21,1
188,317,4,42,1
19,100,285,156,1
67,45,8,110,1
168,31,18,296,1
233,86,202,17,1
245,99,247,64,1
317,253,240,159,1
7,49,83,96,1
61,161,129,9,1
70,217,168,69,1
49,89,11,3,1
206,206,104,9,1
129,300,155,58,1
66,376,1,38,1
21,10,55,16,1
396,88,61,150,1
282,94,71,163,1
37,141,249,253,1
294,10,281,114,1
186,32,273,288,1
162,170,74,77,1
157,14,201,17,1
235,88,166,87,1
18,81,31,84,1
18,155,296,127,1
142,127,445,158,1
26,74,215,17,1
32,81,49,92,1
124,57,262,90,1
19,55,125,4,1
18,123,43,4,1
7,18,10,38,1
138,65,461,152,1
209,86,171,8,1
84,220,397,321,1
94,30,180,82,1
53,201,53,121,1
332,391,312,156,1
61,255,267,46,1
638,373,86,135,1
196,102,117,189,1
325,273,37,162,1
216,111,60,2,1
73,67,359,169,1
310,157,60,240,1
3,105,324,99,1
237,135,98,19,1
278,20,0,107,1
64,116,427,399,1
92,118,219,61,1
16,105,571,379,1
140,93,230,142,1
43,113,323,233,1
103,131,108,61,1
99,113,377,124,1
7,25,2,10,1
38,105,204,21,1
177,45,181,17,1
334,205,306,187,1
58,99,253,146,1
107,74,227,238,1
88,49,28,22,1
47,10,388,117,1
181,186,245,155,1
159,217,5,124,1
181,87,49,21,1
216,153,473,35,1
123,138,114,78,1
193,359,57,49,1
209,228,125,69,1
278,53,189,111,1
257,43,559,190,1
305,339,499,91,1
146,371,314,137,1
13,61,23,30,1
386,216,159,217,1
130,110,256,116,1
225,188,289,162,1
151,332,457,42,1
169,135,25,181,1
5,166,279,151,1
31,121,0,26,1
36,9,211,108,1
48,74,183,105,1
190,228,93,160,1
419,377,14,131,1
11,33,333,197,1
22,8,111,6,1
55,6,131,195,1
77,44,63,39,1
157,46,180,138,1
124,57,36,41,1
180,90,92,79,1
216,184,128,21,1
7,74,429,97,1
20,69,35,61,1
309,220,142,46,1
7,135,7,16,1
319,250,87,37,1
223,122,6,16,1
188,50,34,26,1
170,255,8,51,1
11,40,88,273,1
199,94,285,104,1
63,55,344,56,1
34,143,94,163,1
27,194,52,175,1
30,122,90,81,1
467,29,338,79,1
243,59,238,11,1
147,57,40,23,1
16,129,64,48,1
266,157,40,32,1
44,108,207,56,1
335,254,146,25,1
32,213,331,194,1
155,63,116,138,1
46,16,522,298,1
223,83,130,32,1
42,59,188,172,1
9,98,86,282,1
251,49,5,251,1
217,166,10,142,1
28,10,133,175,1
37,55,73,77,1
2,19,258,175,1
101,59,92,36,1
349,302,0,8,1
457,78,298,207,1
406,320,58,10,1
6,99,664,379,1
378,241,494,12,1
97,36,314,235,1
45,10,199,30,1
270,114,116,130,1
33,13,309,38,1
111,46,46,48,1
85,241,109,14,1
24,13,7,5,1
102,113,126,46,1
219,221,94,60,1
174,70,4,3,1
31,56,77,36,1
45,123,157,15,1
282,163,43,105,1
382,316,83,75,1
137,74,38,2,1
58,70,251,105,1
136,41,64,4,1
56,98,241,238,1
79,113,398,76,1
110,99,325,100,1
178,69,246,116,1
160,324,224,5,1
7,103,114,55,1
147,119,102,32,1
196,259,122,33,1
78,15,50,11,1
7,14,15,65,1
23,14,149,63,1
23,57,151,46,1
6,65,167,3,1
81,25,39,70,1
83,73,513,40,1
166,242,38,12,1
82,171,151,19,1
23,62,306,82,1
71,48,154,193,1
115,227,349,59,1
268,99,0,54,1
315,226,24,80,1
325,179,120,9,1
179,7,251,134,1
162,182,67,87,1
70,184,24,95,1
59,199,71,15,1
78,34,59,14,1
277,257,0,13,1
162,137,29,25,1
54,162,75,12,1
20,245,344,156,1
211,257,50,28,1
383,367,691,222,1
116,127,57,3,1
105,134,406,207,1
177,228,245,118,1
213,236,209,101,1
46,39,77,34,1
226,187,209,58,1
106,42,32,8,1
79,91,33,21,1
82,152,63,47,1
9,10,12,7,1
15,12,35,47,1
562,511,61,60,1
334,265,306,323,1
168,51,109,126,1
434,152,0,302,1
126,187,6,7,1
39,145,114,8,1
21,18,25,40,1
79,235,87,50,1
22,25,101,15,1
44,71,70,64,1
12,156,220,214,1
18,284,212,123,1
221,484,240,90,1
4,180,467,350,1
29,187,0,77,1
201,57,250,71,1
223,107,0,111,1
422,343,335,404,1
39,24,302,178,1
126,273,43,343,1
2,289,9,106,1
93,108,488,516,1
62,61,380,466,1
353,211,387,23,1
673,395,4,158,1
303,142,141,217,1
240,182,17,5,1
162,113,275,274,1
280,338,373,2,1
661,688,609,45,1
189,70,158,4,1
502,114,507,506,1
30,65,270,469,1
374,84,64,152,1
187,158,0,22,1
150,285,692,437,1
615,677,275,109,1
215,38,1023,442,1
141,101,671,196,1
364,190,89,21,1
133,83,243,245,1
21,64,140,159,1
139,21,124,117,1
102,240,321,11,1
77,72,54,138,1
66,45,140,194,1
161,375,197,14,1
222,239,238,145,1
230,37,1023,651,1
142,227,0,112,1
150,223,1023,946,1
235,52,766,57,1
112,138,181,55,1
175,312,359,298,1
139,224,235,125,1
35,197,283,177,1
297,367,478,284,1
301,286,160,623,1
171,278,350,67,1
154,208,809,406,1
281,329,1023,701,1
410,269,152,552,1
17,78,1023,793,1
533,267,1023,373,1
697,487,312,641,1
166,163,1023,441,1
245,219,273,7,1
71,65,303,337,1
74,12,555,279,1
230,73,114,394,1
43,140,60,116,1
602,484,433,250,1
415,396,197,158,1
164,75,867,234,1
364,476,364,366,1
16,224,329,281,1
90,275,33,35,1
682,326,479,280,1
183,249,33,11,1
380,458,199,139,1
99,276,415,243,1
3,23,448,252,1
85,48,93,259,1
40,195,588,513,1
326,89,919,129,1
491,332,171,43,1
31,49,924,164,1
24,299,348,201,1
53,226,920,446,1
295,170,47,133,1
885,421,707,650,1
2,230,163,80,1
134,61,1023,839,1
111,16,1016,140,1
38,45,958,966,1
8,209,755,25,1
93,86,571,180,1
515,311,603,148,1
227,20,286,695,1
0,145,74,215,1
58,5,1023,666,1
208,175,486,278,1
266,132,873,536,1
45,108,823,316,1
163,119,284,244,1
72,171,317,340,1
569,465,506,281,1
479,473,53,21,1
76,15,94,211,1
89,9,470,170,1
231,117,463,141,1
27,7,590,397,1
404,26,334,137,1
132,139,810,306,1
351,465,10,310,1
85,108,408,196,1
205,31,1023,741,1
290,83,1023,313,1
297,147,1023,983,1
142,205,1023,658,1
222,124,661,495,1
344,129,513,439,1
558,430,65,11,1
327,21,1007,338,1
113,41,430,38,1
70,112,257,258,1
110,171,175,412,1
195,98,1023,553,1
116,406,1023,577,1
160,229,800,450,1
228,84,466,58,1
94,86,1023,1013,1
607,221,186,174,1
326,316,1023,655,1
304,356,499,181,1
491,415,35,243,1
147,222,105,27,1
307,340,230,83,1
60,53,903,41,1
45,101,826,70,1
286,316,777,364,1
151,43,446,91,1
179,216,1023,592,1
134,265,1023,354,1
156,84,564,95,1
179,47,352,9,1
409,289,1023,402,1
589,349,36,8,1
70,45,790,473,1
289,255,657,317,1
561,209,393,443,1
331,237,677,118,1
624,244,1023,496,1
571,290,199,175,1
202,31,717,215,1
35,171,1023,334,1
54,160,3,18,1
152,46,157,65,1
70,99,1015,372,1
253,172,156,71,1
12,73,1023,527,1
84,203,300,130,1
53,18,936,215,1
132,137,604,130,1
28,120,353,191,1
28,67,23,382,1
111,20,25,119,1
245,228,201,50,1
263,219,331,226,1
183,426,530,627,1
211,203,275,71,1
4,56,33,212,1
214,229,288,129,1
268,324,587,190,1
8,78,800,180,1
40,47,574,127,1
47,120,1023,93,1
2,94,683,394,1
8,15,152,200,1
56,188,434,244,1
196,102,232,122,1
39,123,343,36,1
170,158,286,127,1
268,43,335,77,1
99,19,846,176,1
326,32,395,134,1
39,128,354,74,1
209,144,236,219,1
254,234,396,318,1
4,68,253,62,1
251,252,1,147,1
41,7,169,32,1
203,160,85,83,1
40,143,186,137,1
73,111,133,3,1
30,21,0,154,1
191,218,80,114,1
154,24,249,169,1
24,54,120,61,1
21,7,171,118,1
153,170,234,389,1
133,123,47,164,1
151,117,113,95,1
44,78,0,22,1
165,138,142,238,1
35,134,29,126,1
171,151,138,109,1
88,17,336,168,1
313,93,77,230,1
14,151,35,133,1
26,86,344,4,1
21,53,334,53,1
105,35,554,599,1
68,19,254,153,1
153,60,219,9,1
92,169,565,80,1
89,40,164,62,1
283,206,415,33,1
24,66,233,45,1
87,122,235,40,1
41,199,15,151,1
0,112,372,187,1
2,57,0,40,1
8,33,180,86,1
123,28,237,19,1
4,305,754,360,1
173,6,33,220,1
21,29,60,105,1
523,375,179,85,1
32,85,292,108,1
261,366,512,147,1
69,135,209,173,1
271,276,0,90,1
156,71,570,136,1
106,10,72,89,1
103,78,439,171,1
182,13,282,45,1
347,598,0,271,1
6,9,43,342,1
244,259,15,175,1
268,133,413,87,1
54,79,287,6,1
128,90,177,61,1
96,244,269,242,1
104,83,527,167,1
151,82,577,100,1
103,224,209,89,1
141,49,122,14,1
26,117,0,40,1
165,54,217,168,1
91,259,118,34,1
44,248,156,269,1
319,265,5,16,1
117,58,143,196,1
156,64,315,79,1
5,88,274,163,1
74,133,270,229,1
51,24,64,76,1
25,19,44,45,1
311,179,184,43,1
245,51,2,248,1
88,5,332,32,1
66,99,249,69,1
315,143,550,65,1
573,386,694,154,1
414,277,62,14,1
556,197,471,191,1
70,211,170,141,1
32,183,220,69,1
70,73,182,99,1
45,84,112,158,1
2,312,145,220,1
131,40,174,58,1
103,158,160,15,1
191,283,82,58,1
395,230,109,74,1
64,62,13,103,1
302,34,267,31,1
55,92,283,92,1
448,132,582,201,1
22,87,17,53,1
28,76,31,268,1
35,33,741,23,1
134,117,901,76,1
113,67,51,108,1
119,51,321,53,1
112,41,94,82,1
7,97,153,65,1
61,41,62,40,1
176,186,0,52,1
169,166,30,33,1
179,32,230,78,1
223,111,104,9,1
91,24,84,253,1
243,148,108,340,1
266,255,226,148,1
419,166,65,65,1
156,79,515,68,1
97,280,186,47,1
238,199,265,123,1
17,91,216,174,1
51,145,100,161,1
92,69,55,43,1
200,40,464,230,1
30,6,587,399,1
253,112,85,217,1
223,122,21,40,1
206,414,8,123,1
80,17,168,71,1
100,186,44,3,1
74,115,93,63,1
110,13,191,6,1
51,165,49,45,1
3,7,22,86,1
135,13,54,15,1
182,234,309,230,1
147,277,336,76,1
95,128,1,22,1
189,17,83,80,1
241,127,98,15,1
156,289,123,46,1
79,6,122,199,1
195,86,218,20,1
95,74,360,293,1
82,29,373,127,1
415,30,124,150,1
257,307,191,36,1
79,60,110,19,1
178,223,90,26,1
251,169,47,146,1
351,137,167,30,1
235,149,346,187,1
42,72,40,117,1
375,211,0,70,1
25,110,11,65,1
276,143,0,108,1
48,127,126,175,1
128,61,7,202,1
202,182,167,297,1
2,113,2,45,1
129,119,103,85,1
235,125,339,137,1
133,177,83,39,1
78,159,61,60,1
68,34,470,325,1
5,145,70,22,1
231,19,282,56,1
192,76,124,2,1
9,12,180,74,1
199,42,93,61,1
202,60,60,2,1
303,15,47,32,1
18,91,53,114,1
9,89,274,261,1
149,102,510,171,1
235,112,377,279,1
137,105,67,25,1
96,279,422,193,1
165,290,177,95,1
105,44,152,144,1
233,41,112,4,1
173,51,302,168,1
212,233,506,270,1
4,7,999,242,1
12,62,159,61,1
255,50,108,28,1
365,53,645,249,1
113,19,324,112,1
211,223,871,581,1
319,250,219,68,1
47,221,118,82,1
68,30,112,121,1
15,19,205,61,1
36,184,0,64,1
91,52,64,76,1
258,173,44,2,1
28,129,55,15,1
220,41,269,106,1
76,69,55,12,1
220,192,342,107,1
338,245,24,39,1
62,57,85,125,1
79,103,154,66,1
23,73,157,97,1
128,56,242,205,1
191,174,156,148,1
24,179,94,267,1
176,72,285,277,1
97,171,111,81,1
20,10,50,1,1
103,238,271,103,1
235,187,113,5,1
98,91,248,124,1
340,65,18,91,1
425,208,0,1,1
123,119,176,67,1
166,95,146,45,1
11,109,92,8,1
75,17,0,3,1
123,145,358,5,1
108,35,439,110,1
120,103,348,152,1
67,31,116,59,1
196,219,162,26,1
61,26,73,112,1
52,35,59,100,1
144,392,210,52,1
11,72,158,3,1
37,94,251,7,1
12,51,436,37,1
14,25,56,61,1
229,237,335,212,1
19,112,135,45,1
204,305,6,75,1
23,164,73,34,1
471,128,389,174,1
169,135,4,17,1
2,107,477,271,1
31,39,147,277,1
65,121,57,13,1
457,440,0,33,1
200,42,94,137,1
187,194,102,15,1
40,44,7,2,1
36,104,148,106,1
131,186,287,96,1
119,131,225,89,1
94,156,111,107,1
31,28,280,103,1
22,57,235,130,1
179,32,217,212,1
270,181,205,100,1
96,148,0,192,1
216,249,76,56,1
13,17,4,43,1
227,125,21,15,1
38,52,15,47,1
160,147,230,159,1
303,179,71,68,1
10,172,68,24,1
143,211,89,91,1
63,87,444,105,1
160,28,434,134,1
248,77,295,124,1
131,68,41,19,1
6,76,540,126,1
194,51,132,176,1
134,49,651,284,1
62,23,28,68,1
172,174,0,58,1
25,127,59,104,1
95,69,166,130,1
4,75,223,161,1
330,70,347,158,1
422,240,106,36,1
79,46,60,17,1
71,179,44,46,1
235,336,212,74,1
306,76,38,20,1
352,237,48,1,1
58,97,124,17,1
16,115,114,16,1
205,206,27,79,1
118,97,104,178,1
93,47,151,103,1
127,214,108,17,1
5,129,262,99,1
245,67,188,42,1
220,51,15,121,1
272,197,193,138,1
253,64,382,242,1
356,401,284,169,1
241,52,340,148,1
265,153,295,110,1
287,383,22,135,1
296,43,176,27,1
189,194,365,123,1
169,35,0,119,1
274,25,233,244,1
288,19,137,50,1
84,23,35,79,1
220,162,106,108,1
23,28,225,75,1
10,32,74,15,1
105,43,53,94,1
46,20,47,29,1
170,148,299,151,1
308,25,219,265,1
182,452,353,270,1
39,59,403,358,1
94,117,0,27,1
164,81,512,303,1
427,207,52,17,1
14,55,545,248,1
6,94,33,45,1
161,289,159,50,1
41,115,102,89,1
130,19,266,121,1
230,195,191,53,1
30,20,365,9,1
44,97,83,114,1
79,94,31,129,1
57,52,14,23,1
112,154,344,224,1
71,76,600,435,1
496,446,230,215,1
263,253,486,468,1
53,59,39,618,1
131,22,208,23,1
198,56,500,185,1
355,215,132,156,1
197,204,36,65,1
54,25,282,194,1
270,336,322,114,1
100,17,294,144,1
2,120,454,109,1
52,14,290,243,1
145,10,479,341,1
113,173,187,120,1
58,112,226,76,1
153,53,175,275,1
68,23,67,204,1
64,40,286,234,1
268,214,234,186,1
85,280,101,296,1
115,107,764,299,1
241,54,442,267,1
144,7,327,404,1
301,365,134,19,1
336,38,193,169,1
107,499,602,208,1
79,299,205,255,1
213,272,578,192,1
125,221,18,351,1
204,389,223,224,1
276,37,218,168,1
222,353,427,147,1
0,137,241,33,1
341,34,288,173,1
482,99,68,89,1
276,149,130,468,1
561,390,436,11,1
291,275,778,435,1
74,42,608,175,1
311,11,902,237,1
7,140,691,443,1
644,243,171,150,1
195,157,335,304,1
38,167,623,416,1
300,52,1023,506,1
29,30,382,454,1
265,223,58,68,1
105,201,249,651,1
146,31,290,74,1
45,173,531,302,1
625,540,657,112,1
143,347,507,208,1
51,58,508,289,1
111,218,211,34,1
274,215,610,174,1
312,231,1023,71,1
385,481,264,1023,1
376,326,293,187,1
413,350,457,6,1
51,13,321,207,1
66,107,193,93,1
82,122,630,419,1
81,187,483,322,1
402,436,456,124,1
96,37,795,48,1
164,85,391,399,1
204,169,359,474,1
359,406,65,625,1
191,187,3,389,1
25,113,291,393,1
430,230,55,385,1
187,15,345,375,1
312,86,1023,758,1
76,24,1023,412,1
199,297,187,388,1
151,72,612,444,1
124,8,351,36,1
190,21,755,3,1
10,49,289,16,1
366,29,201,307,1
33,83,345,399,1
172,18,265,320,1
387,389,607,369,1
866,616,292,237,1
100,9,253,306,1
351,431,987,31,1
153,149,140,456,1
40,104,650,1023,1
55,16,52,133,1
525,228,313,169,1
71,114,68,4,1
210,11,699,124,1
20,109,63,13,1
125,70,1023,770,1
278,228,915,21,1
152,151,18,718,1
366,546,734,620,1
266,201,666,837,1
200,280,395,120,1
400,210,625,39,1
152,19,7,151,1
422,411,433,66,1
51,81,107,255,1
214,409,258,167,1
264,153,693,658,1
84,126,169,84,1
172,140,47,291,1
64,56,408,209,1
334,16,374,64,1
6,139,171,126,1
318,85,377,278,1
41,213,927,329,1
497,266,585,434,1
385,350,97,449,1
136,11,698,42,1
367,328,2,98,1
195,25,191,284,1
631,139,775,338,1
126,124,543,65,1
393,104,592,179,1
393,287,345,209,1
6,48,774,349,1
72,380,824,284,1
154,130,1005,443,1
341,549,171,121,1
381,163,313,202,1
9,116,611,68,1
67,24,418,94,1
445,541,390,314,1
111,55,198,198,1
417,557,203,162,1
361,682,99,131,1
385,398,402,96,1
140,116,468,3,1
221,218,343,158,1
127,18,778,275,1
73,208,457,194,1
91,60,297,43,1
50,181,468,249,1
14,13,989,434,1
41,88,373,352,1
61,132,404,554,1
132,316,187,58,1
4,67,409,169,1
43,58,161,132,1
162,10,401,188,1
40,138,4,239,1
488,435,425,211,1
33,360,734,460,1
209,30,146,142,1
137,109,988,341,1
494,323,336,45,1
204,109,59,175,1
61,15,0,72,1
253,332,14,9,1
249,115,591,177,1
372,282,139,57,1
11,45,209,76,1
63,66,420,213,1
324,213,10,47,1
330,345,261,136,1
250,154,23,221,1
238,74,28,6,1
6,48,46,174,1
12,65,356,238,1
577,438,690,337,1
261,241,158,69,1
55,506,234,214,1
82,159,280,200,1
48,253,472,79,1
50,169,457,382,1
308,295,835,104,1
409,429,177,163,1
191,95,14,152,1
17,118,229,145,1
117,48,145,102,1
207,388,547,116,1
39,5,219,267,1
141,14,477,115,1
377,305,142,94,1
112,200,169,217,1
118,353,265,167,1
231,338,392,259,1
75,123,427,89,1
170,113,141,131,1
103,21,542,169,1
100,213,127,185,1
80,225,162,65,1
201,196,168,149,1
66,131,270,177,1
167,94,29,190,1
445,54,574,3,1
120,69,485,236,1
157,150,216,159,1
211,232,171,189,1
26,216,135,64,1
106,268,81,106,1
216,149,69,3,1
22,92,254,90,1
9,123,1023,254,1
147,98,149,48,1
64,181,29,24,1
170,64,367,138,1
131,12,300,149,1
235,142,359,376,1
239,33,255,36,1
375,409,466,162,1
92,26,47,12,1
6,36,123,70,1
22,11,12,52,1
99,12,161,13,1
143,229,654,114,1
13,16,210,143,1
399,310,17,34,1
212,167,170,398,1
21,118,412,58,1
88,96,426,191,1
170,308,304,219,1
98,19,97,44,1
286,134,172,25,1
276,261,155,39,1
174,189,61,40,1
43,8,254,229,1
52,32,21,94,1
657,649,153,71,1
213,64,70,33,1
373,388,235,211,1
332,164,246,57,1
212,9,522,36,1
99,213,82,152,1
109,129,6,76,1
60,192,53,61,1
23,136,3,60,1
61,23,93,135,1
45,151,24,124,1
33,225,269,59,1
59,130,190,40,1
27,104,88,112,1
255,238,0,6,1
125,168,140,12,1
286,176,182,33,1
32,47,258,122,1
256,213,95,46,1
320,362,602,27,1
400,233,321,11,1
700,163,58,37,1
236,35,201,124,1
60,117,52,77,1
10,40,149,148,1
242,205,276,120,1
151,180,631,232,1
13,13,1023,4,1
130,44,0,44,1
49,46,103,8,1
27,23,58,201,1
7,122,346,33,1
90,121,1,77,1
176,101,622,23,1
734,466,3,199,1
179,82,212,42,1
75,87,184,14,1
362,349,23,56,1
0,207,8,50,1
135,34,166,72,1
151,166,0,29,1
15,110,373,227,1
215,266,72,1,1
43,48,412,238,1
77,98,189,9,1
15,142,74,291,1
14,212,154,56,1
108,240,307,132,1
172,139,336,185,1
30,72,0,252,1
206,271,822,315,1
301,253,137,197,1
116,40,0,18,1
180,85,419,215,1
126,150,238,67,1
142,144,176,120,1
225,37,7,116,1
207,28,231,227,1
202,273,32,97,1
140,210,529,124,1
208,11,145,58,1
125,15,193,80,1
41,13,278,125,1
34,55,201,74,1
261,186,294,119,1
2,24,397,233,1
221,45,737,161,1
258,110,0,11,1
238,6,128,144,1
101,63,41,1,1
65,51,171,42,1
93,25,0,37,1
164,116,38,60,1
120,20,22,398,1
63,89,22,98,1
263,106,156,92,1
363,303,287,228,1
363,352,123,40,1
83,23,117,23,1
282,235,402,38,1
48,106,422,148,1
198,18,69,19,1
342,82,139,138,1
191,5,152,199,1
26,68,47,71,1
293,27,308,210,1
18,89,150,40,1
52,85,310,28,1
104,29,297,168,1
428,183,156,3,1
145,129,113,106,1
52,159,9,120,1
289,141,32,58,1
498,165,2,69,1
15,188,748,92,1
200,47,111,73,1
188,272,219,6,1
192,128,158,43,1
205,193,645,276,1
329,365,188,19,1
284,196,363,237,1
54,69,176,167,1
42,83,480,125,1
72,6,223,164,1
10,258,126,94,1
122,14,247,148,1
55,49,77,46,1
123,124,199,357,1
120,149,178,92,1
103,10,13,44,1
73,309,235,165,1
49,233,205,117,1
238,101,169,249,1
58,5,160,176,1
109,274,125,12,1
90,60,39,64,1
22,105,405,156,1
299,285,117,27,1
326,209,94,215,1
55,54,186,231,1
46,22,158,23,1
122,19,301,120,1
95,12,50,121,1
86,31,316,358,1
226,292,176,17,1
82,169,72,87,1
249,511,0,86,1
193,15,233,67,1
18,106,499,307,1
167,127,246,110,1
342,310,428,248,1
344,319,10,118,1
75,45,319,87,1
110,7,48,59,1
210,236,10,6,1
197,34,74,9,1
105,172,139,41,1
5,14,23,19,1
262,173,145,6,1
118,54,11,217,1
182,190,138,79,1
204,153,42,118,1
120,225,102,38,1
291,302,30,32,1
175,261,69,12,1
93,304,277,32,1
137,116,245,44,1
12,166,29,106,1
18,79,195,35,1
76,322,83,45,1
28,81,74,71,1
22,120,51,39,1
31,79,160,28,1
38,37,618,215,1
55,114,661,124,1
60,129,269,374,1
31,17,50,110,1
76,132,5,64,1
83,36,269,248,1
452,361,368,61,1
90,37,92,49,1
128,215,444,169,1
177,287,148,64,1
69,73,133,112,1
34,15,560,309,1
113,39,380,281,1
142,162,0,121,1
106,98,401,222,1
134,143,414,26,1
73,41,154,32,1
140,110,62,73,1
252,179,0,33,1
88,17,161,76,1
322,216,10,39,1
159,60,0,3,1
72,197,197,73,1
74,31,65,160,1
73,129,157,215,1
110,178,349,361,1
9,60,133,90,1
165,271,619,25,1
52,25,238,46,1
80,23,44,59,1
62,283,35,77,1
149,52,0,11,1
166,239,0,11,1
264,99,201,4,1
65,122,27,216,1
152,60,253,70,1
146,26,219,198,1
40,68,50,16,1
116,35,23,2,1
32,121,234,62,1
71,12,220,15,1
290,172,123,100,1
0,230,126,81,1
20,205,244,47,1
71,67,277,32,1
152,238,77,35,1
54,260,160,47,1
180,106,11,137,1
85,136,395,293,1
39,10,223,115,1
169,50,253,328,1
53,68,4,160,1
134,146,549,499,1
12,94,104,172,1
85,14,545,778,1
8,58,62,274,1
253,233,90,91,1
431,291,5,112,1
11,26,76,84,1
85,56,226,58,1
393,217,0,52,1
299,120,69,24,1
3,9,1,29,1
308,21,338,12,1
64,96,102,154,1
203,45,34,93,1
102,231,78,179,1
287,107,270,20,1
25,35,30,131,1
72,34,63,15,1
30,7,139,278,1
58,279,69,6,1
42,207,3,1,1
73,28,37,10,1
228,190,16,218,1
208,151,158,57,1
227,134,88,193,1
167,104,0,11,1
229,264,165,50,1
35,143,8,5,1
253,46,22,91,1
33,353,251,233,1
277,63,47,90,1
78,18,297,72,1
102,149,0,26,1
159,226,589,293,1
47,43,155,162,1
496,292,137,26,1
205,354,9,96,1
306,127,15,8,1
102,82,97,9,1
52,40,40,95,1
60,118,36,10,1
125,18,86,17,1
115,11,0,40,1
117,39,56,18,1
18,110,281,222,1
141,292,111,77,1
471,254,69,292,1
31,137,432,190,1
3,126,31,63,1
49,207,118,36,1
106,95,371,282,1
85,187,8,11,1
165,11,29,72,1
63,278,0,61,1
2,60,0,16,1
144,257,379,229,1
195,10,496,461,1
13,59,337,307,1
262,212,445,598,1
60,275,206,104,1
33,139,339,74,1
203,321,210,182,1
49,100,39,110,1
552,198,135,12,1
195,94,119,80,1
242,63,151,54,1
49,71,318,348,1
133,37,212,112,1
72,109,86,289,1
259,324,309,310,1
391,533,4,96,1
183,25,288,214,1
39,150,288,438,1
43,15,49,183,1
183,256,91,89,1
16,108,45,3,1
222,77,125,74,1
35,384,66,109,1
57,118,259,135,1
183,55,342,538,1
296,151,110,335,1
399,207,38,634,1
163,181,157,26,1
220,18,80,108,1
56,82,187,8,1
428,322,118,127,1
62,30,36,249,1
348,250,569,365,1
81,203,410,140,1
1,150,51,227,1
129,145,181,209,1
265,428,63,71,1
100,288,105,287,1
129,23,257,129,1
149,241,201,129,1
143,40,60,372,1
216,192,53,87,1
35,23,721,529,1
86,49,48,207,1
166,33,242,429,1
184,190,475,660,1
232,221,151,187,1
271,157,404,795,1
217,328,5,162,1
165,107,530,609,1
52,43,308,235,1
125,16,235,458,1
22,10,245,21,1
192,101,604,373,1
66,100,609,316,1
209,75,355,258,1
237,188,365,123,1
163,17,909,407,1
380,195,151,445,1
126,21,561,803,1
460,337,12,496,1
240,555,253,41,1
471,477,93,267,1
281,108,631,468,1
489,252,342,155,1
69,295,931,600,1
88,116,980,178,1
346,325,326,155,1
317,231,233,128,1
201,50,181,282,1
219,140,179,19,1
219,63,245,282,1
299,97,1004,246,1
197,349,308,143,1
267,394,104,37,1
114,90,119,143,1
598,370,81,170,1
553,55,1023,1023,1
46,240,1023,505,1
354,247,20,683,1
30,10,379,275,1
44,247,225,205,1
72,118,555,169,1
12,145,1023,910,1
65,95,167,190,1
471,371,547,375,1
282,256,1023,863,1
110,129,1023,213,1
46,214,622,567,1
669,262,218,7,1
283,205,168,320,1
190,133,478,106,1
819,446,889,145,1
583,208,350,430,1
2,12,0,48,1
58,115,148,172,1
231,153,209,293,1
101,513,14,180,1
3,24,645,169,1
794,162,664,368,1
329,232,512,70,1
39,138,575,586,1
244,154,552,225,1
338,65,325,186,1
215,32,1023,91,1
119,129,529,100,1
148,167,267,419,1
422,198,380,502,1
12,155,1023,372,1
236,73,1023,382,1
287,108,413,521,1
73,270,985,381,1
190,15,908,329,1
204,45,135,20,1
28,203,1023,564,1
55,51,35,500,1
124,143,833,309,1
177,362,1023,355,1
117,120,1023,511,1
18,142,490,255,1
230,368,950,393,1
27,16,464,150,1
86,35,1023,146,1
8,54,1023,720,1
111,335,1023,242,1
422,243,961,136,1
267,126,492,667,1
181,36,1023,972,1
9,246,550,1023,1
229,182,712,533,1
218,82,376,184,1
661,655,1023,584,1
175,16,386,126,1
82,385,256,231,1
60,20,1023,661,1
75,352,1023,442,1
136,374,351,328,1
110,77,320,68,1
72,101,609,44,1
447,273,411,9,1
122,51,633,673,1
118,162,983,329,1
215,95,0,32,1
85,6,436,16,1
183,170,484,32,1
52,87,227,89,1
12,46,279,30,1
182,275,882,448,1
0,113,705,110,1
207,74,766,391,1
77,391,457,120,1
320,170,13,381,1
10,45,278,625,1
108,15,853,12,1
159,39,140,54,1
169,176,1023,426,1
272,434,963,252,1
410,522,225,34,1
123,87,782,540,1
256,276,323,156,1
97,6,25,21,1
16,70,405,158,1
324,49,509,363,1
307,130,234,30,1
18,128,179,156,1
72,31,708,273,1
148,216,282,2,1
171,63,0,283,1
55,126,430,67,1
44,100,561,153,1
301,149,242,158,1
85,92,380,199,1
66,96,632,239,1
201,85,7,7,1
77,35,250,175,1
97,8,0,131,1
179,197,100,29,1
212,12,89,21,1
70,45,8,60,1
147,72,208,1,1
71,23,86,8,1
122,73,118,15,1
71,19,512,261,1
21,195,606,264,1
88,268,143,201,1
124,328,480,335,1
88,47,0,99,1
155,85,304,226,1
125,92,209,337,1
303,235,409,53,1
229,143,120,210,1
96,173,491,227,1
62,16,4,75,1
66,190,461,222,1
74,11,143,155,1
187,53,123,83,1
532,380,532,8,1
169,626,584,90,1
201,393,64,331,1
112,69,98,100,1
469,484,122,131,1
120,118,779,93,1
85,57,458,94,1
334,226,182,96,1
95,92,255,397,1
17,157,124,295,1
20,71,249,168,1
355,424,22,95,1
366,384,118,29,1
225,43,150,3,1
221,144,0,2,1
264,99,9,89,1
55,193,92,55,1
87,41,241,85,1
160,38,640,24,1
237,28,452,225,1
4,18,317,30,1
275,328,339,226,1
382,109,10,79,1
186,95,2,85,1
6,175,99,80,1
122,55,957,398,1
4,7,688,101,1
393,145,14,85,1
250,315,193,146,1
26,63,313,410,1
27,140,5,13,1
116,285,475,75,1
34,72,240,31,1
128,76,82,133,1
68,104,3,31,1
121,52,60,101,1
223,156,400,56,1
52,15,224,12,1
267,373,531,92,1
327,124,103,28,1
116,144,0,98,1
452,130,69,169,1
21,128,196,139,1
38,146,95,198,1
12,117,25,85,1
270,66,623,410,1
145,48,24,9,1
164,155,1,18,1
59,70,162,168,1
54,19,250,82,1
38,66,1,215,1
232,24,255,327,1
247,122,391,30,1
263,177,756,69,1
243,348,324,222,1
8,205,257,2,1
262,114,312,124,1
10,57,91,58,1
181,192,512,552,1
181,14,85,133,1
286,180,228,173,1
321,122,30,1,1
55,199,433,148,1
80,27,109,9,1
130,218,77,76,1
131,211,16,38,1
30,10,51,148,1
108,153,287,189,1
64,93,105,98,1
117,135,330,41,1
12,59,196,132,1
78,186,58,179,1
67,145,212,118,1
51,21,368,177,1
25,33,532,292,1
99,91,415,392,1
175,144,211,180,1
62,59,75,92,1
207,19,207,1,1
261,56,14,364,1
192,111,5,497,1
237,107,182,93,1
95,87,154,15,1
71,205,201,102,1
111,206,221,150,1
53,35,0,37,1
238,213,289,102,1
276,118,253,293,1
30,86,281,176,1
35,180,293,74,1
15,48,109,386,1
259,258,555,5,1
203,193,486,252,1
33,59,164,137,1
161,15,92,117,1
332,127,3,17,1
60,82,529,78,1
94,194,138,7,1
51,138,121,100,1
102,95,174,100,1
508,170,493,278,1
287,21,356,162,1
65,7,221,440,1
10,104,134,115,1
214,53,83,162,1
161,165,114,56,1
145,100,55,56,1
207,149,117,59,1
21,95,27,54,1
40,87,206,18,1
19,53,70,177,1
87,103,148,175,1
119,9,307,271,1
85,137,308,35,1
15,182,243,30,1
44,140,99,3,1
13,73,245,175,1
349,104,92,14,1
395,149,72,195,1
268,149,14,74,1
104,325,393,223,1
212,286,51,198,1
331,78,300,203,1
244,14,196,9,1
63,21,48,205,1
15,15,62,198,1
160,72,55,63,1
189,149,310,128,1
97,29,259,128,1
76,27,48,192,1
345,276,181,137,1
17,141,251,71,1
102,188,71,120,1
140,5,24,74,1
295,321,287,109,1
12,168,124,210,1
155,14,371,343,1
427,157,92,102,1
249,247,199,168,1
14,175,279,169,1
24,258,0,111,1
120,196,91,163,1
43,53,209,36,1
57,28,502,291,1
8,280,212,166,1
219,190,676,179,1
440,336,201,96,1
388,8,0,135,1
252,315,126,2,1
17,108,3,198,1
266,195,35,8,1
5,119,154,87,1
76,18,140,53,1
56,28,149,197,1
136,107,282,113,1
103,207,193,169,1
366,195,394,142,1
92,155,265,14,1
264,105,230,76,1
16,41,293,188,1
212,122,160,123,1
182,66,394,169,1
174,20,33,356,1
6,15,128,76,1
71,82,38,3,1
193,78,116,84,1
461,118,151,120,1
254,294,243,181,1
222,93,130,175,1
14,181,76,27,1
128,209,359,168,1
154,119,84,136,1
58,19,49,49,1
128,136,529,236,1
190,94,55,5,1
104,6,372,273,1
25,71,3,70,1
193,132,108,41,1
2,5,223,27,1
75,71,110,100,1
219,47,52,38,1
82,85,89,354,1
209,110,228,181,1
227,187,147,22,1
85,64,34,9,1
161,88,25,5,1
312,6,34,2,1
37,50,196,140,1
282,42,78,178,1
13,65,222,232,1
231,206,21,128,1
129,278,286,41,1
18,17,299,56,1
76,58,231,226,1
38,165,183,131,1
51,21,247,135,1
161,244,26,12,1
66,85,58,17,1
34,96,119,273,1
162,90,310,471,1
156,66,39,294,1
34,309,25,187,1
232,202,167,218,1
156,116,52,2,1
162,320,56,42,1
111,7,210,158,1
49,51,28,56,1
111,175,415,34,1
1,277,564,34,1
224,177,169,115,1
43,16,17,125,1
169,125,196,107,1
48,9,156,152,1
223,230,192,242,1
48,40,444,169,1
221,213,112,133,1
325,125,279,89,1
141,34,48,64,1
319,283,60,15,1
253,59,57,50,1
3,18,84,47,1
98,98,0,58,1
158,97,0,142,1
3,91,0,9,1
39,163,87,166,1
147,88,231,233,1
62,78,217,294,1
20,26,14,194,1
66,43,4,49,1
28,62,0,23,1
156,163,407,164,1
100,86,90,145,1
157,174,114,94,1
35,170,195,28,1
9,95,161,33,1
29,126,187,158,1
197,43,491,377,1
182,123,172,3,1
212,9,146,370,1
216,128,0,222,1
76,30,73,63,1
4,105,104,73,1
236,199,19,147,1
231,242,174,13,1
157,31,288,172,1
229,253,370,153,1
204,177,186,249,1
44,68,350,119,1
363,182,135,231,1
265,75,130,124,1
137,227,377,183,1
15,7,0,67,1
341,402,153,58,1
182,53,227,186,1
34,40,66,136,1
139,147,143,215,1
28,32,238,231,1
68,156,60,206,1
212,171,256,2,1
110,9,303,21,1
139,47,84,42,1
160,57,123,176,1
334,158,174,212,1
158,160,79,39,1
122,43,266,100,1
8,77,63,70,1
37,171,0,48,1
22,72,65,74,1
15,145,35,7,1
59,140,72,30,1
270,255,294,140,1
30,104,175,101,1
93,141,271,75,1
167,56,21,1,1
19,22,216,149,1
92,84,344,41,1
251,78,168,236,1
113,93,344,227,1
224,70,22,59,1
20,35,272,224,1
158,185,79,15,1
280,36,3,91,1
246,98,54,2,1
311,148,82,182,1
155,132,0,119,1
18,14,284,84,1
90,17,206,99,1
31,254,53,111,1
24,13,211,205,1
99,13,39,81,1
159,80,199,94,1
46,155,189,158,1
158,222,67,52,1
119,53,23,70,1
314,267,28,35,1
144,244,374,272,1
355,199,94,23,1
154,55,542,241,1
82,28,78,341,1
149,12,111,138,1
223,74,151,198,1
214,223,43,58,1
15,36,53,53,1
22,6,272,137,1
257,44,242,7,1
236,164,235,249,1
117,30,317,102,1
55,41,67,30,1
212,95,356,185,1
73,121,134,93,1
172,157,151,74,1
127,11,235,184,1
117,64,12,3,1
93,15,267,177,1
230,105,26,17,1
74,9,95,52,1
387,237,238,24,1
231,351,241,113,1
129,169,21,59,1
97,23,287,290,1
430,234,0,63,1
195,141,172,76,1
1,90,630,118,1
360,59,538,41,1
63,76,138,299,1
189,15,135,166,1
440,227,273,321,1
68,90,87,181,1
190,191,43,93,1
64,17,85,46,1
26,12,67,38,1
212,195,0,94,1
31,38,462,180,1
37,88,222,263,1
281,68,462,251,1
119,14,373,118,1
306,192,563,369,1
111,50,346,63,1
58,23,90,437,1
52,27,369,138,1
359,291,286,79,1
349,179,100,20,1
113,285,126,74,1
38,48,391,61,1
189,190,138,88,1
48,90,640,173,1
248,33,95,349,1
278,227,90,294,1
37,96,221,33,1
85,190,368,147,1
56,243,12,16,1
396,156,74,30,1
176,100,1,87,1
218,178,561,463,1
276,85,653,390,1
84,32,1023,517,1
137,241,246,445,1
158,21,337,16,1
196,273,169,192,1
455,249,211,126,1
15,7,574,526,1
236,280,748,233,1
190,389,128,292,1
321,299,368,215,1
14,63,166,62,1
101,337,175,55,1
131,83,82,223,1
219,130,70,110,1
332,125,361,787,1
102,123,101,305,1
81,52,30,478,1
41,46,666,163,1
210,97,262,250,1
7,21,968,670,1
96,102,1023,486,1
151,76,656,180,1
88,149,473,484,1
123,210,245,211,1
492,558,485,540,1
158,123,374,404,1
155,40,1023,966,1
414,197,102,161,1
66,13,337,436,1
254,479,572,404,1
24,105,166,160,1
205,148,768,232,1
154,56,342,113,1
411,529,582,197,1
89,102,217,216,1
119,203,32,8,1
207,30,39,116,1
251,49,512,257,1
162,147,141,45,1
425,206,825,332,1
151,56,1023,249,1
105,170,458,862,1
252,206,941,253,1
62,27,297,125,1
56,81,1023,411,1
290,277,711,274,1
100,175,29,354,1
15,302,475,40,1
12,151,638,303,1
460,491,543,1023,1
487,478,921,517,1
237,358,96,219,1
68,260,230,316,1
152,25,59,190,1
148,104,132,728,1
224,125,6,400,1
7,173,196,31,1
17,21,510,85,1
189,68,656,144,1
592,423,770,221,1
578,614,9,253,1
112,110,1023,90,1
134,122,286,430,1
437,319,799,681,1
255,32,240,67,1
4,147,1023,790,1
122,54,273,460,1
444,62,1023,1023,1
72,144,555,344,1
213,135,103,14,1
61,104,1006,764,1
111,74,392,24,1
162,37,854,97,1
548,277,706,51,1
58,237,1023,945,1
563,531,375,812,1
12,207,146,55,1
55,71,1023,273,1
96,55,1023,447,1
160,108,376,229,1
142,26,1023,367,1
151,10,571,137,1
63,69,269,550,1
21,284,71,596,1
258,191,1023,28,1
162,167,971,80,1
48,221,148,16,1
257,169,657,164,1
97,162,878,182,1
204,307,370,23,1
336,70,57,41,1
348,48,221,467,1
8,70,335,304,1
295,116,158,89,1
433,354,1023,604,1
34,424,771,583,1
452,362,1023,592,1
174,47,195,32,1
375,44,940,309,1
13,211,515,94,1
108,127,365,76,1
326,280,571,562,1
295,171,338,72,1
304,49,426,49,1
89,104,987,24,1
189,10,161,281,1
77,60,499,396,1
193,166,1023,524,1
9,194,978,540,1
56,17,639,459,1
163,134,331,301,1
148,75,1023,363,1
4,146,110,36,1
64,5,107,58,1
213,160,163,263,1
310,226,135,44,1
249,139,1023,701,1
265,131,341,55,1
44,406,419,197,1
292,30,652,155,1
94,157,85,52,1
139,45,393,189,1
9,18,429,159,1
75,21,470,249,1
43,24,14,100,1
18,11,569,166,1
135,65,124,212,1
212,106,742,2,1
81,21,395,157,1
1,241,46,146,1
45,266,361,317,1
508,413,23,1,1
249,208,168,158,1
23,8,414,381,1
10,186,334,159,1
307,181,402,62,1
797,513,870,223,1
261,158,465,3,1
287,117,386,197,1
3,48,694,227,1
357,25,862,363,1
30,9,487,185,1
58,85,229,44,1
151,205,334,256,1
217,176,31,70,1
27,105,399,124,1
57,145,340,251,1
161,318,316,2,1
115,36,24,32,1
119,37,556,30,1
293,208,87,148,1
19,97,652,326,1
89,186,195,106,1
51,34,20,91,1
297,254,1007,467,1
21,80,600,430,1
104,153,70,217,1
218,211,152,57,1
4,74,0,223,1
180,612,80,106,1
14,47,173,7,1
53,120,147,52,1
14,47,425,216,1
7,55,842,113,1
232,55,176,187,1
373,278,204,140,1
325,440,10,225,1
186,147,225,35,1
5,102,307,358,1
276,127,526,171,1
471,367,371,214,1
18,17,45,150,1
308,365,155,77,1
13,227,11,2,1
68,226,198,90,1
103,327,438,41,1
263,355,607,225,1
29,212,440,98,1
41,30,366,44,1
28,85,30,31,1
102,241,481,8,1
187,296,57,220,1
163,67,255,89,1
465,487,115,396,1
171,118,244,226,1
20,107,260,95,1
169,26,154,12,1
54,247,309,126,1
577,232,254,280,1
55,279,36,140,1
78,63,162,394,1
59,16,160,210,1
429,67,642,327,1
199,119,419,334,1
1,146,53,87,1
109,198,385,364,1
288,276,64,128,1
193,41,968,385,1
69,39,369,2,1
211,271,252,192,1
133,182,21,6,1
181,23,100,29,1
236,264,389,141,1
69,70,310,104,1
90,19,187,97,1
306,153,190,93,1
140,55,95,11,1
56,49,521,353,1
174,25,843,293,1
222,7,171,129,1
110,122,40,73,1
106,136,300,182,1
7,298,169,74,1
164,138,517,252,1
83,283,16,139,1
52,255,79,95,1
102,39,0,28,1
84,350,469,292,1
6,77,651,25,1
29,55,5,6,1
136,318,181,154,1
7,95,416,113,1
418,338,701,288,1
121,193,16,46,1
81,75,73,52,1
5,71,232,97,1
334,263,343,96,1
262,146,191,67,1
117,125,119,179,1
114,198,254,287,1
118,27,40,126,1
57,19,15,10,1
3,98,231,113,1
67,189,508,263,1
35,155,247,94,1
92,88,2,60,1
182,200,458,170,1
12,223,19,123,1
124,21,307,106,1
205,37,126,23,1
266,138,110,59,1
7,10,71,112,1
156,14,245,415,1
266,276,219,25,1
39,89,23,116,1
379,410,37,118,1
39,38,56,32,1
110,54,19,237,1
143,420,70,41,1
1,118,9,388,1
49,8,304,313,1
13,29,288,65,1
13,180,132,3,1
386,312,55,6,1
354,138,288,139,1
69,37,126,74,1
30,148,153,293,1
86,15,114,24,1
46,97,1,187,1
40,10,188,151,1
99,24,82,299,1
19,119,66,175,1
63,61,219,49,1
99,53,49,134,1
102,119,302,244,1
14,9,163,399,1
40,88,145,132,1
79,59,194,179,1
52,16,12,170,1
223,214,15,32,1
221,285,437,1,1
57,7,165,403,1
67,105,178,269,1
425,201,67,151,1
81,21,6,6,1
12,175,54,39,1
133,42,71,95,1
330,86,164,112,1
177,103,58,454,1
341,81,273,54,1
30,95,0,114,1
85,11,315,19,1
107,13,32,51,1
23,92,228,168,1
53,43,156,161,1
37,19,71,157,1
100,90,451,159,1
10,55,361,24,1
64,9,724,23,1
277,7,185,146,1
46,119,125,21,1
90,9,0,164,1
118,121,60,138,1
241,161,229,1,1
42,166,141,298,1
321,153,303,556,1
65,162,117,117,1
48,43,54,194,1
31,16,103,110,1
15,7,132,101,1
142,296,87,13,1
66,131,19,17,1
141,6,298,192,1
162,12,331,79,1
1,35,98,81,1
126,62,21,33,1
7,62,327,191,1
189,240,34,208,1
283,80,95,64,1
21,21,123,48,1
179,59,0,44,1
76,251,553,288,1
372,166,332,4,1
303,75,224,123,1
8,221,40,46,1
274,311,30,260,1
128,115,501,266,1
137,98,76,2,1
7,129,559,156,1
95,41,170,29,1
223,173,0,295,1
206,123,149,47,1
21,97,89,50,1
21,22,68,161,1
67,75,37,11,1
296,365,68,287,1
157,9,38,98,1
41,51,115,14,1
17,21,300,95,1
88,142,6,5,1
24,156,291,51,1
37,73,132,168,1
117,20,188,72,1
128,72,333,28,1
98,29,330,164,1
24,136,122,419,1
130,171,275,162,1
97,7,148,223,1
18,11,347,56,1
369,315,29,37,1
249,397,0,6,1
157,212,61,29,1
69,43,66,70,1
184,215,0,24,1
46,230,24,31,1
52,24,128,36,1
23,137,337,78,1
215,179,63,213,1
36,81,56,86,1
165,216,159,122,1
154,335,71,19,1
61,141,107,2,1
20,47,155,115,1
3,10,54,61,1
77,16,29,16,1
69,12,413,293,1
15,90,56,220,1
38,66,70,191,1
47,123,153,53,1
0,49,10,84,1
243,158,20,53,1
175,57,83,49,1
407,75,78,8,1
105,279,30,53,1
68,31,78,5,1
62,427,117,11,1
175,162,465,130,1
69,92,61,180,1
92,7,410,352,1
227,68,293,157,1
126,87,211,220,1
2,21,101,44,1
91,67,88,238,1
143,172,71,30,1
205,127,203,333,1
174,62,222,22,1
41,99,139,7,1
207,155,32,57,1
96,7,13,12,1
42,269,1,9,1
368,196,84,84,1
85,293,278,186,1
18,61,203,128,1
107,60,525,253,1
194,95,0,75,1
2,9,344,157,1
60,23,221,72,1
107,62,565,23,1
55,18,120,67,1
15,94,441,52,1
146,22,127,192,1
124,14,36,145,1
70,125,280,277,1
31,93,235,317,1
90,99,112,217,1
107,111,40,303,1
52,43,194,245,1
41,57,46,75,1
112,66,96,111,1
47,164,91,50,1
153,86,0,19,1
12,36,1,1,1
36,104,84,52,1
60,45,30,1,1
131,98,271,306,1
282,211,69,163,1
51,75,42,41,1
290,66,412,193,1
139,158,145,174,1
151,220,81,56,1
5,328,18,98,1
239,278,108,99,1
17,81,3,5,1
110,170,141,100,1
45,52,73,116,1
67,105,146,21,1
6,84,110,201,1
89,163,450,319,1
34,81,10,2,1
37,25,66,10,1
95,66,348,248,1
16,200,31,39,1
76,88,223,46,1
105,186,64,33,1
279,112,98,106,1
264,219,0,172,1
136,24,15,8,1
49,137,35,129,1
26,223,89,51,1
145,120,27,17,1
74,14,113,140,1
158,108,174,57,1
21,85,298,134,1
97,134,239,182,1
56,98,323,239,1
63,237,295,202,1
149,28,581,54,1
252,115,326,179,1
86,132,319,41,1
114,38,118,128,1
61,30,0,65,1
187,126,110,163,1
59,186,0,155,1
112,117,5,42,1
198,56,52,154,1
175,113,100,27,1
604,83,117,13,1
243,29,21,25,1
124,59,322,165,1
7,63,5,51,1
65,12,168,95,1
72,25,94,207,1
37,24,416,125,1
75,31,46,191,1
81,27,389,326,1
14,146,113,220,1
147,142,63,59,1
113,128,166,194,1
12,79,473,220,1
265,31,267,189,1
81,310,252,167,1
26,27,2,20,1
70,101,243,74,1
240,232,107,188,1
201,125,143,27,1
366,432,119,284,1
67,311,232,102,1
148,106,75,102,1
69,78,333,67,1
25,147,297,401,1
245,410,377,282,1
46,55,188,253,1
68,192,224,137,1
39,103,173,80,1
59,9,154,101,1
16,136,27,15,1
143,233,9,25,1
77,145,10,60,1
173,299,0,33,1
64,74,213,128,1
37,233,58,5,1
45,83,97,7,1
112,47,124,121,1
21,8,124,167,1
112,38,148,61,1
140,160,225,175,1
4,68,191,94,1
22,82,163,167,1
18,95,102,16,1
74,15,130,15,1
26,39,243,134,1
374,46,206,187,1
49,50,384,168,1
68,67,95,13,1
797,344,110,72,1
69,16,13,160,1
247,175,548,333,1
114,164,396,167,1
48,152,28,254,1
13,191,261,77,1
18,183,473,306,1
7,28,18,177,1
257,220,280,505,1
40,24,222,97,1
143,169,112,217,1
407,61,314,65,1
338,20,150,225,1
55,16,412,25,1
4,103,393,377,1
52,352,288,48,1
146,118,11,38,1
119,18,142,50,1
70,160,54,20,1
224,81,422,232,1
374,164,126,190,1
25,73,205,38,1
44,90,622,564,1
175,138,190,119,1
82,138,350,340,1
305,134,731,24,1
23,49,145,89,1
32,114,456,301,1
282,199,242,51,1
447,283,542,122,1
311,195,325,21,1
42,82,560,113,1
192,31,292,48,1
2,99,589,305,1
240,224,99,126,1
204,349,57,19,1
3,109,223,104,1
46,139,355,41,1
266,26,618,671,1
147,57,521,65,1
257,314,212,756,1
14,166,411,152,1
223,203,342,70,1
18,154,213,200,1
153,421,452,6,1
30,24,467,284,1
164,54,85,216,1
29,146,216,191,1
48,145,2,101,1
144,114,177,345,1
214,90,203,237,1
121,93,458,351,1
191,207,338,201,1
181,19,795,67,1
46,110,498,135,1
166,236,21,109,1
137,123,354,92,1
48,78,459,181,1
34,84,442,427,1
77,113,162,153,1
59,90,76,101,1
235,67,600,271,1
332,89,5,74,1
84,177,423,170,1
190,280,413,42,1
537,291,0,563,1
609,459,55,59,1
128,287,209,406,1
264,329,1023,1008,1
204,283,268,602,1
25,101,802,384,1
494,275,0,204,1
326,189,613,411,1
361,36,77,127,1
75,7,1023,731,1
110,66,517,100,1
122,146,1006,1023,1
271,169,383,157,1
40,76,792,281,1
166,51,407,115,1
36,8,410,3,1
220,255,481,318,1
494,455,136,100,1
72,28,1023,521,1
136,120,677,264,1
15,28,876,785,1
61,198,507,251,1
15,62,128,275,1
24,93,268,125,1
367,59,156,8,1
109,255,593,113,1
243,315,1023,635,1
42,42,29,587,1
108,17,1023,499,1
452,89,1023,736,1
124,144,17,63,1
251,267,29,111,1
272,217,626,160,1
941,648,660,227,1
149,28,234,221,1
283,276,667,281,1
309,204,202,238,1
46,153,144,14,1
67,41,566,138,1
13,99,553,279,1
8,25,460,174,1
208,319,801,150,1
150,49,815,463,1
228,31,300,645,1
110,64,208,149,1
18,49,893,503,1
471,225,1023,883,1
320,287,1023,915,1
64,31,257,199,1
170,119,233,83,1
461,283,245,112,1
149,288,105,228,1
559,109,144,229,1
470,71,359,176,1
452,19,409,19,1
91,11,1023,546,1
526,104,1023,461,1
433,93,124,34,1
52,17,538,804,1
270,189,745,329,1
77,52,624,538,1
124,395,633,172,1
150,73,503,253,1
150,127,6,123,1
8,136,887,389,1
159,121,58,38,1
265,594,218,144,1
656,541,764,133,1
236,340,592,20,1
198,87,678,261,1
113,148,248,164,1
183,323,620,357,1
48,21,180,110,1
99,152,127,5,1
146,326,9,22,1
29,133,138,541,1
196,143,499,118,1
103,95,1009,133,1
414,104,219,122,1
86,106,377,308,1
242,323,161,170,1
164,73,486,230,1
61,176,328,172,1
68,55,700,159,1
426,336,23,73,1
282,197,49,31,1
76,95,166,125,1
92,57,846,535,1
714,290,0,28,1
87,97,126,34,1
216,146,232,19,1
112,201,279,148,1
112,182,151,47,1
131,9,0,89,1
39,70,624,265,1
6,37,141,17,1
73,413,294,196,1
187,68,153,150,1
160,33,482,408,1
366,334,572,161,1
99,199,544,366,1
94,35,128,118,1
235,27,208,691,1
524,579,138,395,1
105,181,32,67,1
174,83,492,124,1
54,141,847,18,1
461,213,227,50,1
292,11,562,197,1
159,149,186,110,1
537,195,640,44,1
445,389,1023,338,1
142,92,257,64,1
43,11,46,18,1
360,215,75,117,1
172,472,273,107,1
63,252,198,14,1
359,286,199,171,1
606,409,18,140,1
46,203,96,7,1
26,116,389,126,1
45,95,506,360,1
417,150,339,71,1
45,22,84,154,1
501,102,94,22,1
252,99,290,165,1
5,11,567,381,1
62,43,339,101,1
9,102,97,90,1
7,84,138,18,1
117,31,0,124,1
123,18,474,209,1
108,116,300,23,1
49,172,210,606,1
89,93,352,237,1
40,149,493,171,1
226,10,592,364,1
368,153,273,228,1
62,59,133,217,1
134,327,200,263,1
38,164,704,630,1
130,231,55,26,1
262,151,377,253,1
428,90,361,151,1
82,68,224,150,1
146,44,445,17,1
35,143,53,444,1
279,242,16,42,1
284,69,0,52,1
970,629,437,131,1
24,145,296,113,1
105,122,281,69,1
180,10,102,65,1
46,74,131,26,1
104,49,196,285,1
6,78,339,573,1
287,82,951,492,1
285,132,230,268,1
25,70,29,42,1
78,10,589,171,1
6,35,35,293,1
15,73,274,14,1
96,147,126,56,1
30,60,451,418,1
20,158,31,194,1
120,85,263,406,1
181,59,407,307,1
79,200,5,84,1
157,207,337,120,1
156,17,109,352,1
27,79,164,22,1
49,50,261,196,1
183,17,139,143,1
179,119,133,5,1
90,36,240,25,1
135,243,148,512,1
75,87,43,73,1
112,65,286,156,1
58,178,203,289,1
22,97,425,423,1
298,82,319,64,1
262,211,152,380,1
18,88,82,111,1
297,68,159,7,1
78,127,10,187,1
154,13,171,107,1
34,207,205,213,1
203,134,171,12,1
140,144,27,38,1
394,265,447,143,1
7,150,93,89,1
101,105,128,155,1
76,47,54,54,1
168,121,354,426,1
118,178,195,140,1
64,169,0,51,1
170,174,2,35,1
89,50,124,26,1
61,82,70,13,1
218,27,264,38,1
130,174,148,186,1
57,87,89,14,1
288,115,147,76,1
208,73,179,11,1
96,33,374,420,1
44,119,185,97,1
16,46,690,127,1
88,89,45,17,1
64,178,522,189,1
232,62,361,16,1
299,88,49,25,1
31,35,79,5,1
125,139,66,13,1
179,60,87,1,1
126,165,201,123,1
176,70,419,11,1
83,108,37,350,1
315,240,763,449,1
84,56,656,72,1
288,111,676,52,1
323,146,165,106,1
36,23,439,233,1
105,244,153,76,1
206,15,67,5,1
182,40,149,302,1
374,271,625,61,1
92,182,269,183,1
178,210,108,62,1
45,130,48,115,1
45,133,305,6,1
135,180,452,230,1
180,88,388,29,1
109,16,445,483,1
112,109,240,135,1
49,185,90,160,1
84,124,202,108,1
230,293,209,43,1
328,368,187,49,1
86,10,158,352,1
29,128,321,183,1
35,283,25,55,1
388,151,237,9,1
43,188,34,127,1
146,54,19,68,1
151,55,14,27,1
156,58,185,118,1
293,269,352,130,1
211,57,11,215,1
233,115,395,298,1
355,150,140,32,1
16,14,2,45,1
12,103,178,79,1
366,67,6,25,1
13,129,0,8,1
320,203,114,11,1
1,39,252,49,1
151,243,221,135,1
3,146,26,202,1
31,46,215,145,1
77,75,68,61,1
58,61,41,193,1
148,191,194,4,1
223,176,1,26,1
29,64,193,45,1
142,194,169,3,1
138,20,24,51,1
279,182,50,28,1
73,73,67,109,1
137,161,37,133,1
19,21,172,92,1
128,130,45,87,1
290,311,265,76,1
170,43,49,111,1
113,236,0,20,1
83,349,38,147,1
11,15,2,123,1
15,56,646,168,1
38,24,453,102,1
123,64,53,42,1
177,128,0,3,1
91,33,53,113,1
10,29,0,2,1
81,59,114,73,1
213,225,141,136,1
15,186,73,83,1
122,11,88,101,1
97,130,106,254,1
370,216,351,264,1
144,179,176,307,1
367,253,358,186,1
344,15,12,14,1
252,74,145,60,1
41,56,3,134,1
254,192,50,2,1
158,106,255,124,1
0,74,153,219,1
40,11,425,20,1
350,300,87,48,1
37,193,20,66,1
22,51,51,240,1
259,100,123,167,1
329,386,31,205,1
376,177,130,225,1
108,512,246,8,1
171,21,483,7,1
48,10,13,25,1
37,22,0,12,1
75,51,222,123,1
52,83,419,306,1
176,240,283,326,1
54,57,356,152,1
83,93,41,20,1
52,107,85,13,1
16,62,111,188,1
14,117,107,170,1
217,341,276,97,1
123,185,17,121,1
198,83,402,532,1
26,50,134,80,1
97,25,162,44,1
281,191,198,121,1
212,91,292,191,1
13,107,49,41,1
20,110,395,282,1
306,106,147,191,1
232,202,27,90,1
294,304,30,87,1
169,173,89,75,1
194,265,366,93,1
16,40,0,122,1
42,100,188,7,1
123,159,44,129,1
49,12,108,55,1
275,40,146,97,1
190,145,21,7,1
179,60,399,277,1
148,14,134,112,1
206,258,117,29,1
229,348,7,110,1
35,24,65,14,1
55,233,547,317,1
310,13,0,82,1
5,54,748,298,1
18,27,13,25,1
3,30,282,199,1
135,73,185,178,1
23,44,17,25,1
52,38,207,11,1
1,30,91,37,1
17,81,112,68,1
256,98,172,33,1
230,178,68,1,1
67,67,300,38,1
68,51,124,21,1
201,161,178,125,1
380,236,258,273,1
143,12,225,51,1
19,25,355,414,1
173,74,173,118,1
423,139,307,424,1
151,142,5,198,1
57,29,324,14,1
84,12,251,239,1
41,161,100,27,1
78,11,356,281,1
18,144,57,179,1
233,87,172,400,1
84,204,73,137,1
53,10,95,52,1
152,234,450,59,1
140,62,302,77,1
244,135,0,96,1
229,45,56,40,1
6,52,231,256,1
67,228,32,112,1
167,114,197,123,1
98,155,29,70,1
110,43,113,67,1
50,29,48,50,1
37,86,178,47,1
154,24,0,147,1
10,107,27,61,1
46,17,143,167,1
81,138,230,34,1
114,53,536,270,1
161,98,73,80,1
71,87,157,44,1
149,83,484,174,1
103,195,170,190,1
56,115,274,285,1
483,376,55,139,1
83,40,108,188,1
205,356,381,303,1
32,26,13,54,1
77,230,407,317,1
159,110,83,85,1
15,51,419,178,1
165,111,233,173,1
157,35,567,41,1
203,299,115,219,1
109,83,47,113,1
17,16,391,102,1
96,49,101,61,1
132,159,130,158,1
41,8,0,10,1
256,189,7,81,1
171,96,461,316,1
387,369,4,116,1
215,132,122,312,1
241,13,274,128,1
153,79,143,145,1
13,170,322,90,1
58,66,172,190,1
87,89,229,73,1
185,65,285,103,1
31,39,14,2,1
51,146,37,1,1
178,103,87,57,1
141,174,124,40,1
2,56,0,15,1
395,395,237,151,1
278,268,59,65,1
6,100,243,300,1
105,70,249,68,1
11,95,294,74,1
161,72,89,96,1
1,65,92,1,1
212,27,107,16,1
159,108,1,19,1
112,255,173,84,1
8,7,297,67,1
16,37,0,4,1
205,6,60,5,1
6,7,238,183,1
186,127,275,254,1
202,70,427,373,1
161,148,190,212,1
212,86,272,148,1
62,105,254,277,1
6,111,140,66,1
119,148,559,428,1
164,228,39,181,1
89,61,168,129,1
33,126,105,108,1
71,131,227,44,1
138,20,181,73,1
8,129,19,5,1
257,144,120,62,1
221,84,53,39,1
253,150,292,218,1
73,52,90,9,1
56,170,263,295,1
23,13,79,64,1
118,48,69,495,1
64,95,87,80,1
297,201,22,9,1
230,59,36,321,1
46,75,395,312,1
131,116,98,33,1
20,76,269,152,1
78,15,192,150,1
3,101,427,299,1
278,156,418,100,1
52,195,198,22,1
499,211,74,59,1
269,72,206,24,1
169,157,532,64,1
162,196,126,16,1
176,175,83,231,1
126,50,439,252,1
121,449,291,248,1
53,105,372,40,1
204,120,331,92,1
407,343,436,877,1
477,220,37,12,1
210,101,433,695,1
275,318,37,167,1
528,233,83,113,1
346,95,7,297,1
397,210,233,1,1
41,93,439,221,1
215,99,139,307,1
386,435,272,4,1
401,231,282,243,1
34,207,76,244,1
30,28,520,285,1
11,155,467,8,1
107,83,281,316,1
47,14,411,74,1
129,28,877,692,1
317,200,475,271,1
335,155,521,847,1
342,158,117,169,1
247,214,64,112,1
239,226,326,361,1
40,73,208,349,1
120,124,575,186,1
528,456,710,15,1
55,103,207,304,1
34,101,365,257,1
205,23,299,654,1
160,28,487,263,1
268,83,79,183,1
247,538,337,13,1
19,13,81,355,1
287,294,120,559,1
126,102,453,57,1
44,131,651,437,1
568,110,1002,423,1
39,94,170,284,1
557,511,444,448,1
678,440,557,846,1
50,126,270,376,1
274,228,576,508,1
148,15,277,25,1
1023,525,637,31,1
53,64,988,760,1
146,133,1023,837,1
97,53,170,485,1
70,22,1023,445,1
178,155,401,600,1
54,231,703,319,1
185,121,354,88,1
158,325,182,182,1
23,416,47,39,1
277,307,96,186,1
135,35,285,10,1
60,9,956,716,1
401,156,33,44,1
79,25,545,377,1
759,506,672,486,1
83,142,1023,88,1
288,87,1023,586,1
39,22,5,450,1
236,172,322,42,1
318,179,202,358,1
5,12,226,619,1
22,347,256,128,1
274,360,309,173,1
163,27,79,253,1
196,229,246,486,1
244,69,44,356,1
39,56,1023,906,1
64,210,656,336,1
239,144,755,481,1
230,145,380,368,1
303,445,118,268,1
34,99,644,359,1
129,89,1000,466,1
140,359,1019,276,1
234,57,143,83,1
616,489,932,748,1
9,308,756,606,1
126,23,395,412,1
188,14,1023,419,1
151,73,119,3,1
583,83,318,27,1
14,425,198,98,1
571,195,0,18,1
150,113,144,235,1
496,522,628,158,1
429,108,868,617,1
188,284,22,206,1
564,323,1023,365,1
340,312,66,437,1
288,306,316,384,1
280,35,1023,563,1
3,155,1023,153,1
157,240,907,507,1
79,319,12,79,1
196,109,930,584,1
862,294,489,482,1
565,54,379,204,1
399,179,1023,626,1
71,152,258,637,1
484,80,1023,1023,1
319,132,1023,1023,1
374,618,988,959,1
536,175,794,272,1
197,193,520,680,1
83,14,28,228,1
62,108,356,188,1
211,109,201,135,1
27,18,1023,712,1
199,53,122,12,1
500,13,987,341,1
154,461,402,340,1
241,75,816,138,1
26,120,668,477,1
557,173,263,234,1
107,28,662,620,1
11,27,944,481,1
206,108,168,194,1
165,219,54,138,1
49,109,1023,283,1
106,145,575,416,1
85,7,496,25,1
202,362,883,461,1
560,670,49,9,1
80,204,715,173,1
248,201,371,36,1
47,87,837,465,1
62,33,1023,557,1
161,60,74,84,1
304,12,78,100,1
61,239,0,141,1
30,128,626,202,1
289,141,14,93,1
308,8,474,307,1
140,18,1010,46,1
348,41,729,583,1
340,71,335,37,1
291,50,0,80,1
116,383,239,80,1
58,346,514,247,1
249,12,71,34,1
28,21,339,13,1
996,415,11,16,1
353,307,398,158,1
321,330,235,410,1
349,330,62,231,1
178,60,183,219,1
453,378,467,252,1
111,119,975,387,1
137,133,706,119,1
342,17,229,98,1
146,145,477,28,1
57,289,75,39,1
69,8,151,147,1
104,95,261,263,1
118,190,264,408,1
194,403,190,6,1
490,640,289,247,1
310,194,908,586,1
91,51,119,79,1
156,12,394,120,1
50,120,7,165,1
80,188,331,206,1
88,132,143,4,1
109,42,293,165,1
191,138,454,157,1
161,192,77,4,1
2,151,395,46,1
31,27,47,133,1
156,39,405,120,1
146,24,81,48,1
59,7,149,213,1
196,51,408,129,1
31,15,1,36,1
147,303,415,423,1
397,350,406,192,1
189,82,727,333,1
14,196,395,52,1
16,182,41,72,1
71,151,109,93,1
168,146,88,21,1
258,351,179,140,1
106,14,174,179,1
365,252,460,114,1
2,56,462,107,1
257,155,742,32,1
93,199,56,69,1
131,122,241,210,1
253,229,490,69,1
55,230,673,359,1
119,79,317,150,1
175,6,291,60,1
98,146,432,172,1
77,39,158,4,1
162,79,404,81,1
331,200,14,88,1
457,63,298,221,1
230,79,173,34,1
97,81,172,177,1
218,58,142,105,1
151,11,12,77,1
68,143,550,234,1
5,375,199,106,1
138,322,121,588,1
199,46,92,245,1
417,356,234,318,1
301,43,20,66,1
92,164,147,14,1
16,129,105,102,1
192,36,453,356,1
214,261,8,115,1
141,238,363,254,1
219,207,8,35,1
52,60,246,267,1
13,180,167,174,1
216,9,103,77,1
205,64,0,63,1
61,111,13,83,1
56,173,266,113,1
24,112,461,70,1
68,155,187,29,1
159,308,147,264,1
25,51,352,49,1
112,43,556,152,1
156,133,105,280,1
311,83,92,368,1
94,89,45,137,1
117,119,395,207,1
245,77,404,227,1
75,332,254,12,1
549,421,252,352,1
11,139,346,536,1
45,102,22,15,1
93,159,62,17,1
22,16,410,289,1
88,26,37,177,1
322,240,263,89,1
87,106,28,112,1
56,103,38,19,1
58,68,293,246,1
61,29,89,68,1
23,42,159,54,1
86,46,94,34,1
10,152,329,86,1
17,126,467,49,1
13,27,557,136,1
73,60,310,116,1
39,140,197,5,1
63,71,53,30,1
349,320,30,206,1
108,356,204,72,1
315,187,116,53,1
1,193,291,38,1
91,45,254,547,1
92,298,499,194,1
462,344,857,343,1
338,96,223,268,1
13,255,346,11,1
154,232,123,158,1
32,84,172,3,1
327,170,10,14,1
80,156,83,52,1
61,216,503,204,1
139,73,301,104,1
315,25,183,328,1
192,85,170,19,1
203,83,115,221,1
84,107,284,308,1
239,105,667,82,1
182,174,547,275,1
22,97,119,21,1
121,25,89,175,1
164,14,245,230,1
256,115,89,98,1
213,66,181,71,1
205,119,104,297,1
54,21,200,288,1
139,31,11,25,1
189,8,272,78,1
197,27,397,260,1
157,119,304,297,1
617,299,139,244,1
330,222,761,316,1
2,173,20,20,1
159,18,465,228,1
140,170,17,18,1
64,101,235,9,1
30,139,195,120,1
339,34,70,23,1
60,16,25,57,1
45,11,133,25,1
356,376,243,122,1
309,282,167,32,1
452,235,373,16,1
285,31,653,100,1
342,235,272,95,1
355,131,12,163,1
52,25,305,284,1
531,158,125,25,1
123,227,60,11,1
105,213,3,37,1
141,35,181,141,1
55,125,165,85,1
107,37,215,25,1
221,13,456,69,1
76,142,0,30,1
205,108,104,45,1
87,143,7,111,1
260,217,125,194,1
198,47,108,178,1
222,7,165,133,1
237,136,1,409,1
602,298,7,22,1
520,103,259,342,1
183,146,86,98,1
163,50,295,203,1
16,82,416,184,1
30,31,49,52,1
21,43,251,64,1
14,138,306,189,1
73,127,284,78,1
188,113,87,19,1
167,39,96,140,1
206,112,368,90,1
234,200,26,82,1
225,127,0,27,1
114,136,479,42,1
28,21,410,114,1
68,59,19,222,1
1,85,304,310,1
304,49,41,117,1
48,7,455,392,1
59,171,274,49,1
310,283,6,28,1
242,175,146,112,1
241,250,181,213,1
260,148,239,7,1
141,15,63,4,1
107,89,76,190,1
155,77,149,204,1
5,79,310,53,1
110,131,436,92,1
57,195,83,5,1
64,107,17,5,1
510,362,145,105,1
118,302,261,72,1
78,127,228,315,1
15,112,148,315,1
4,166,102,99,1
25,89,0,50,1
109,47,134,5,1
103,133,161,178,1
204,244,127,91,1
278,97,0,98,1
63,19,322,238,1
38,98,0,114,1
248,127,81,20,1
18,77,111,68,1
35,121,125,96,1
90,19,96,39,1
268,155,32,7,1
46,121,136,45,1
15,55,314,129,1
110,34,267,28,1
31,85,143,54,1
1,93,137,49,1
231,110,5,249,1
80,174,158,4,1
146,191,83,210,1
186,13,85,95,1
196,39,184,155,1
175,51,0,27,1
16,274,163,11,1
23,110,24,15,1
141,216,30,66,1
60,61,116,68,1
160,22,36,31,1
16,33,282,37,1
122,88,345,288,1
42,388,491,251,1
212,7,23,92,1
383,139,154,179,1
323,199,78,114,1
112,130,0,66,1
105,40,304,276,1
301,222,98,70,1
187,98,142,25,1
309,67,260,13,1
18,49,140,81,1
54,81,48,113,1
22,134,157,79,1
195,276,33,125,1
225,286,110,194,1
249,68,328,399,1
425,216,260,289,1
5,51,80,24,1
144,93,395,255,1
391,231,283,148,1
4,81,236,49,1
170,12,57,85,1
77,137,321,94,1
238,143,166,213,1
10,101,0,65,1
158,18,226,77,1
124,8,112,76,1
165,159,44,3,1
88,103,139,16,1
71,227,72,8,1
125,181,139,124,1
88,66,22,66,1
83,6,24,154,1
108,21,40,19,1
98,64,107,211,1
290,23,228,171,1
249,317,220,236,1
454,421,107,123,1
167,190,39,55,1
59,109,210,53,1
52,160,118,218,1
119,283,67,91,1
37,335,150,40,1
279,114,0,9,1
85,36,119,99,1
68,19,509,155,1
9,130,72,65,1
12,25,212,112,1
40,42,144,38,1
97,265,239,169,1
165,200,388,63,1
40,100,275,270,1
55,140,442,75,1
15,31,13,64,1
198,199,79,165,1
9,76,18,5,1
32,33,72,13,1
43,138,4,20,1
226,171,18,6,1
294,208,72,60,1
274,367,176,134,1
255,334,0,58,1
564,7,0,6,1
12,104,430,124,1
6,38,990,266,1
6,211,162,7,1
3,146,371,278,1
296,131,333,324,1
40,50,45,174,1
30,41,231,47,1
199,337,171,142,1
153,132,55,13,1
1,47,14,63,1
26,25,130,7,1
109,132,57,69,1
154,82,254,149,1
15,56,137,36,1
2,176,144,191,1
94,112,0,19,1
323,179,596,362,1
24,114,16,90,1
14,208,754,457,1
15,8,24,70,1
109,42,246,87,1
98,164,54,25,1
275,83,490,225,1
201,12,248,35,1
302,42,243,273,1
89,97,0,22,1
205,259,72,68,1
240,195,143,39,1
65,124,246,126,1
202,374,133,13,1
124,22,157,95,1
37,183,181,175,1
40,93,98,51,1
126,67,351,145,1
39,156,91,79,1
118,129,0,38,1
126,38,45,162,1
12,125,48,1,1
274,217,23,58,1
87,7,15,22,1
14,51,9,3,1
163,24,3,3,1
237,245,27,25,1
96,71,10,2,1
47,100,51,15,1
95,63,12,7,1
296,256,11,12,1
53,23,372,199,1
50,115,183,56,1
71,94,462,209,1
261,9,95,101,1
171,5,204,10,1
111,200,253,217,1
148,348,16,1,1
17,41,281,212,1
131,57,0,2,1
7,7,51,41,1
113,86,230,76,1
76,157,96,116,1
314,86,10,9,1
20,19,88,105,1
251,32,146,58,1
47,32,103,3,1
156,137,157,41,1
154,73,18,205,1
21,44,33,85,1
306,178,154,70,1
196,118,142,33,1
120,155,485,249,1
298,109,94,90,1
5,8,271,144,1
109,57,85,7,1
260,158,73,114,1
74,140,209,16,1
21,62,233,191,1
69,16,103,223,1
198,29,32,119,1
164,28,321,34,1
152,131,191,106,1
215,77,355,309,1
278,85,55,113,1
51,23,91,15,1
17,277,5,85,1
76,252,414,142,1
10,27,9,195,1
185,27,334,120,1
29,171,24,179,1
391,292,471,119,1
331,181,135,89,1
20,26,319,118,1
333,293,385,217,1
397,145,145,5,1
358,240,339,228,1
51,19,321,258,1
362,230,221,16,1
580,274,127,13,1
85,17,98,39,1
83,252,843,196,1
34,11,63,518,1
387,68,625,127,1
59,339,418,439,1
8,172,12,361,1
188,46,396,72,1
464,167,231,164,1
164,202,36,81,1
15,290,152,85,1
30,262,411,55,1
176,140,250,142,1
92,54,153,191,1
151,43,163,332,1
341,286,660,296,1
300,291,448,129,1
9,51,477,615,1
303,222,693,23,1
60,53,264,982,1
254,314,1023,851,1
319,411,173,999,1
225,111,0,136,1
396,382,121,130,1
81,175,517,379,1
56,360,329,385,1
142,56,671,171,1
270,59,293,562,1
205,128,235,363,1
146,107,275,276,1
35,231,312,359,1
111,416,1023,787,1
133,206,46,446,1
20,108,433,39,1
188,35,251,519,1
180,177,803,29,1
551,441,711,49,1
270,113,104,237,1
132,53,327,134,1
166,68,563,152,1
72,332,729,441,1
390,464,421,322,1
21,475,573,403,1
207,114,627,748,1
106,170,22,266,1
590,189,804,673,1
157,434,647,181,1
71,104,989,1023,1
730,592,506,888,1
235,43,401,40,1
564,473,876,1023,1
437,396,970,187,1
79,121,728,569,1
43,207,684,15,1
127,10,125,171,1
133,173,39,167,1
175,70,519,454,1
330,153,554,152,1
231,33,142,428,1
364,89,808,703,1
281,211,445,247,1
84,245,1023,857,1
417,383,251,1010,1
748,348,470,571,1
177,270,301,626,1
656,409,499,581,1
74,71,706,29,1
317,9,951,1023,1
477,244,349,108,1
39,77,533,662,1
279,152,780,761,1
134,61,424,290,1
625,273,744,7,1
383,415,616,218,1
106,61,187,591,1
84,26,697,4,1
120,61,781,395,1
59,180,1023,618,1
10,189,1023,565,1
252,31,1023,1023,1
181,158,772,17,1
320,99,1023,682,1
200,143,58,8,1
626,466,1023,712,1
27,119,48,284,1
296,7,1023,147,1
383,110,246,77,1
386,7,77,37,1
780,305,1023,794,1
142,154,490,10,1
116,163,629,70,1
394,623,84,21,1
644,598,75,197,1
18,113,1023,756,1
729,222,89,571,1
132,17,722,309,1
4,243,1023,942,1
458,544,1023,249,1
374,363,1023,1023,1
326,447,255,240,1
13,117,1002,99,1
175,99,756,723,1
165,117,640,421,1
242,34,157,125,1
191,197,774,452,1
602,455,437,34,1
47,15,441,381,1
113,110,39,145,1
2,49,363,262,1
61,128,788,160,1
15,12,711,25,1
68,522,1023,599,1
183,58,11,35,1
24,16,1023,403,1
268,248,347,233,1
259,115,10,7,1
349,283,127,74,1
144,162,75,34,1
112,50,14,111,1
189,17,25,27,1
14,32,171,177,1
246,36,373,58,1
198,98,588,135,1
283,324,551,257,1
123,413,88,269,1
115,24,399,150,1
154,66,424,283,1
7,120,211,137,1
263,208,15,25,1
190,205,844,355,1
258,334,486,254,1
80,167,693,586,1
307,170,108,149,1
105,23,376,94,1
491,98,83,189,1
81,238,560,154,1
13,7,519,177,1
123,160,161,163,1
336,21,150,8,1
294,329,231,65,1
216,280,133,10,1
35,68,174,199,1
260,276,101,81,1
496,383,0,51,1
120,135,46,302,1
12,51,537,316,1
130,94,484,379,1
143,160,37,29,1
65,43,261,16,1
99,17,780,316,1
189,178,453,116,1
36,94,309,149,1
231,45,375,61,1
5,92,94,3,1
362,23,333,200,1
17,291,72,165,1
145,269,279,102,1
249,316,68,126,1
50,30,274,16,1
326,342,46,150,1
190,381,137,38,1
156,231,300,21,1
336,10,75,41,1
292,61,340,620,1
235,125,122,402,1
5,48,182,60,1
94,173,12,1,1
48,14,148,22,1
69,333,10,4,1
271,100,17,85,1
127,64,202,417,1
87,46,23,41,1
184,201,157,203,1
334,305,123,10,1
5,37,251,258,1
95,12,691,84,1
207,225,124,312,1
617,399,313,229,1
462,269,30,6,1
371,219,393,271,1
221,63,513,141,1
110,58,467,171,1
34,106,590,103,1
464,510,533,131,1
395,341,117,76,1
272,97,250,40,1
103,194,685,555,1
39,83,932,394,1
68,68,367,88,1
173,184,235,127,1
322,70,336,198,1
73,71,166,137,1
132,197,137,10,1
248,367,220,7,1
445,267,230,114,1
103,154,212,12,1
4,22,31,239,1
103,47,2,3,1
91,146,382,43,1
12,10,293,197,1
29,71,162,52,1
5,30,387,149,1
124,33,119,88,1
540,236,204,35,1
348,228,59,19,1
188,33,103,285,1
272,133,95,208,1
276,331,41,5,1
62,31,111,100,1
47,195,1,121,1
106,68,397,233,1
110,150,112,314,1
34,91,71,46,1
35,307,89,246,1
244,149,177,225,1
3,76,134,175,1
57,282,104,20,1
133,308,55,59,1
119,95,526,57,1
132,73,209,107,1
9,186,226,15,1
68,77,205,205,1
195,82,22,67,1
62,202,537,459,1
293,362,192,12,1
103,203,227,184,1
188,160,128,21,1
118,186,171,12,1
12,30,422,252,1
146,35,63,64,1
25,71,191,94,1
239,40,101,2,1
451,43,108,506,1
81,103,739,8,1
132,222,351,286,1
45,183,601,667,1
67,185,437,299,1
81,251,141,19,1
111,10,13,241,1
279,295,336,571,1
269,156,460,342,1
60,171,106,163,1
174,132,205,11,1
46,67,145,36,1
310,145,254,46,1
2,68,139,127,1
47,63,167,100,1
33,98,99,69,1
334,332,48,156,1
39,24,83,73,1
210,38,84,20,1
136,27,402,199,1
369,96,125,222,1
192,54,44,30,1
394,210,421,85,1
13,6,30,85,1
54,122,8,3,1
104,46,78,21,1
67,99,242,268,1
98,6,139,71,1
200,218,126,149,1
182,9,180,67,1
113,153,105,13,1
180,99,13,53,1
163,116,85,1,1
89,69,19,8,1
90,43,380,203,1
0,15,184,8,1
38,131,61,161,1
249,336,111,157,1
24,143,209,5,1
271,237,498,61,1
285,139,29,132,1
168,114,192,54,1
66,24,132,226,1
16,16,133,16,1
83,132,91,8,1
97,62,158,73,1
169,71,161,31,1
296,161,235,41,1
33,165,54,51,1
38,323,13,51,1
101,99,36,6,1
133,162,73,54,1
187,120,323,157,1
249,33,31,7,1
197,21,0,59,1
84,10,14,69,1
50,60,0,78,1
26,43,221,220,1
328,248,382,267,1
114,9,153,13,1
437,217,425,138,1
310,219,179,132,1
37,57,275,91,1
61,174,394,119,1
140,233,359,132,1
42,295,56,55,1
150,64,254,173,1
63,129,302,20,1
261,164,139,112,1
159,98,329,92,1
150,253,201,71,1
87,65,377,221,1
23,66,172,323,1
12,233,725,185,1
85,144,249,150,1
18,118,482,102,1
290,49,73,46,1
332,96,175,6,1
63,148,12,50,1
240,101,116,94,1
83,58,174,127,1
369,90,173,137,1
327,85,116,135,1
63,55,0,89,1
562,151,0,66,1
12,136,66,20,1
81,78,86,11,1
199,260,264,137,1
233,260,2,287,1
8,25,13,58,1
1,117,275,150,1
23,60,0,20,1
44,53,185,162,1
361,89,28,120,1
116,156,145,21,1
13,73,80,90,1
215,254,273,66,1
37,128,24,124,1
83,174,98,14,1
230,189,175,26,1
53,38,104,48,1
32,51,191,94,1
109,19,62,21,1
116,114,442,257,1
52,145,124,84,1
204,232,406,293,1
55,35,0,46,1
22,106,139,160,1
99,111,75,29,1
189,82,237,89,1
9,79,109,5,1
49,69,332,201,1
286,40,184,135,1
181,88,550,264,1
24,62,26,67,1
126,157,173,107,1
207,245,272,11,1
118,41,316,82,1
39,29,2,7,1
93,69,172,115,1
41,127,97,38,1
271,53,59,124,1
18,49,280,76,1
258,114,87,164,1
89,124,151,80,1
90,153,94,37,1
15,20,274,109,1
33,143,18,99,1
175,51,444,237,1
51,35,2,111,1
197,126,240,253,1
105,137,84,244,1
5,36,89,135,1
41,180,0,69,1
16,56,35,83,1
339,142,5,42,1
62,49,52,52,1
13,56,47,32,1
172,180,25,45,1
47,37,54,28,1
126,120,259,363,1
0,22,69,188,1
38,59,349,455,1
117,241,225,60,1
93,54,33,13,1
154,92,82,38,1
40,53,0,7,1
84,22,35,55,1
156,27,61,31,1
35,87,235,111,1
197,297,228,123,1
52,77,0,43,1
62,17,0,6,1
75,137,0,87,1
101,44,165,157,1
97,135,2,84,1
125,102,240,241,1
68,77,394,117,1
85,83,270,121,1
43,66,255,69,1
144,228,8,80,1
380,448,48,14,1
55,135,325,187,1
96,19,67,73,1
219,57,152,12,1
10,134,283,39,1
70,46,66,208,1
27,150,129,125,1
410,329,299,69,1
410,237,18,54,1
279,86,105,22,1
160,137,54,15,1
118,266,51,5,1
58,53,65,184,1
48,70,23,107,1
44,79,24,15,1
273,292,585,200,1
4,16,568,197,1
12,18,294,201,1
152,156,93,1,1
361,431,90,17,1
436,269,196,212,1
363,56,167,221,1
323,81,216,19,1
57,123,36,93,1
148,211,407,252,1
23,10,108,8,1
145,157,110,27,1
168,104,100,97,1
78,109,32,28,1
108,90,55,9,1
66,155,28,47,1
18,44,18,8,1
79,84,71,23,1
30,33,183,155,1
31,154,173,97,1
29,103,59,73,1
37,25,24,1,1
145,69,179,118,1
345,491,76,55,1
115,187,21,3,1
190,254,38,63,1
52,10,102,25,1
30,19,150,62,1
107,184,39,16,1
77,81,47,39,1
40,43,153,23,1
79,61,219,39,1
367,411,37,35,1
112,116,0,93,1
2,30,72,4,1
90,147,255,238,1
114,181,99,92,1
161,313,338,486,1
314,165,79,64,1
164,88,131,69,1
50,106,18,65,1
142,21,334,172,1
1,72,0,101,1
306,84,311,252,1
203,97,17,136,1
43,83,101,113,1
133,34,774,274,1
293,258,214,25,1
120,225,641,334,1
258,204,0,5,1
253,200,137,200,1
177,14,105,7,1
202,208,181,70,1
2,11,311,8,1
153,197,71,89,1
21,136,189,109,1
81,21,0,2,1
118,61,201,15,1
296,71,45,19,1
86,108,122,104,1
56,86,168,108,1
1,180,81,48,1
282,373,211,263,1
102,213,44,24,1
371,315,60,183,1
780,687,19,16,1
553,44,23,132,1
214,47,26,96,1
80,114,59,49,1
8,174,95,91,1
47,7,241,233,1
800,604,11,183,1
757,470,550,384,1
166,133,72,66,1
22,84,126,102,1
15,116,6,114,1
28,187,187,137,1
336,267,50,24,1
332,15,223,191,1
82,127,68,216,1
157,10,737,147,1
156,35,45,51,1
107,175,0,80,1
244,197,131,121,1
70,151,283,124,1
82,56,41,306,1
171,107,171,112,1
151,93,356,226,1
376,201,905,508,1
49,45,0,136,1
211,197,357,175,1
39,147,342,329,1
13,40,0,294,1
87,186,427,243,1
729,357,432,228,1
753,543,160,88,1
202,268,182,239,1
439,204,213,226,1
253,182,132,119,1
643,410,227,914,1
287,221,282,133,1
22,77,308,228,1
3,16,489,213,1
35,77,264,287,1
81,196,600,169,1
96,14,67,351,1
278,100,216,15,1
101,173,63,511,1
61,178,585,717,1
142,333,685,66,1
591,322,77,372,1
167,200,167,113,1
185,228,789,641,1
451,321,37,101,1
275,471,369,335,1
105,46,7,114,1
613,330,203,133,1
85,247,101,296,1
255,42,625,248,1
124,257,0,260,1
16,131,71,388,1
163,107,580,712,1
351,428,38,534,1
323,61,624,1023,1
116,106,423,156,1
328,97,852,202,1
169,46,110,641,1
162,44,357,200,1
251,61,294,131,1
203,392,52,253,1
216,195,589,221,1
805,556,865,72,1
519,159,411,385,1
23,96,418,509,1
509,496,43,259,1
123,302,122,283,1
332,310,431,201,1
488,194,312,170,1
60,306,290,906,1
654,170,697,678,1
128,495,1023,470,1
339,150,161,876,1
818,428,895,485,1
770,647,131,285,1
40,30,854,862,1
405,346,550,243,1
259,252,480,1023,1
155,241,100,207,1
347,59,551,227,1
310,473,618,708,1
287,263,140,393,1
331,19,233,270,1
14,183,213,419,1
19,23,251,175,1
316,276,771,940,1
407,316,945,26,1
569,595,1023,1023,1
181,49,1023,79,1
151,211,392,948,1
626,217,442,13,1
251,122,73,470,1
32,134,483,185,1
180,56,902,379,1
320,392,687,1023,1
382,239,1023,1023,1
421,79,439,177,1
539,247,564,317,1
422,404,21,31,1
97,106,323,160,1
321,253,142,397,1
199,529,663,328,1
321,42,108,190,1
485,255,949,158,1
89,123,562,267,1
431,100,330,237,1
4,156,140,146,1
217,31,469,194,1
369,88,137,373,1
700,409,1023,81,1
44,32,1023,295,1
388,309,465,96,1
172,360,1023,861,1
42,117,1023,755,1
470,302,739,1011,1
651,646,1001,713,1
194,267,564,1023,1
0,16,228,542,1
45,95,811,433,1
142,176,246,235,1
58,36,456,476,1
197,80,95,271,1
211,327,386,317,1
160,10,745,447,1
580,211,443,346,1
223,304,212,679,1
210,33,903,448,1
45,251,244,262,1
2,275,511,120,1
747,538,354,104,1
310,20,270,382,1
602,321,544,370,1
265,45,769,350,1
247,175,656,117,1
420,266,277,350,1
335,189,786,155,1
473,66,905,691,1
200,267,117,7,1
121,53,213,211,1
112,184,804,552,1
324,254,344,361,1
380,307,2,163,1
141,14,25,97,1
396,232,373,215,1
3,87,397,193,1
457,475,663,78,1
578,302,1023,226,1
36,35,572,810,1
24,162,450,163,1
137,182,384,68,1
40,68,276,122,1
340,72,85,228,1
10,335,119,31,1
46,127,239,576,1
258,151,760,202,1
281,469,1023,523,1
13,138,108,176,1
284,248,1023,183,1
43,220,487,279,1
611,87,396,192,1
289,254,573,81,1
82,119,425,135,1
464,401,677,276,1
71,11,245,31,1
53,74,9,43,1
8,68,307,60,1
293,114,8,199,1
112,27,850,182,1
244,50,924,452,1
388,11,587,260,1
142,14,1023,303,1
327,59,518,141,1
19,36,318,264,1
101,121,202,224,1
63,101,266,123,1
185,222,334,131,1
233,203,263,120,1
286,41,696,243,1
147,69,445,413,1
27,52,171,656,1
71,23,1023,381,1
202,49,148,172,1
189,230,37,318,1
569,251,129,57,1
44,7,480,173,1
82,20,628,249,1
146,107,7,150,1
196,99,741,181,1
224,45,171,15,1
3,33,466,47,1
183,35,166,135,1
9,25,154,58,1
86,280,208,67,1
141,50,396,625,1
45,59,69,43,1
49,74,395,158,1
87,99,1023,511,1
522,677,101,212,1
151,98,116,43,1
77,210,131,174,1
22,41,736,146,1
129,47,321,284,1
40,8,351,423,1
255,91,479,22,1
285,329,63,13,1
7,7,134,140,1
137,170,77,30,1
20,34,935,337,1
4,67,283,397,1
59,146,359,43,1
55,55,635,209,1
10,8,273,205,1
366,460,681,23,1
3,19,332,35,1
86,69,810,404,1
277,206,252,13,1
247,71,18,173,1
80,221,386,311,1
77,126,178,56,1
257,127,261,38,1
101,203,423,212,1
17,225,686,616,1
13,132,820,155,1
190,88,402,85,1
128,24,153,661,1
174,81,224,8,1
100,135,141,7,1
93,17,187,14,1
201,103,379,217,1
13,59,58,27,1
4,180,276,149,1
200,178,524,228,1
183,25,86,34,1
58,158,35,118,1
191,132,70,39,1
182,58,20,88,1
2,35,475,79,1
258,119,153,22,1
84,143,303,43,1
76,84,324,398,1
151,252,245,28,1
8,174,140,33,1
70,194,157,202,1
193,99,106,23,1
72,48,138,74,1
73,97,0,82,1
0,24,57,2,1
7,61,70,25,1
11,26,0,113,1
94,99,206,96,1
18,13,163,10,1
376,257,0,108,1
266,46,245,36,1
161,328,362,112,1
429,492,145,71,1
70,186,169,89,1
380,182,24,39,1
372,284,326,76,1
199,222,64,78,1
115,65,254,73,1
304,222,353,120,1
101,11,327,313,1
28,118,301,130,1
218,86,14,422,1
223,42,126,2,1
30,11,249,326,1
153,255,97,73,1
248,68,58,96,1
70,205,188,93,1
52,80,267,198,1
50,49,133,88,1
81,97,440,270,1
289,301,626,305,1
138,231,135,324,1
307,319,532,54,1
193,289,252,249,1
253,190,1023,158,1
257,258,29,152,1
147,68,131,5,1
184,106,430,310,1
29,66,8,198,1
108,66,171,93,1
77,74,0,62,1
7,38,193,334,1
26,14,86,70,1
154,129,32,153,1
95,94,105,27,1
210,181,211,280,1
25,19,276,297,1
113,28,142,75,1
138,43,253,34,1
104,87,79,67,1
37,72,207,43,1
32,42,321,203,1
43,42,407,457,1
467,389,186,80,1
716,267,469,199,1
40,106,219,169,1
105,58,194,105,1
11,189,0,39,1
76,18,14,107,1
3,37,249,30,1
285,97,99,7,1
32,28,203,197,1
136,104,247,340,1
89,144,174,160,1
42,37,11,21,1
511,266,428,258,1
93,94,123,71,1
35,18,127,80,1
173,191,59,122,1
164,209,1,51,1
250,81,69,73,1
26,19,156,103,1
331,20,292,5,1
140,63,239,241,1
115,47,141,335,1
22,229,143,258,1
133,76,31,53,1
189,79,380,9,1
258,224,39,19,1
363,285,0,10,1
656,424,116,35,1
13,41,117,106,1
226,118,0,43,1
43,52,167,4,1
220,52,62,246,1
41,194,75,192,1
120,95,262,150,1
99,38,187,45,1
28,269,15,26,1
3,63,399,253,1
69,102,27,151,1
21,51,73,112,1
66,178,182,132,1
138,251,282,145,1
247,92,324,265,1
199,127,271,353,1
210,345,38,139,1
304,12,225,59,1
78,268,236,74,1
77,99,324,302,1
17,20,138,84,1
159,124,47,54,1
130,88,56,66,1
156,131,134,39,1
252,66,96,60,1
21,32,0,55,1
53,76,105,17,1
361,205,205,43,1
414,291,15,234,1
8,52,10,47,1
287,225,178,315,1
63,89,0,145,1
86,261,248,273,1
109,15,187,118,1
306,91,265,307,1
102,113,229,187,1
19,10,1,30,1
111,163,122,110,1
407,276,91,92,1
241,39,27,86,1
125,90,16,85,1
112,107,2,51,1
186,63,0,3,1
46,157,216,11,1
21,19,51,75,1
229,239,223,43,1
329,129,506,204,1
44,27,112,59,1
22,111,281,182,1
97,102,2,57,1
424,253,87,24,1
33,80,104,39,1
184,102,270,101,1
159,26,21,96,1
81,40,27,20,1
199,212,324,18,1
92,17,22,4,1
106,131,50,100,1
368,273,161,64,1
57,71,75,68,1
83,105,8,88,1
13,70,112,101,1
180,212,4,262,1
249,12,58,223,1
129,164,196,131,1
180,250,849,429,1
181,56,167,74,1
150,187,132,9,1
57,71,135,46,1
13,138,146,55,1
123,45,446,256,1
7,11,79,28,1
14,18,168,77,1
223,117,95,7,1
98,96,95,63,1
162,27,24,148,1
79,112,0,46,1
21,141,0,72,1
96,95,397,123,1
244,255,41,25,1
171,78,788,82,1
18,54,283,9,1
3,11,21,194,1
165,119,14,214,1
102,98,142,234,1
1,9,119,65,1
84,35,148,103,1
255,63,188,9,1
105,72,144,108,1
152,209,51,95,1
94,11,0,17,1
40,15,44,12,1
8,6,292,256,1
300,150,208,165,1
346,325,41,176,1
25,7,562,393,1
111,92,9,126,1
66,35,124,174,1
151,29,597,184,1
158,14,525,67,1
4,80,372,140,1
182,161,186,60,1
118,56,97,23,1
213,149,1,53,1
224,38,123,15,1
100,70,55,6,1
140,126,215,84,1
251,191,104,6,1
115,35,0,83,1
156,19,69,2,1
195,213,38,22,1
66,18,39,119,1
97,96,58,94,1
45,52,111,67,1
37,119,90,56,1
35,120,193,47,1
37,83,148,6,1
39,182,32,336,1
347,139,85,5,1
131,17,149,42,1
110,71,245,185,1
223,131,51,37,1
206,315,0,30,1
127,199,135,134,1
20,18,203,16,1
73,125,103,13,1
9,150,241,273,1
277,16,565,209,1
30,114,18,128,1
21,38,106,84,1
103,75,214,167,1
58,84,160,130,1
42,89,65,129,1
63,38,102,165,1
15,434,113,83,1
24,152,47,24,1
267,190,63,155,1
143,36,127,129,1
207,227,239,96,1
124,46,160,20,1
127,97,180,190,1
134,129,56,102,1
35,43,344,519,1
28,51,47,116,1
80,135,607,697,1
0,57,19,19,1
355,250,216,106,1
127,39,245,159,1
151,22,23,111,1
204,226,147,61,1
8,68,57,12,1
49,173,138,68,1
189,117,87,121,1
113,15,19,75,1
103,46,97,48,1
231,243,125,11,1
162,58,77,218,1
17,117,45,112,1
310,31,260,225,1
195,206,143,149,1
210,324,332,317,1
18,154,140,179,1
70,83,208,388,1
179,322,89,4,1
32,21,28,7,1
112,54,87,100,1
186,120,36,15,1
25,43,200,138,1
227,19,179,116,1
14,38,144,71,1
239,68,170,92,1
3,13,74,2,1
214,83,70,33,1
302,16,88,56,1
56,167,54,21,1
87,54,0,18,1
25,80,39,14,1
29,87,473,392,1
86,103,34,15,1
10,48,604,499,1
104,12,78,40,1
80,28,285,118,1
314,369,179,160,1
74,150,49,354,1
72,62,154,272,1
112,114,125,317,1
75,85,30,14,1
82,124,0,96,1
181,105,62,45,1
170,14,38,3,1
141,8,13,76,1
139,37,77,49,1
48,166,17,10,1
328,290,0,2,1
190,34,115,15,1
134,291,10,15,1
62,283,210,32,1
21,37,48,99,1
125,225,94,77,1
208,111,200,105,1
320,133,99,55,1
364,129,203,174,1
148,32,44,3,1
167,177,77,39,1
161,57,125,73,1
146,41,11,11,1
83,32,142,80,1
184,91,8,3,1
37,45,15,83,1
13,98,275,219,1
181,127,103,77,1
216,16,19,118,1
19,55,233,284,1
15,106,80,96,1
377,81,138,105,1
105,137,246,88,1
104,50,31,60,1
19,13,176,66,1
57,135,96,57,1
82,63,8,36,1
154,117,19,41,1
51,53,222,149,1
260,60,269,51,1
77,151,26,79,1
416,6,0,46,1
2,82,35,30,1
79,173,541,483,1
139,157,126,164,1
157,95,226,320,1
82,195,259,416,1
291,6,51,52,1
78,12,336,181,1
2,107,424,315,1
0,135,209,416,1
23,24,167,142,1
33,21,246,421,1
57,72,117,251,1
16,201,218,57,1
97,224,219,74,1
466,179,463,538,1
144,137,40,148,1
71,80,206,521,1
11,26,251,234,1
17,110,10,238,1
72,35,163,121,1
194,96,531,173,1
153,140,124,313,1
24,104,23,75,1
329,310,491,189,1
35,126,232,364,1
68,175,0,18,1
134,144,38,257,1
125,48,39,104,1
68,51,205,48,1
127,38,176,27,1
15,15,145,32,1
7,136,277,61,1
129,141,698,772,1
107,284,491,119,1
471,352,130,655,1
241,565,326,271,1
289,110,105,167,1
221,188,678,105,1
91,38,115,211,1
18,146,434,137,1
103,47,208,591,1
291,496,126,84,1
211,27,163,180,1
71,273,35,179,1
114,77,106,261,1
254,245,535,120,1
331,180,152,39,1
276,210,253,160,1
52,113,467,387,1
43,51,186,49,1
4,87,120,480,1
93,132,155,317,1
64,36,219,35,1
141,53,302,208,1
170,300,108,374,1
58,153,557,842,1
149,136,1023,704,1
45,89,636,601,1
338,151,583,89,1
115,53,249,499,1
263,72,521,476,1
167,354,517,230,1
53,78,744,795,1
355,434,361,276,1
57,21,867,998,1
422,175,830,638,1
54,88,159,46,1
190,36,298,5,1
303,74,429,335,1
221,39,736,277,1
388,15,331,107,1
17,24,22,375,1
165,30,752,38,1
33,73,502,546,1
95,125,41,45,1
131,439,279,515,1
59,165,79,220,1
310,154,422,351,1
352,8,1023,692,1
493,64,1023,109,1
186,35,525,555,1
86,87,860,105,1
431,292,0,558,1
172,36,927,841,1
22,76,1023,478,1
30,19,256,56,1
102,10,1023,1023,1
509,276,273,197,1
535,208,526,651,1
228,92,11,39,1
287,263,77,736,1
276,170,199,522,1
184,176,336,134,1
82,14,196,480,1
12,200,433,843,1
25,51,218,530,1
327,183,99,444,1
80,19,39,93,1
286,153,412,186,1
449,249,977,177,1
74,95,274,889,1
241,169,684,1023,1
32,227,715,147,1
133,8,38,581,1
157,42,121,888,1
115,31,437,1013,1
775,605,373,722,1
252,219,848,44,1
95,56,366,212,1
156,59,1023,1023,1
204,234,966,207,1
25,166,1023,785,1
59,9,626,101,1
328,403,472,322,1
134,120,234,663,1
8,75,791,277,1
126,17,553,81,1
162,194,857,241,1
117,78,175,85,1
518,136,322,459,1
605,402,1023,814,1
109,88,369,213,1
268,78,552,759,1
3,63,903,310,1
412,322,239,158,1
98,38,304,299,1
148,169,369,127,1
29,300,1005,110,1
13,173,694,12,1
255,203,261,357,1
381,126,97,313,1
235,189,337,543,1
152,47,923,461,1
123,37,797,357,1
161,85,524,339,1
168,110,291,732,1
149,35,375,74,1
184,10,1023,455,1
406,544,21,49,1
225,43,770,380,1
176,112,1023,607,1
441,15,66,385,1
107,62,491,163,1
23,39,377,304,1
175,231,19,208,1
14,63,664,13,1
257,289,459,77,1
131,159,83,123,1
467,98,1023,344,1
74,9,1023,211,1
123,218,480,386,1
269,193,255,171,1
9,91,527,261,1
206,58,253,233,1
105,14,118,9,1
50,66,330,273,1
76,149,628,224,1
252,203,344,318,1
190,229,191,64,1
171,124,27,242,1
207,14,369,238,1
16,45,497,418,1
30,105,391,144,1
78,201,451,172,1
300,359,130,204,1
29,95,62,298,1
107,177,242,194,1
145,102,537,311,1
170,105,303,213,1
4,108,96,231,1
227,138,16,222,1
84,175,434,233,1
172,212,5,219,1
225,337,276,51,1
213,45,0,121,1
229,193,114,136,1
38,120,140,31,1
42,77,461,285,1
33,55,21,42,1
213,96,283,144,1
45,175,70,49,1
26,146,280,99,1
9,23,335,189,1
3,187,22,293,1
338,156,491,174,1
289,27,171,36,1
60,215,80,120,1
567,335,231,116,1
208,85,537,231,1
19,20,91,126,1
37,34,291,14,1
117,160,293,240,1
45,120,496,318,1
54,85,884,652,1
7,251,787,109,1
71,46,268,299,1
102,394,1023,892,1
183,243,25,73,1
498,284,481,12,1
40,45,196,174,1
145,207,355,43,1
56,31,116,39,1
126,85,15,43,1
296,95,48,374,1
299,236,326,336,1
152,296,22,21,1
177,195,700,293,1
29,97,630,72,1
231,212,201,202,1
75,176,169,30,1
162,253,300,153,1
178,317,61,122,1
78,200,65,125,1
184,230,562,309,1
121,155,230,76,1
101,60,92,70,1
109,192,177,31,1
104,42,141,35,1
107,92,131,19,1
76,11,433,216,1
8,35,169,45,1
270,210,450,92,1
201,61,410,100,1
102,84,273,154,1
14,20,44,211,1
100,36,474,210,1
48,108,91,78,1
119,238,10,126,1
169,32,468,802,1
242,19,115,156,1
109,85,231,29,1
106,14,130,31,1
2,15,179,11,1
488,150,28,172,1
233,10,286,299,1
148,115,171,179,1
47,177,263,215,1
274,56,240,134,1
464,105,276,61,1
3,94,279,78,1
434,13,357,299,1
46,338,9,75,1
98,192,507,172,1
40,271,267,7,1
147,147,664,371,1
174,76,692,249,1
24,9,96,264,1
23,108,96,280,1
8,169,206,15,1
131,113,81,15,1
277,305,11,216,1
4,109,194,37,1
271,178,483,189,1
74,109,613,161,1
152,316,357,12,1
147,127,594,227,1
419,253,422,119,1
29,15,42,13,1
205,176,487,142,1
57,131,250,81,1
254,47,158,14,1
221,85,11,101,1
127,10,14,178,1
54,45,213,111,1
15,73,48,20,1
71,180,0,61,1
27,98,243,120,1
44,34,122,79,1
195,141,536,216,1
509,195,464,16,1
183,229,510,206,1
8,59,226,67,1
139,106,80,65,1
114,171,358,336,1
271,151,81,382,1
334,322,261,29,1
26,98,60,3,1
420,241,11,60,1
6,41,368,321,1
299,150,47,52,1
391,205,65,166,1
13,94,346,43,1
188,29,18,44,1
26,23,13,20,1
56,179,40,101,1
96,221,665,174,1
149,224,407,156,1
74,34,423,442,1
108,185,23,22,1
111,7,0,48,1
75,41,452,121,1
108,15,106,136,1
282,226,481,332,1
252,212,310,296,1
45,242,502,171,1
119,78,87,242,1
278,200,126,162,1
45,113,33,15,1
306,268,114,129,2
255,115,178,124,2
40,85,250,94,2
130,141,22,7,2
346,31,84,4,2
249,236,132,99,2
68,52,78,93,2
156,167,103,30,2
180,161,0,51,2
9,28,281,142,2
90,132,390,399,2
15,43,0,143,2
114,5,236,193,2
181,46,111,4,2
330,116,92,17,2
64,57,358,57,2
276,246,375,285,2
317,269,6,45,2
228,209,136,83,2
141,44,0,1,2
185,13,0,12,2
125,66,495,292,2
70,30,138,56,2
176,94,603,255,2
74,49,283,44,2
149,106,142,62,2
94,72,84,40,2
136,198,383,139,2
223,49,247,393,2
57,39,587,565,2
12,31,12,32,2
39,86,85,144,2
325,316,220,15,2
11,15,126,216,2
94,83,432,201,2
351,239,0,152,2
129,272,0,24,2
336,205,312,125,2
95,60,21,53,2
250,55,72,84,2
99,163,120,236,2
62,44,99,64,2
158,166,101,112,2
268,103,233,124,2
297,125,142,293,2
5,24,89,320,2
298,227,140,10,2
175,8,157,114,2
34,17,160,72,2
40,63,55,38,2
28,29,14,114,2
38,9,133,179,2
105,129,0,14,2
20,125,31,24,2
34,212,47,145,2
95,35,258,109,2
154,18,179,336,2
16,134,146,223,2
215,77,351,34,2
5,9,159,219,2
167,14,223,5,2
40,107,379,170,2
41,24,150,113,2
50,114,134,93,2
31,20,332,172,2
62,21,78,138,2
73,171,197,57,2
23,144,193,179,2
51,104,48,85,2
9,80,250,49,2
114,87,87,362,2
120,163,591,179,2
143,107,483,127,2
126,181,73,131,2
137,85,233,12,2
178,76,205,26,2
30,22,15,34,2
188,29,65,71,2
330,95,185,144,2
1,146,55,77,2
159,102,0,142,2
4,53,26,92,2
179,42,57,102,2
156,133,248,286,2
48,39,24,19,2
12,22,3,318,2
172,104,150,283,2
12,62,128,8,2
201,241,19,26,2
6,39,10,94,2
5,137,161,258,2
7,163,20,59,2
24,66,0,79,2
270,225,123,105,2
65,17,55,149,2
56,24,0,143,2
28,235,241,195,2
143,116,407,11,2
7,141,254,14,2
75,160,284,246,2
362,59,482,295,2
209,15,7,75,2
81,54,235,39,2
29,13,149,135,2
1,42,1,141,2
11,139,160,144,2
103,54,60,87,2
92,120,47,58,2
74,38,225,184,2
179,80,88,47,2
117,12,75,215,2
163,83,285,120,2
220,122,209,158,2
142,104,44,283,2
174,232,60,100,2
19,137,0,140,2
460,439,112,6,2
6,138,223,134,2
118,130,267,135,2
171,147,32,102,2
20,167,49,158,2
94,282,90,44,2
220,56,8,21,2
360,227,273,107,2
16,69,2,81,2
66,72,76,110,2
57,65,118,8,2
9,97,316,476,2
58,21,14,249,2
153,75,191,241,2
95,57,54,81,2
411,85,111,47,2
29,44,188,57,2
214,171,29,20,2
218,116,93,41,2
191,251,10,61,2
98,124,161,230,2
25,46,64,89,2
30,18,253,151,2
15,10,55,19,2
130,22,261,286,2
46,11,300,4,2
225,126,138,218,2
260,37,45,19,2
179,18,83,11,2
252,159,48,3,2
116,227,83,66,2
92,190,0,85,2
180,13,29,33,2
337,143,17,74,2
404,162,110,207,2
213,162,327,30,2
182,104,432,269,2
153,82,88,5,2
34,11,0,71,2
157,175,212,138,2
18,60,285,53,2
177,93,147,140,2
201,166,145,90,2
60,90,2,17,2
128,61,47,189,2
21,34,306,73,2
54,184,49,140,2
45,63,251,161,2
276,116,20,9,2
56,90,126,126,2
119,12,154,261,2
11,23,26,52,2
116,97,164,243,2
9,48,133,28,2
150,236,30,59,2
114,8,14,100,2
181,70,140,2,2
435,171,74,90,2
8,17,201,183,2
49,25,152,180,2
50,91,239,144,2
353,146,370,22,2
165,233,25,55,2
358,153,64,119,2
164,263,133,59,2
98,226,26,8,2
95,12,21,305,2
66,99,3,8,2
185,129,193,297,2
259,152,68,29,2
257,34,267,71,2
119,130,67,75,2
106,247,179,53,2
95,131,59,82,2
61,208,124,80,2
118,109,472,185,2
319,126,43,196,2
25,150,344,343,2
5,141,320,268,2
395,351,70,6,2
168,66,195,128,2
99,62,448,307,2
225,47,433,112,2
15,26,233,212,2
66,10,0,2,2
179,212,131,93,2
106,38,247,44,2
76,137,78,71,2
240,237,93,179,2
308,53,42,121,2
173,143,2,199,2
1,21,75,262,2
126,129,182,61,2
0,60,349,77,2
786,504,263,161,2
249,120,389,207,2
19,23,211,514,2
5,12,336,61,2
101,203,165,12,2
70,220,28,224,2
416,68,0,73,2
269,18,339,446,2
181,168,37,142,2
2,79,260,333,2
103,19,191,38,2
144,24,297,75,2
101,91,436,64,2
481,396,75,689,2
194,336,122,263,2
194,19,153,774,2
27,35,40,358,2
51,199,214,431,2
166,157,121,76,2
124,203,289,35,2
372,161,52,99,2
55,62,35,191,2
309,231,270,109,2
56,39,449,307,2
10,34,278,51,2
331,177,114,256,2
26,18,196,203,2
13,157,187,428,2
44,143,291,4,2
457,414,190,542,2
171,258,177,43,2
3,283,324,232,2
162,83,376,620,2
114,185,201,309,2
45,9,188,357,2
245,8,83,205,2
52,143,400,539,2
202,22,241,233,2
211,218,301,358,2
165,20,220,708,2
361,38,47,259,2
77,20,284,28,2
307,198,33,104,2
119,9,511,181,2
81,151,146,202,2
103,304,67,113,2
157,295,391,287,2
275,228,421,436,2
81,21,260,559,2
370,193,420,815,2
160,149,127,630,2
262,147,10,59,2
53,36,145,178,2
263,8,815,727,2
450,181,407,423,2
222,12,533,792,2
136,263,354,302,2
346,224,125,91,2
258,95,226,179,2
82,129,103,227,2
40,55,514,276,2
75,108,365,188,2
50,184,1023,1023,2
122,55,347,81,2
432,474,31,715,2
67,174,167,226,2
41,61,29,644,2
217,398,97,32,2
261,290,462,169,2
262,321,1015,324,2
238,218,386,106,2
34,54,401,213,2
17,135,204,83,2
121,42,206,515,2
267,135,412,21,2
286,232,344,730,2
147,355,248,560,2
308,451,935,912,2
215,100,296,159,2
110,47,477,124,2
106,90,919,322,2
32,34,97,239,2
60,72,1001,707,2
214,187,847,568,2
90,44,510,701,2
57,50,708,87,2
303,270,748,801,2
173,176,588,249,2
54,139,48,362,2
218,138,227,558,2
51,202,53,79,2
171,19,805,326,2
17,119,1023,1023,2
175,174,898,537,2
231,384,1023,997,2
30,42,83,192,2
276,62,902,644,2
141,225,47,933,2
345,154,295,641,2
373,374,130,179,2
725,318,875,377,2
94,29,89,254,2
121,229,915,201,2
346,305,945,93,2
208,171,28,120,2
129,59,715,342,2
79,168,209,231,2
623,318,1023,1023,2
558,483,502,185,2
152,188,254,568,2
45,207,301,193,2
249,242,471,561,2
59,237,1023,519,2
5,151,52,224,2
143,426,1023,511,2
4,129,762,9,2
50,32,261,311,2
13,165,304,86,2
163,85,260,9,2
4,125,331,87,2
191,294,826,21,2
69,10,976,283,2
382,77,391,785,2
273,206,1023,394,2
173,414,608,12,2
89,93,298,264,2
71,215,357,325,2
265,26,99,240,2
445,172,1023,451,2
72,77,322,39,2
90,15,1023,349,2
464,23,486,362,2
280,39,1023,886,2
276,198,705,21,2
539,147,1023,549,2
239,165,305,103,2
8,127,1023,684,2
55,24,598,110,2
224,137,1023,448,2
238,118,153,192,2
32,124,980,125,2
125,52,165,396,2
596,455,1023,496,2
80,121,1023,557,2
51,62,1023,660,2
512,266,0,128,2
317,156,1023,611,2
866,384,352,157,2
280,68,1023,225,2
328,423,170,404,2
255,168,1023,902,2
195,329,372,113,2
137,136,576,269,2
196,71,611,90,2
0,197,1023,36,2
26,109,88,216,2
307,15,810,423,2
175,70,767,665,2
122,32,1023,608,2
34,15,2,279,2
65,248,1023,624,2
47,467,1023,614,2
37,179,667,71,2
102,210,1023,590,2
0,55,796,499,2
44,13,666,174,2
68,42,16,20,2
121,10,170,174,2
3,280,503,144,2
9,141,47,196,2
199,413,457,84,2
97,323,628,385,2
1023,566,219,110,2
151,174,107,65,2
389,160,449,47,2
208,197,87,152,2
1,59,438,220,2
106,232,778,502,2
6,111,369,5,2
273,35,167,192,2
209,160,411,158,2
282,234,137,131,2
40,109,93,30,2
227,160,102,132,2
303,262,66,56,2
172,206,55,157,2
13,29,198,57,2
143,72,242,8,2
119,70,118,74,2
40,57,129,163,2
69,57,696,393,2
239,349,779,58,2
138,183,405,124,2
207,69,917,499,2
11,99,54,35,2
508,129,647,226,2
578,251,227,53,2
95,152,180,120,2
155,109,28,78,2
33,106,178,69,2
105,223,244,207,2
365,488,504,309,2
281,243,56,274,2
11,128,209,308,2
84,216,287,195,2
152,142,136,2,2
144,106,14,155,2
102,116,49,165,2
175,63,224,18,2
11,35,71,141,2
93,188,601,40,2
302,147,1021,153,2
306,143,639,183,2
18,136,357,22,2
23,85,98,212,2
115,15,293,513,2
151,79,160,147,2
91,23,415,325,2
281,181,68,165,2
535,206,379,570,2
460,259,271,60,2
0,80,257,411,2
158,130,147,274,2
632,278,497,425,2
44,32,595,38,2
188,257,543,94,2
9,234,39,98,2
294,214,555,181,2
92,144,1,80,2
261,232,770,566,2
22,65,263,144,2
243,90,103,205,2
85,88,83,50,2
108,27,19,39,2
41,15,60,5,2
61,133,87,7,2
264,217,162,191,2
66,243,525,7,2
401,142,400,56,2
194,86,754,284,2
40,130,7,6,2
51,67,399,180,2
333,136,470,392,2
120,52,769,461,2
120,208,78,439,2
83,214,335,283,2
214,41,769,113,2
60,31,220,19,2
11,62,575,206,2
347,73,47,42,2
28,105,407,242,2
290,98,475,125,2
44,79,6,145,2
29,19,185,225,2
21,211,135,292,2
16,148,188,180,2
313,76,69,212,2
317,217,214,219,2
176,155,0,120,2
199,254,247,57,2
272,199,203,224,2
95,143,243,129,2
129,85,399,344,2
113,43,53,334,2
183,81,174,261,2
167,29,81,235,2
64,67,379,18,2
1,88,54,130,2
237,362,257,577,2
0,149,253,27,2
