Ch1,Ch2,Ch3,Ch4,label
60,210,556,375,1
126,31,23,26,1
98,257,368,257,1
18,190,227,13,1
144,106,34,0,1
168,272,397,272,1
132,22,12,0,1
141,380,43,26,1
126,288,322,106,1
1,154,212,189,1
283,152,361,319,1
10,149,577,492,1
222,12,219,47,1
35,34,644,559,1
199,29,419,238,1
57,122,240,211,1
118,237,176,124,1
116,346,127,134,1
123,138,252,180,1
124,299,256,203,1
88,280,686,520,1
87,192,620,537,1
76,234,379,396,1
163,69,246,209,1
42,239,829,686,1
40,199,484,379,1
238,113,740,583,1
70,171,744,632,1
62,121,396,341,1
104,427,234,362,1
87,29,94,28,1
70,270,24,200,1
9,246,270,270,1
119,13,477,544,1
22,231,580,444,1
83,201,723,611,1
5,115,498,406,1
171,36,356,406,1
118,16,629,506,1
249,61,38,55,1
281,66,539,351,1
94,360,97,113,1
6,265,157,66,1
62,114,665,464,1
130,347,147,189,1
121,410,593,347,1
61,58,12,26,1
196,176,28,37,1
88,19,391,276,1
61,290,126,167,1
158,447,11,240,1
324,295,60,22,1
16,186,81,14,1
225,179,282,291,1
130,502,189,351,1
416,142,314,415,1
5,409,161,359,1
263,242,329,522,1
47,45,228,176,1
114,113,177,384,1
23,38,610,481,1
201,207,364,152,1
322,365,731,700,1
18,71,97,14,1
329,285,157,345,1
71,207,121,50,1
124,102,142,185,1
54,162,54,26,1
49,15,174,231,1
115,216,124,115,1
176,158,261,227,1
53,120,36,84,1
256,46,127,61,1
2,119,267,306,1
19,291,121,67,1
189,44,20,267,1
268,149,390,178,1
84,187,283,377,1
45,22,12,108,1
224,607,54,337,1
1,459,85,165,1
139,41,91,35,1
164,558,101,21,1
112,15,255,32,1
9,315,503,139,1
150,30,66,188,1
156,148,260,39,1
272,90,408,374,1
197,100,324,295,1
19,526,167,186,1
199,327,108,212,1
79,29,190,109,1
77,131,436,467,1
111,230,93,41,1
691,634,657,541,1
352,78,21,54,1
138,221,490,561,1
20,381,233,26,1
73,201,761,742,1
101,355,119,81,1
166,396,673,714,1
37,55,247,483,1
149,159,535,431,1
415,357,432,418,1
17,98,637,566,1
80,442,689,588,1
410,317,202,57,1
212,185,449,380,1
67,103,42,233,1
65,94,105,57,1
304,87,437,513,1
102,171,417,266,1
247,26,483,386,1
56,408,76,105,1
131,209,802,530,1
277,502,951,504,1
106,203,359,585,1
20,186,140,212,1
100,25,143,483,1
179,93,340,155,1
74,328,175,462,1
222,136,467,396,1
164,514,119,163,1
219,361,247,315,1
393,533,30,20,1
136,168,214,71,1
14,245,535,486,1
168,439,539,449,1
22,45,282,384,1
235,535,750,678,1
386,46,483,54,1
403,340,290,114,1
254,27,374,673,1
10,267,143,76,1
177,123,475,594,1
182,405,184,375,1
317,302,549,632,1
189,241,287,24,1
30,150,351,553,1
29,328,629,186,1
62,353,581,764,1
345,251,71,278,1
31,362,111,150,1
104,33,21,70,1
6,189,318,0,1
11,80,693,455,1
135,91,252,173,1
502,686,668,528,1
71,297,243,358,1
71,96,80,122,1
20,14,347,521,1
378,433,313,333,1
310,103,541,804,1
156,123,312,255,1
232,558,946,1023,1
147,184,181,252,1
202,109,1010,973,1
55,116,233,354,1
107,159,518,729,1
43,8,574,317,1
126,263,902,1004,1
30,410,148,320,1
214,106,109,148,1
106,178,55,285,1
530,722,224,388,1
105,14,156,6,1
192,143,417,846,1
134,95,24,463,1
465,257,464,390,1
3,51,368,219,1
91,288,211,345,1
135,304,350,344,1
115,125,202,403,1
18,74,582,526,1
452,567,569,608,1
341,368,531,493,1
65,78,163,149,1
64,287,133,385,1
196,144,364,490,1
121,23,490,742,1
58,76,10,29,1
38,114,34,105,1
30,113,20,283,1
214,113,41,64,1
122,393,105,62,1
142,39,469,282,1
85,13,61,226,1
71,193,44,13,1
207,213,295,3,1
81,206,321,66,1
108,72,603,904,1
102,261,157,413,1
282,97,101,221,1
207,25,444,166,1
258,23,56,59,1
13,103,497,218,1
127,140,697,828,1
284,271,189,12,1
359,225,454,80,1
439,30,302,45,1
208,50,202,247,1
77,192,287,478,1
224,73,565,502,1
147,75,839,1011,1
235,288,315,483,1
122,222,117,3,1
92,20,321,262,1
78,304,375,349,1
77,17,322,222,1
215,97,548,131,1
415,83,4,134,1
53,53,326,307,1
124,233,32,0,1
7,30,152,184,1
198,57,123,221,1
37,162,205,69,1
34,139,125,30,1
7,192,117,260,1
116,96,41,60,1
140,125,73,477,1
270,64,347,357,1
79,184,146,82,1
7,110,451,396,1
253,305,266,200,1
19,199,308,318,1
59,108,181,108,1
138,208,89,42,1
119,228,55,224,1
31,64,157,255,1
55,144,99,0,1
100,49,331,271,1
11,49,95,157,1
67,193,21,98,1
77,80,21,0,1
128,59,139,62,1
283,115,91,194,1
24,152,61,320,1
69,201,153,120,1
278,332,43,0,1
51,177,282,267,1
232,135,45,63,1
107,44,308,240,1
97,260,356,406,1
30,27,287,32,1
64,143,72,110,1
302,515,172,388,1
140,53,44,13,1
86,331,87,254,1
103,181,203,73,1
230,442,78,3,1
81,32,215,245,1
21,222,438,469,1
215,17,597,526,1
127,76,368,214,1
48,136,321,319,1
226,121,16,93,1
43,95,143,335,1
234,27,45,59,1
419,381,58,122,1
245,485,451,367,1
30,222,242,374,1
27,100,263,182,1
127,389,91,241,1
31,105,138,210,1
110,146,207,0,1
112,69,205,152,1
37,296,136,174,1
18,194,284,158,1
31,7,125,235,1
111,309,338,202,1
129,90,292,213,1
184,231,13,78,1
169,419,178,455,1
21,169,281,364,1
184,389,452,440,1
201,143,185,136,1
117,100,371,338,1
131,82,121,43,1
129,165,33,11,1
170,266,123,19,1
69,8,237,151,1
24,92,20,22,1
193,7,157,205,1
37,45,40,102,1
90,351,250,275,1
32,231,170,39,1
16,190,32,38,1
3,287,50,209,1
48,6,482,442,1
40,203,65,83,1
60,274,208,231,1
33,143,133,46,1
185,366,135,14,1
153,13,100,103,1
108,138,90,33,1
49,56,98,47,1
63,120,106,0,1
113,38,210,123,1
196,177,27,95,1
2,263,124,143,1
188,35,21,93,1
44,99,101,61,1
16,193,205,139,1
266,169,2,1,1
176,283,284,212,1
42,108,68,137,1
6,48,106,207,1
138,269,233,56,1
123,27,445,352,1
282,389,242,79,1
66,206,255,344,1
106,117,282,194,1
33,72,55,65,1
0,65,170,106,1
164,479,660,530,1
60,335,366,274,1
278,355,455,301,1
2,34,455,550,1
245,7,158,41,1
334,186,30,336,1
38,114,113,49,1
127,166,149,79,1
81,142,26,0,1
142,170,260,267,1
14,221,320,242,1
40,97,47,170,1
68,191,416,352,1
105,214,38,281,1
385,298,317,140,1
218,98,85,143,1
126,15,77,175,1
226,122,178,109,1
5,31,250,289,1
26,10,256,254,1
36,139,315,278,1
3,138,52,182,1
15,17,237,227,1
138,226,106,46,1
133,182,10,16,1
133,121,10,227,1
205,72,72,203,1
204,322,145,131,1
19,299,363,379,1
86,19,89,64,1
57,402,410,369,1
28,154,158,225,1
123,279,10,1,1
19,141,107,23,1
165,195,249,187,1
149,38,123,45,1
206,18,323,344,1
172,266,287,136,1
69,164,520,380,1
181,80,54,101,1
140,105,10,42,1
147,94,50,100,1
46,47,241,126,1
60,330,233,290,1
149,281,77,199,1
68,103,391,252,1
13,117,197,345,1
181,276,147,2,1
30,80,73,238,1
27,8,54,142,1
204,21,91,1,1
214,317,373,303,1
16,149,70,5,1
42,189,249,218,1
14,108,102,70,1
135,112,84,109,1
323,163,233,211,1
92,23,278,142,1
135,127,228,177,1
35,22,93,7,1
44,311,81,188,1
225,9,30,16,1
275,341,190,76,1
44,252,199,219,1
148,80,391,261,1
321,510,159,163,1
143,54,216,201,1
289,321,103,99,1
129,6,99,180,1
93,64,250,115,1
79,38,74,264,1
7,169,43,0,1
75,27,18,73,1
370,176,214,119,1
97,176,65,60,1
107,113,138,243,1
59,69,8,148,1
12,125,82,171,1
218,95,181,6,1
120,9,11,8,1
396,27,14,16,1
239,54,58,30,1
111,240,168,78,1
82,162,27,43,1
160,205,228,75,1
20,146,103,118,1
13,253,388,327,1
83,61,25,9,1
124,422,183,184,1
318,376,30,14,1
49,201,226,260,1
30,161,5,71,1
4,84,110,93,1
9,151,160,213,1
69,30,61,179,1
16,192,357,273,1
68,98,165,289,1
136,226,267,194,1
95,86,14,64,1
68,71,244,79,1
6,264,67,37,1
73,286,24,58,1
94,24,28,0,1
20,357,223,251,1
67,97,75,10,1
57,278,20,78,1
6,186,105,194,1
79,11,102,73,1
80,197,154,185,1
23,126,244,190,1
49,219,25,92,1
93,113,2,5,1
100,27,12,31,1
181,36,122,102,1
76,80,9,114,1
9,269,142,161,1
45,144,26,135,1
186,294,73,84,1
138,84,84,121,1
130,31,28,19,1
25,279,98,144,1
60,347,106,141,1
133,305,87,53,1
190,444,97,138,1
146,157,23,42,1
89,350,99,99,1
215,60,284,282,1
110,270,136,111,1
38,262,331,304,1
10,17,163,59,1
85,384,51,150,1
211,44,492,424,1
207,300,162,99,1
2,149,192,253,1
29,92,49,35,1
33,257,31,55,1
208,18,96,123,1
95,259,70,26,1
127,105,113,135,1
98,54,71,82,1
115,359,349,371,1
98,80,166,183,1
111,263,337,323,1
63,180,1,46,1
11,66,3,19,1
7,228,33,44,1
130,367,344,379,1
53,181,7,18,1
251,479,379,377,1
71,34,56,0,1
119,331,224,267,1
328,162,328,167,1
87,7,195,147,1
4,168,378,267,1
107,163,124,61,1
182,48,128,121,1
148,33,201,248,1
14,128,121,118,1
24,174,103,142,1
50,97,89,64,1
3,224,129,167,1
213,23,40,80,1
181,59,120,118,1
254,8,541,410,1
386,490,25,122,1
398,149,318,251,1
300,43,102,141,1
134,215,223,127,1
138,102,59,158,1
100,206,456,261,1
316,153,279,181,1
237,89,633,625,1
178,266,629,370,1
162,59,223,2,1
65,42,203,122,1
221,480,103,26,1
6,230,177,137,1
122,252,135,112,1
41,197,58,12,1
88,82,130,195,1
212,430,334,312,1
238,49,178,0,1
259,368,382,376,1
122,78,280,63,1
93,72,295,184,1
7,167,20,48,1
23,185,382,349,1
216,117,133,101,1
264,7,273,342,1
108,53,202,28,1
157,71,131,266,1
298,109,216,126,1
137,57,281,137,1
279,24,25,54,1
112,151,190,239,1
84,427,1,32,1
176,25,181,42,1
243,456,402,327,1
10,233,393,358,1
211,186,39,54,1
100,340,117,178,1
218,99,257,231,1
100,151,420,250,1
250,519,412,465,1
77,41,465,513,1
203,45,545,457,1
1,194,349,387,1
124,106,249,151,1
117,189,111,175,1
75,21,143,130,1
18,299,526,231,1
323,679,73,35,1
38,111,370,233,1
256,530,144,93,1
101,31,30,164,1
146,36,20,141,1
182,67,397,439,1
93,164,145,36,1
165,63,118,50,1
41,178,482,212,1
179,141,75,145,1
2,130,268,25,1
45,200,100,150,1
110,257,135,27,1
74,104,324,255,1
132,132,32,98,1
33,31,401,390,1
5,104,37,66,1
205,49,429,167,1
87,170,96,9,1
91,294,588,385,1
166,308,372,409,1
269,274,413,183,1
4,19,376,404,1
202,95,506,285,1
15,50,313,229,1
38,193,694,624,1
132,241,284,264,1
156,544,585,528,1
147,170,831,554,1
11,431,14,121,1
308,61,795,684,1
151,20,121,56,1
82,122,331,461,1
43,71,450,199,1
143,163,236,362,1
84,56,110,10,1
59,18,120,274,1
177,20,234,63,1
145,59,122,204,1
309,750,226,298,1
67,349,83,42,1
272,210,63,240,1
344,21,122,39,1
318,267,91,262,1
207,384,103,4,1
11,51,158,140,1
400,290,10,47,1
124,210,194,21,1
213,42,468,321,1
31,10,19,151,1
326,76,650,305,1
215,59,502,563,1
250,39,815,742,1
180,127,651,489,1
46,288,956,944,1
261,15,491,543,1
203,221,309,516,1
36,256,739,650,1
176,47,29,2,1
136,385,404,213,1
314,608,456,150,1
144,71,298,277,1
181,81,12,220,1
379,425,305,190,1
91,601,139,440,1
185,31,303,138,1
79,173,421,490,1
558,413,87,127,1
69,298,111,58,1
479,17,139,251,1
223,450,475,467,1
45,271,129,0,1
91,424,27,47,1
40,96,570,322,1
26,209,266,302,1
168,256,125,184,1
187,49,54,65,1
146,107,89,285,1
337,61,220,190,1
79,80,466,648,1
391,184,334,560,1
279,294,626,596,1
470,195,463,698,1
37,62,530,436,1
445,45,901,1023,1
279,43,338,150,1
178,330,448,643,1
96,217,473,427,1
556,465,379,246,1
169,338,577,369,1
248,431,43,21,1
106,252,174,38,1
193,354,511,334,1
3,153,521,321,1
130,217,416,274,1
44,202,484,353,1
293,49,282,320,1
77,454,544,427,1
300,26,193,64,1
272,471,438,576,1
216,445,133,29,1
105,198,342,347,1
23,22,174,317,1
383,324,102,34,1
27,111,512,601,1
0,78,363,315,1
61,232,314,423,1
241,85,31,158,1
30,88,653,476,1
101,93,34,40,1
55,208,154,191,1
240,106,25,253,1
106,271,478,641,1
114,50,49,490,1
61,30,187,389,1
283,18,493,137,1
172,281,180,523,1
170,50,546,429,1
161,300,170,349,1
145,108,156,173,1
405,345,156,219,1
19,88,191,149,1
66,75,662,840,1
173,26,114,2,1
65,271,442,731,1
174,155,178,322,1
33,26,474,401,1
35,50,201,100,1
208,108,143,156,1
84,278,283,274,1
163,166,173,254,1
27,261,233,358,1
163,307,93,266,1
202,229,456,361,1
44,149,633,689,1
7,47,101,56,1
71,182,185,444,1
117,90,510,256,1
54,114,46,22,1
63,334,331,166,1
74,250,434,135,1
170,28,32,89,1
36,73,143,27,1
163,27,58,23,1
9,97,55,266,1
136,54,17,9,1
66,258,266,42,1
48,148,132,177,1
103,9,234,8,1
94,199,625,202,1
35,200,281,139,1
13,66,80,135,1
43,56,251,309,1
169,131,98,113,1
75,163,133,569,1
434,239,23,105,1
563,278,360,738,1
387,16,435,708,1
247,151,54,279,1
281,310,293,452,1
70,8,458,759,1
5,19,90,78,1
77,20,626,694,1
20,98,62,44,1
104,178,208,301,1
78,56,39,64,1
10,67,2,429,1
134,70,267,81,1
55,65,40,101,1
73,180,220,238,1
109,215,35,104,1
59,32,19,120,1
48,85,461,398,1
144,132,287,357,1
37,65,4,7,1
9,29,83,270,1
132,16,325,606,1
39,47,62,403,1
166,131,7,514,1
1,79,251,349,1
145,44,112,388,1
77,24,200,152,1
6,18,196,35,1
77,107,98,267,1
198,240,15,24,1
76,101,15,214,1
72,141,33,225,1
11,94,84,104,1
96,47,138,180,1
62,205,24,34,1
28,87,109,268,1
74,158,17,189,1
201,171,2,3,1
109,109,167,196,1
19,171,181,365,1
17,96,52,0,1
100,193,6,134,1
39,73,1,172,1
347,191,2,219,1
94,156,33,102,1
20,90,44,224,1
207,223,5,89,1
126,255,312,70,1
101,214,83,228,1
61,142,26,179,1
57,239,2,189,1
367,529,231,410,1
361,347,236,444,1
70,53,43,179,1
146,292,235,566,1
21,97,127,0,1
322,243,67,167,1
200,139,30,217,1
137,212,146,282,1
78,144,56,280,1
12,141,7,222,1
296,287,21,103,1
96,36,19,318,1
122,94,165,131,1
98,54,235,67,1
73,220,63,360,1
61,44,9,70,1
10,77,1,133,1
18,142,1,71,1
54,7,2,180,1
187,142,79,317,1
82,27,14,181,1
70,150,76,282,1
87,58,11,38,1
22,141,1,363,1
224,69,9,74,1
149,53,81,208,1
117,149,61,101,1
61,42,93,26,1
35,255,10,317,1
32,101,1,447,1
479,579,204,342,1
81,230,201,332,1
561,629,46,208,1
86,9,6,17,1
149,9,1,9,1
131,80,2,267,1
15,102,163,243,1
62,174,33,173,1
18,82,32,27,1
107,138,3,132,1
122,96,159,137,1
141,252,67,369,1
16,42,9,226,1
122,285,17,162,1
173,45,168,272,1
178,174,30,280,1
11,66,3,147,1
76,168,175,313,1
151,116,182,368,1
26,98,33,262,1
39,134,4,219,1
100,73,1,100,1
173,162,2,140,1
146,133,2,88,1
173,43,1,202,1
116,164,2,60,1
176,44,2,364,1
193,266,347,298,1
32,117,238,390,1
8,152,40,59,1
148,24,50,155,1
15,46,5,182,1
77,35,244,261,1
56,148,74,229,1
100,62,15,205,1
234,232,1,45,1
140,38,2,388,1
176,193,174,118,1
361,172,97,330,1
260,271,45,2,1
27,120,5,134,1
102,15,1,6,1
121,44,56,257,1
112,257,372,208,1
55,158,187,290,1
155,141,85,183,1
127,9,13,117,1
63,47,583,552,1
118,99,14,278,1
191,28,338,255,1
157,131,69,123,1
15,124,10,90,1
153,87,316,310,1
10,223,120,274,1
282,120,320,532,1
302,344,60,362,1
81,93,8,312,1
177,229,1,245,1
150,54,2,119,1
198,238,1,86,1
270,280,18,86,1
141,299,1,196,1
84,182,2,70,1
145,76,2,350,1
59,107,71,111,1
130,63,40,135,1
126,327,9,101,1
161,10,1,192,1
119,323,1,103,1
55,102,57,390,1
60,180,29,43,1
159,12,55,381,1
121,74,7,80,1
100,113,1,104,1
421,204,1,57,1
193,320,2,28,1
164,12,2,210,1
281,244,1,37,1
52,259,1,233,1
128,7,2,126,1
141,314,2,61,1
84,28,2,127,1
56,151,2,156,1
2,172,87,265,1
180,7,5,190,1
115,148,1,75,1
41,160,2,174,1
105,103,2,24,1
20,252,2,43,1
17,175,2,133,1
15,65,2,0,1
64,301,2,205,1
25,13,2,7,1
52,387,2,264,1
41,93,2,27,1
19,178,2,71,1
192,21,2,199,1
15,13,2,52,1
64,41,2,171,1
29,88,2,198,1
69,199,2,116,1
15,204,2,145,1
123,139,2,12,1
110,117,2,54,1
29,48,2,86,1
122,57,2,52,1
44,116,2,274,1
131,11,2,89,1
27,87,2,162,1
177,54,2,1,1
38,149,2,138,1
29,322,2,96,1
55,119,2,217,1
92,89,2,299,1
89,89,2,104,1
108,161,2,250,1
100,31,2,56,1
42,37,2,0,1
38,93,2,119,1
65,208,2,201,1
120,188,2,187,1
4,142,2,132,1
71,66,2,54,1
185,33,2,186,1
194,117,2,138,1
6,151,2,117,1
41,126,2,153,1
63,94,2,6,1
45,144,2,164,1
21,151,2,226,1
123,297,3,311,1
3,165,38,0,1
31,87,18,276,1
346,191,1,0,1
13,135,1,60,1
57,209,2,58,1
174,17,2,68,1
39,9,2,42,1
128,38,2,121,1
239,33,2,187,1
7,127,2,134,1
152,23,2,108,1
62,17,2,45,1
115,317,2,145,1
74,48,2,104,1
59,232,2,78,1
5,225,2,138,1
61,156,2,3,1
132,367,2,126,1
54,190,2,279,1
6,138,3,252,1
216,11,2,200,1
40,44,2,234,1
28,245,2,115,1
151,11,2,98,1
228,349,2,0,1
30,61,2,116,1
136,175,2,14,1
141,22,2,0,1
90,22,2,118,1
255,74,2,122,1
298,148,2,283,1
201,129,2,0,1
99,45,2,277,1
97,8,2,56,1
8,99,2,31,1
100,147,2,203,1
56,7,2,93,1
116,102,2,44,1
12,126,2,37,1
10,72,2,0,1
194,17,2,151,1
20,33,2,104,1
140,63,2,133,1
7,188,2,112,1
72,112,2,185,1
98,305,2,161,1
34,13,2,50,1
180,400,2,35,1
14,72,3,241,1
61,227,19,174,1
89,234,19,171,1
143,171,1,374,1
230,39,2,119,1
249,132,2,6,1
135,159,2,361,1
3,231,274,479,1
209,251,134,526,1
39,316,21,618,1
137,41,2,373,1
124,265,2,654,1
151,447,144,172,1
0,83,92,395,1
43,286,13,220,1
164,172,1,91,1
17,91,1,247,1
212,371,2,60,1
11,48,2,229,1
70,427,2,136,1
142,18,2,82,1
2,182,2,266,1
104,22,2,225,1
135,143,2,377,1
251,403,2,157,1
205,81,2,360,1
142,268,2,69,1
161,439,2,328,1
155,73,2,73,1
150,65,2,79,1
531,325,2,196,1
168,257,2,261,1
389,268,2,43,1
305,202,2,573,1
151,237,2,244,1
14,237,2,635,1
211,341,2,6,1
55,216,2,334,1
238,252,2,218,1
302,128,3,252,1
150,43,46,97,1
19,181,45,625,1
147,388,6,0,1
36,69,1,458,1
13,172,2,194,1
184,31,2,137,1
98,331,2,14,1
158,381,2,105,1
121,32,2,296,1
143,432,1,110,1
291,40,467,869,1
176,281,299,214,1
39,113,140,690,1
126,177,24,85,1
387,296,2,202,1
23,129,1,127,1
4,135,6,376,1
90,136,199,202,1
27,80,34,585,1
9,213,3,111,1
100,360,1,695,1
210,179,568,495,1
395,133,349,669,1
109,146,66,394,1
264,146,9,601,1
436,49,1,470,1
447,526,1,16,1
21,74,15,781,1
23,95,68,309,1
283,28,9,570,1
225,16,1,224,1
71,32,2,403,1
67,39,2,0,1
3,88,1,296,1
204,429,2,98,1
11,270,2,244,1
119,180,2,215,1
435,445,1,194,1
304,20,2,64,1
9,441,2,145,1
175,179,2,298,1
41,175,2,211,1
289,144,2,456,1
119,108,2,64,1
46,222,65,382,1
44,35,29,32,1
181,13,2,314,1
279,199,1,80,1
38,69,275,615,1
184,174,119,290,1
175,448,77,492,1
247,21,12,79,1
177,115,1,199,1
27,125,2,295,1
292,453,82,80,1
32,48,2,555,1
195,124,1,291,1
154,273,1,131,1
10,34,2,413,1
138,282,2,234,1
87,68,14,277,1
110,237,2,317,1
6,224,2,364,1
397,196,2,446,1
62,260,258,473,1
440,82,97,371,1
297,297,15,144,1
169,97,1,200,1
177,313,1,383,1
61,126,2,387,1
224,214,1,7,1
2,46,2,123,1
85,56,2,58,1
90,161,2,22,1
100,28,62,297,1
122,17,152,69,1
82,36,30,656,1
37,29,3,226,1
14,136,1,348,1
431,498,372,335,1
185,193,87,251,1
36,104,13,228,1
208,152,1,435,1
186,30,1,100,1
88,215,2,88,1
62,234,35,240,1
82,204,3,426,1
28,114,2,411,1
71,212,1,62,1
264,289,2,297,1
209,147,142,145,1
174,80,31,803,1
291,80,40,1023,1
356,243,82,347,1
170,18,145,913,1
674,450,23,232,1
11,111,2,350,1
544,413,1,66,1
40,78,105,93,1
293,324,18,305,1
23,57,1,0,1
318,171,140,502,1
144,19,95,0,1
220,47,14,3,1
182,104,1,127,1
30,106,2,274,1
107,107,2,97,1
51,13,2,219,1
93,140,2,69,1
179,209,3,781,1
217,304,113,12,1
16,123,68,824,1
7,178,10,223,1
279,26,1,456,1
561,415,1,523,1
117,445,1,131,1
95,23,2,396,1
138,285,2,118,1
284,334,2,182,1
107,194,120,512,1
321,247,22,103,1
10,45,1,309,1
265,90,1,189,1
27,57,159,459,1
8,150,50,27,1
115,56,96,692,1
386,318,15,463,1
240,430,8,42,1
289,19,1,889,1
573,446,1,331,1
110,229,1,20,1
16,151,2,95,1
4,141,2,279,1
70,19,2,43,1
235,371,2,641,1
52,30,1,267,1
72,199,112,1023,1
49,121,47,1023,1
338,310,187,41,1
49,198,36,579,1
180,49,3,422,1
18,53,1,291,1
19,172,2,37,1
131,223,2,308,1
114,31,2,601,1
176,12,29,86,1
43,291,1,858,1
119,247,1,613,1
123,90,2,0,1
109,35,2,199,1
175,265,2,440,1
108,137,2,110,1
162,41,2,467,1
441,359,2,276,1
14,139,2,256,1
19,139,2,118,1
268,79,2,199,1
50,166,2,148,1
41,70,2,86,1
27,87,3,329,1
113,191,30,161,1
82,33,3,133,1
63,130,1,90,1
193,280,2,48,1
88,276,2,503,1
13,112,2,168,1
106,20,2,457,1
3,100,2,86,1
79,23,2,197,1
95,79,2,233,1
130,19,2,66,1
10,43,2,325,1
52,65,2,110,1
68,122,2,134,1
141,239,2,464,1
66,22,2,191,1
74,129,2,316,1
199,60,3,644,1
81,25,2,628,1
179,245,2,210,1
18,123,2,484,1
154,299,2,73,1
193,411,2,260,1
43,22,2,123,1
53,94,2,262,1
108,86,2,65,1
7,54,2,211,1
50,156,2,360,1
203,31,2,490,1
32,31,2,175,1
7,97,2,336,1
227,124,2,64,1
17,36,2,114,1
141,266,2,91,1
93,140,2,53,1
171,175,2,279,1
279,69,2,293,1
122,15,2,165,1
211,167,2,20,1
57,183,2,148,1
29,298,2,0,1
33,164,2,63,1
32,163,2,148,1
58,17,2,197,1
3,181,239,933,1
251,109,234,595,1
64,224,42,484,1
226,11,5,436,1
164,134,1,232,1
12,198,2,306,1
79,78,163,761,1
236,339,187,285,1
28,82,66,569,1
250,196,9,359,1
176,429,75,388,1
8,244,25,275,1
7,44,2,69,1
121,18,1,15,1
77,21,2,53,1
75,133,2,41,1
48,161,2,65,1
97,115,2,65,1
2,270,2,80,1
48,45,2,65,1
55,125,2,18,1
16,139,2,154,1
29,34,2,233,1
21,102,167,362,1
194,305,143,370,1
22,79,128,514,1
173,27,21,308,1
66,22,111,481,1
265,125,62,125,1
100,27,94,376,1
184,233,14,2,1
46,10,1,0,1
71,88,1,225,1
448,480,110,88,1
82,28,58,189,1
37,204,97,81,1
72,169,42,3,1
200,115,94,387,1
193,26,176,341,1
43,94,37,265,1
298,244,84,382,1
52,103,28,75,1
231,190,3,5,1
151,45,4,20,1
83,51,4,201,1
117,58,1,17,1
54,167,130,336,1
112,154,243,162,1
134,84,264,801,1
236,27,50,13,1
16,129,5,435,1
334,188,126,188,1
142,191,68,127,1
70,104,82,8,1
227,188,182,322,1
154,243,31,40,1
131,340,540,436,1
93,199,77,173,1
157,249,260,249,1
220,235,49,15,1
10,139,6,114,1
45,55,37,145,1
82,33,63,31,1
52,171,34,47,1
214,160,3,75,1
14,97,119,152,1
325,197,20,65,1
213,342,1,70,1
33,89,25,75,1
10,18,3,163,1
67,17,1,100,1
8,134,2,74,1
117,35,2,94,1
60,298,2,166,1
178,264,78,37,1
114,94,14,42,1
99,30,20,57,1
53,18,13,142,1
51,67,1,8,1
12,10,67,224,1
27,192,14,86,1
206,39,115,288,1
64,231,18,105,1
265,25,1,148,1
109,112,2,160,1
69,111,2,17,1
35,89,107,55,1
111,214,21,101,1
31,109,1,172,1
39,75,1,231,1
8,282,324,390,1
2,140,199,198,1
94,213,35,262,1
222,156,3,257,1
29,98,3,50,1
197,90,1,170,1
150,62,2,207,1
61,107,176,350,1
59,83,227,53,1
26,62,268,286,1
94,238,49,285,1
129,16,3,104,1
52,110,1,378,1
14,111,1,92,1
6,95,37,87,1
349,43,3,328,1
187,75,1,195,1
89,55,2,249,1
276,71,2,164,1
286,178,2,61,1
25,46,81,252,1
118,6,56,54,1
14,101,71,124,1
98,315,9,53,1
54,13,4,0,1
191,431,4,346,1
88,45,1,41,1
110,228,1,101,1
142,305,2,0,1
5,43,2,110,1
7,152,19,217,1
94,11,5,76,1
25,74,48,260,1
25,166,5,1,1
164,216,1,11,1
56,104,2,110,1
58,117,2,111,1
98,69,2,31,1
38,120,2,222,1
138,152,2,51,1
132,27,2,266,1
241,102,98,23,1
294,364,75,105,1
49,176,11,33,1
50,65,1,55,1
75,15,109,126,1
47,161,8,24,1
56,33,47,236,1
13,178,5,101,1
35,61,1,150,1
21,101,2,223,1
34,57,2,140,1
37,44,2,19,1
88,92,2,171,1
9,57,2,54,1
114,282,2,151,1
171,319,2,151,1
99,207,2,122,1
117,101,2,84,1
4,9,2,7,1
26,222,2,117,1
236,91,2,186,1
86,204,1,85,1
65,293,2,151,1
23,38,2,0,1
1,210,2,126,1
43,67,2,37,1
88,205,3,148,1
61,232,2,85,1
30,75,2,0,1
73,286,2,94,1
92,39,2,101,1
13,116,2,71,1
268,109,2,196,1
259,215,2,27,1
74,251,2,138,1
49,123,2,132,1
196,333,2,26,1
125,70,2,207,1
108,47,2,211,1
4,171,93,230,1
295,144,27,293,1
154,278,2,100,1
118,76,1,167,1
84,92,2,7,1
82,278,1,41,1
31,115,2,106,1
241,363,1,0,1
50,100,2,88,1
201,202,2,69,1
43,260,39,256,1
168,45,3,192,1
92,255,1,117,1
36,180,2,262,1
19,23,15,24,1
6,171,10,228,1
47,226,1,3,1
7,99,1,73,1
5,212,3,57,1
230,275,1,0,1
57,169,2,66,1
111,282,2,27,1
6,126,2,48,1
9,127,2,113,1
42,89,2,0,1
52,112,2,175,1
213,51,75,241,1
110,179,14,50,1
195,395,33,374,1
16,89,3,287,1
42,233,173,350,1
288,82,115,554,1
33,29,19,177,1
303,130,1,257,1
160,129,247,167,1
45,240,68,96,1
386,208,21,5,1
131,383,61,100,1
157,327,8,123,1
227,257,1,0,1
56,81,2,99,1
211,47,11,26,1
324,398,92,99,1
356,488,147,290,1
210,257,211,224,1
66,11,65,260,1
90,40,70,167,1
317,463,46,124,1
63,162,22,89,1
6,28,8,74,1
36,252,86,27,1
171,203,13,132,1
103,179,1,2,1
383,475,28,93,1
84,269,10,15,1
149,85,1,201,1
117,32,330,363,1
85,256,396,379,1
42,365,289,252,1
74,97,198,268,1
337,268,35,28,1
25,68,216,82,1
198,137,23,102,1
245,271,14,12,1
8,82,152,361,1
385,723,25,126,1
6,253,270,605,1
426,400,281,250,1
57,175,526,500,1
78,32,197,190,1
136,176,114,22,1
271,81,332,684,1
478,388,63,120,1
84,321,746,1023,1
38,22,563,495,1
222,199,186,1023,1
196,140,107,423,1
26,153,639,718,1
64,128,69,0,1
309,150,373,400,1
147,187,71,83,1
167,193,197,234,1
197,108,55,0,1
293,436,294,155,1
81,125,76,140,1
23,209,342,255,1
56,39,131,270,1
631,540,275,367,1
95,122,51,100,1
149,126,432,415,1
408,217,302,299,1
55,38,120,196,1
145,275,69,316,1
8,259,199,16,1
154,159,320,392,1
235,87,137,178,1
321,116,357,689,1
109,155,222,1,1
309,12,104,249,1
249,134,33,71,1
92,246,555,399,1
186,205,173,42,1
162,283,374,532,1
311,143,73,26,1
93,53,339,425,1
460,239,175,13,1
97,134,89,82,1
253,241,210,108,1
65,180,71,196,1
109,10,234,532,1
398,619,86,149,1
214,86,287,517,1
198,340,84,53,1
442,85,371,377,1
297,326,96,11,1
339,17,277,491,1
12,141,98,160,1
315,63,15,170,1
172,33,356,325,1
245,43,15,77,1
286,16,177,93,1
42,113,228,96,1
172,157,477,300,1
1,20,169,158,1
38,131,123,0,1
51,186,182,325,1
13,105,33,129,1
5,123,167,131,1
193,64,290,447,1
191,284,139,264,1
167,86,146,480,1
128,80,349,370,1
275,204,102,178,1
19,169,12,238,1
114,220,117,288,1
406,88,116,118,1
293,323,62,24,1
542,213,3,32,1
221,20,202,191,1
126,87,17,97,1
93,86,292,222,1
59,22,58,187,1
38,112,282,115,1
146,197,125,387,1
67,20,87,64,1
14,309,379,606,1
115,27,20,57,1
62,135,280,452,1
34,100,244,336,1
164,195,148,62,1
295,196,98,302,1
197,142,291,37,1
328,473,92,365,1
219,295,560,467,1
101,104,38,168,1
501,434,48,340,1
17,129,11,265,1
235,250,248,364,1
79,167,121,202,1
292,113,415,664,1
443,445,103,3,1
39,159,280,445,1
424,375,505,488,1
386,480,150,270,1
104,108,279,192,1
0,126,62,52,1
288,275,291,24,1
25,137,180,89,1
61,65,328,85,1
126,381,17,31,1
75,253,370,588,1
189,103,8,106,1
425,44,313,489,1
402,144,122,0,1
279,377,29,23,1
80,97,15,22,1
135,176,207,362,1
218,308,80,169,1
219,106,131,428,1
73,105,28,410,1
371,76,311,473,1
222,112,59,164,1
85,98,98,172,1
56,110,270,59,1
185,245,111,127,1
39,227,245,183,1
16,159,210,475,1
143,15,18,357,1
12,94,230,7,1
11,118,315,1012,1
47,396,82,710,1
185,143,54,166,1
101,206,118,21,1
311,98,352,538,1
19,130,168,188,1
79,140,312,635,1
254,231,58,88,1
58,41,69,19,1
229,232,361,438,1
92,64,852,1023,1
472,524,397,378,1
108,493,503,936,1
315,272,210,245,1
229,282,564,479,1
185,224,96,28,1
225,638,160,647,1
480,200,27,618,1
290,350,63,113,1
407,71,83,270,1
494,393,32,84,1
168,379,3,77,1
194,132,368,508,1
114,71,183,434,1
1,392,30,232,1
134,137,3,92,1
125,31,79,256,1
50,22,11,71,1
145,104,7,238,1
158,362,7,172,1
160,313,667,672,1
90,69,390,686,1
153,153,75,559,1
84,266,11,53,1
83,135,1,802,1
170,124,58,33,1
17,274,52,542,1
23,278,90,357,1
47,24,98,231,1
38,163,147,135,1
170,104,34,6,1
11,110,3,229,1
18,57,1,267,1
2,25,2,58,1
219,195,2,269,1
25,31,2,316,1
9,226,2,219,1
206,297,2,7,1
12,97,2,159,1
38,172,2,136,1
119,51,2,189,1
96,242,22,278,1
41,135,169,50,1
87,185,77,201,1
51,139,125,289,1
114,59,31,121,1
133,43,28,131,1
179,477,2,131,1
138,227,1,129,1
212,314,2,25,1
4,7,2,272,1
128,318,51,76,1
32,222,6,139,1
22,53,4,65,1
62,127,30,4,1
165,60,167,542,1
83,207,29,239,1
5,184,1,600,1
245,195,1,4,1
141,59,1,259,1
57,119,194,433,1
197,52,219,178,1
42,178,44,320,1
147,342,5,189,1
78,167,1,463,1
357,213,14,133,1
220,263,45,190,1
131,53,5,142,1
174,248,1,91,1
39,261,1,122,1
187,121,3,284,1
100,341,183,441,1
395,66,223,334,1
118,173,39,271,1
161,55,4,191,1
28,31,22,62,1
44,120,2,93,1
13,62,1,0,1
10,146,232,265,1
229,73,36,385,1
144,128,3,128,1
46,178,2,259,1
42,9,29,144,1
195,14,10,379,1
268,15,1,74,1
50,123,2,83,1
182,260,2,238,1
158,222,3,190,1
212,212,1,99,1
26,21,55,25,1
71,174,6,444,1
99,30,1,116,1
31,151,2,174,1
95,171,2,45,1
82,275,2,22,1
70,135,2,130,1
319,439,2,66,1
14,63,2,139,1
171,313,3,163,1
133,331,2,326,1
55,81,2,267,1
88,50,324,471,1
257,14,135,363,1
16,97,22,224,1
122,124,2,248,1
21,32,1,75,1
30,193,2,0,1
84,293,2,229,1
50,8,2,34,1
62,240,2,359,1
286,114,2,48,1
31,134,2,362,1
69,64,2,37,1
189,178,2,73,1
73,43,2,28,1
25,108,2,0,1
90,7,2,5,1
183,54,2,29,1
33,45,53,115,1
18,110,7,298,1
94,199,1,188,1
148,286,169,281,1
163,194,15,207,1
21,44,1,88,1
56,229,2,249,1
370,545,2,146,1
22,241,2,168,1
253,359,2,244,1
67,19,2,170,1
4,125,2,336,1
38,67,2,72,1
2,156,2,277,1
32,163,2,8,1
61,142,2,151,1
151,12,92,50,1
265,146,36,255,1
2,160,3,354,1
110,163,1,334,1
82,62,10,173,1
165,224,5,404,1
203,258,1,50,1
100,31,2,92,1
31,112,2,187,1
48,55,2,164,1
1,302,2,234,1
107,41,2,360,1
99,134,2,64,1
32,288,2,144,1
177,148,2,83,1
96,273,2,171,1
19,52,2,103,1
16,201,2,380,1
77,131,2,334,1
189,247,2,43,1
23,192,2,364,1
42,30,2,183,1
11,364,2,297,1
151,384,2,211,1
87,34,2,251,1
69,54,2,56,1
35,130,2,231,1
540,304,2,170,1
18,305,2,444,1
94,69,2,70,1
167,506,2,482,1
277,100,2,190,1
114,315,2,345,1
474,204,2,244,1
224,184,2,169,1
145,32,2,23,1
255,266,2,26,1
20,73,2,88,1
238,100,2,341,1
236,241,2,57,1
82,204,2,25,1
271,223,2,47,1
31,233,2,0,1
144,47,2,369,1
255,331,2,53,1
36,209,2,279,1
4,132,2,71,1
28,244,2,160,1
130,35,2,8,1
58,212,2,275,1
112,68,2,144,1
103,68,2,2,1
89,72,2,107,1
39,121,2,202,1
223,223,2,68,1
11,176,2,63,1
51,101,2,8,1
41,177,2,56,1
116,178,2,196,1
144,282,2,0,1
43,256,2,170,1
146,140,2,11,1
21,294,2,187,1
239,137,2,61,1
190,289,2,98,1
36,170,2,102,1
84,7,2,90,1
139,292,2,191,1
132,8,2,128,1
194,287,2,62,1
60,108,2,270,1
87,189,2,37,1
191,42,2,214,1
232,23,2,144,1
3,61,2,175,1
270,90,2,233,1
145,67,2,88,1
4,191,2,38,1
8,167,2,276,1
108,105,2,0,1
80,141,2,191,1
28,88,2,47,1
17,197,2,141,1
120,105,2,243,1
180,279,2,89,1
66,231,2,150,1
6,91,2,88,1
56,188,2,205,1
8,207,2,106,1
48,22,2,41,1
65,77,2,230,1
31,10,2,25,1
131,84,2,345,1
141,58,2,106,1
207,332,2,99,1
43,155,2,0,1
60,17,2,7,1
28,254,2,16,1
111,43,2,141,1
32,56,2,108,1
30,211,2,152,1
53,165,2,41,1
7,189,2,123,1
57,97,2,234,1
78,123,2,148,1
33,227,2,125,2
33,135,2,5,2
125,68,2,256,2
12,157,2,62,2
48,133,2,130,2
251,69,2,79,2
153,128,2,103,2
177,39,2,214,2
51,43,2,27,2
89,8,2,234,2
158,87,2,174,2
72,12,2,36,2
59,140,2,230,2
16,172,2,228,2
12,34,2,4,2
1,188,2,318,2
265,185,2,123,2
4,225,2,323,2
140,8,2,240,2
25,189,2,71,2
3,175,2,0,2
51,136,2,263,2
194,64,2,59,2
58,111,2,381,2
63,14,2,0,2
126,394,2,439,2
3,148,2,47,2
30,208,3,681,2
263,114,2,115,2
149,260,2,287,2
17,225,2,105,2
1,66,2,0,2
61,204,2,309,2
103,56,2,211,2
70,108,2,81,2
116,229,2,143,2
283,221,2,10,2
93,282,2,191,2
15,260,2,301,2
24,155,2,252,2
152,471,2,196,2
19,58,2,239,2
62,297,2,81,2
273,6,2,4,2
155,135,2,22,2
172,88,2,224,2
362,316,2,15,2
112,64,2,306,2
154,221,2,104,2
179,161,2,40,2
351,84,2,115,2
404,320,2,0,2
16,327,2,18,2
76,168,2,114,2
15,146,2,7,2
60,195,2,337,2
113,12,2,160,2
67,386,2,66,2
83,143,2,322,2
210,281,2,31,2
62,390,2,277,2
72,213,2,233,2
134,104,2,148,2
72,13,2,396,2
108,20,2,77,2
29,131,2,412,2
20,28,2,62,2
46,184,2,105,2
182,242,2,249,2
190,169,2,121,2
102,282,2,233,2
402,253,2,458,2
49,104,2,60,2
131,205,2,467,2
88,240,2,50,2
129,270,2,364,2
386,82,2,17,2
118,343,2,155,2
135,163,2,311,2
89,273,2,10,2
47,154,2,452,2
59,53,2,117,2
196,480,2,189,2
78,368,2,87,2
78,79,2,1,2
84,184,2,23,2
109,83,2,214,2
105,192,2,170,2
8,87,2,261,2
52,25,2,267,2
221,248,2,158,2
81,39,2,173,2
35,188,2,81,2
111,245,2,194,2
111,110,2,193,2
111,27,2,0,2
95,168,2,113,2
268,622,2,25,2
28,102,2,140,2
68,103,2,103,2
35,223,2,141,2
321,476,2,156,2
88,305,2,168,2
46,136,2,121,2
207,236,2,190,2
222,240,2,197,2
62,289,2,119,2
142,250,2,353,2
19,101,2,93,2
166,273,2,184,2
76,247,2,183,2
6,46,2,460,2
58,538,2,269,2
503,120,2,484,2
386,382,2,297,2
346,46,2,190,2
94,220,2,237,2
30,16,2,21,2
199,66,2,560,2
84,126,2,15,2
35,15,2,84,2
373,170,2,62,2
631,282,2,260,2
50,210,1,88,2
42,48,2,76,2
81,99,2,46,2
39,32,2,368,2
106,218,2,0,2
349,268,2,278,2
351,8,2,29,2
10,134,2,364,2
202,62,2,178,2
355,585,2,49,2
125,344,2,342,2
207,380,2,186,2
333,29,2,504,2
150,146,2,190,2
10,177,2,423,2
143,329,2,224,2
42,188,2,139,2
195,658,2,382,2
195,27,2,443,2
97,329,2,446,2
92,64,3,631,2
216,247,2,272,2
21,183,2,563,2
29,143,2,269,2
428,26,3,727,2
164,63,2,151,2
12,250,2,476,2
166,13,2,58,2
266,241,2,432,2
38,263,2,394,2
61,290,2,173,2
3,74,2,0,2
3,73,2,159,2
8,43,2,232,2
151,258,2,585,2
3,91,2,36,2
126,9,2,381,2
134,109,2,145,2
14,137,2,189,2
12,383,2,117,2
19,211,2,611,2
13,24,2,203,2
25,327,1,198,2
108,99,2,426,2
125,411,2,392,2
125,375,2,13,2
147,55,2,0,2
184,200,2,37,2
9,65,2,254,2
25,148,2,238,2
37,167,2,17,2
127,55,2,347,2
68,242,2,340,2
14,267,2,260,2
31,129,2,264,2
468,245,2,411,2
87,26,2,223,2
102,188,2,502,2
250,285,2,184,2
418,107,3,973,2
560,482,2,338,2
102,100,2,723,2
151,46,1,603,2
382,185,1,849,2
133,224,1,84,2
262,165,2,18,2
144,71,2,478,2
92,255,2,36,2
141,286,2,666,2
307,251,2,414,2
40,299,327,1023,2
165,193,28,111,2
20,349,2,796,2
116,147,1,65,2
165,729,2,87,2
55,189,2,152,2
106,109,2,125,2
124,15,2,242,2
106,28,2,126,2
196,431,2,176,2
340,46,2,144,2
578,262,2,340,2
101,169,2,354,2
96,33,2,38,2
250,56,2,0,2
289,87,2,373,2
313,292,3,786,2
243,258,2,184,2
140,108,2,396,2
79,76,2,221,2
31,73,2,84,2
92,11,3,276,2
261,228,2,647,2
376,55,2,18,2
323,290,2,185,2
115,295,2,183,2
9,183,2,179,2
15,19,2,738,2
200,252,2,151,2
34,105,2,229,2
39,227,2,108,2
156,101,2,650,2
148,226,2,546,2
48,231,2,258,2
148,74,77,667,2
283,17,24,823,2
187,29,2,59,2
61,80,2,81,2
70,8,40,942,2
211,379,322,1023,2
200,309,346,435,2
4,13,82,907,2
261,466,263,270,2
140,174,63,828,2
360,272,7,613,2
378,425,1,724,2
314,240,2,146,2
84,145,2,640,2
255,209,2,75,2
33,270,3,544,2
38,84,2,263,2
44,54,618,1023,2
513,444,166,1023,2
534,486,381,665,2
61,152,98,515,2
184,258,13,656,2
213,213,1,145,2
27,241,2,569,2
158,7,2,129,2
268,435,2,369,2
151,300,2,77,2
104,70,2,4,2
91,258,2,363,2
45,17,2,41,2
192,20,2,474,2
245,105,2,384,2
280,360,2,261,2
15,89,2,574,2
173,159,2,104,2
135,71,2,254,2
143,142,2,133,2
76,121,2,210,2
37,234,2,368,2
45,13,2,18,2
37,209,2,179,2
42,158,2,285,2
168,331,3,488,2
4,302,2,88,2
137,29,2,196,2
227,240,2,315,2
150,22,2,99,2
81,14,2,384,2
215,10,2,223,2
35,13,2,146,2
104,304,2,140,2
151,279,2,149,2
161,282,2,388,2
15,197,2,50,2
168,123,2,122,2
81,53,2,315,2
168,8,2,337,2
228,180,2,101,2
60,81,2,464,2
322,247,2,301,2
186,330,2,86,2
29,35,2,226,2
24,11,2,11,2
86,127,2,210,2
44,11,2,221,2
371,502,2,148,2
2,72,2,504,2
204,251,2,249,2
121,222,2,568,2
204,11,2,90,2
232,303,2,406,2
149,64,2,121,2
16,112,2,211,2
121,53,2,175,2
164,26,2,2,2
7,154,2,159,2
25,106,2,53,2
34,180,2,210,2
38,277,2,90,2
46,212,2,214,2
61,145,2,67,2
69,14,2,554,2
45,25,2,571,2
97,179,2,233,2
140,265,2,78,2
84,113,2,177,2
52,117,2,35,2
13,161,2,114,2
129,287,2,377,2
37,379,3,813,2
226,327,2,226,2
37,141,2,471,2
107,133,2,257,2
59,160,2,310,2
307,156,2,202,2
69,159,2,114,2
127,46,2,149,2
147,114,2,266,2
110,264,2,165,2
107,86,2,186,2
343,513,2,223,2
111,403,2,167,2
139,103,2,67,2
217,295,2,187,2
12,10,2,0,2
97,271,2,82,2
258,10,2,102,2
107,169,2,45,2
5,58,2,20,2
19,31,2,50,2
183,17,2,0,2
18,94,2,338,2
139,23,2,538,2
124,220,2,342,2
21,61,2,463,2
179,396,2,450,2
512,181,2,478,2
369,635,2,53,2
30,230,2,0,2
153,12,2,110,2
17,222,2,181,2
54,98,2,234,2
66,47,2,273,2
11,108,2,370,2
199,208,2,583,2
20,205,2,84,2
144,258,2,124,2
60,119,2,93,2
205,426,2,729,2
286,261,2,128,2
169,10,2,319,2
355,312,2,46,2
156,162,2,71,2
209,377,2,2,2
283,212,2,161,2
150,492,2,59,2
6,140,2,461,2
195,374,1,210,2
68,108,2,212,2
119,26,2,46,2
20,70,2,54,2
151,247,2,30,2
155,254,2,62,2
338,563,2,267,2
102,104,2,0,2
206,263,2,589,2
197,87,2,144,2
66,95,2,440,2
135,16,2,145,2
121,205,2,77,2
47,169,2,64,2
119,246,2,173,2
206,28,2,177,2
113,132,2,250,2
153,23,2,138,2
119,301,1,287,2
148,230,2,0,2
78,47,2,166,2
242,119,2,23,2
145,17,2,11,2
158,198,2,161,2
57,137,2,77,2
137,56,2,70,2
14,170,2,0,2
9,17,2,189,2
107,418,2,249,2
44,177,2,192,2
72,267,2,394,2
104,105,2,254,2
144,91,2,141,2
107,77,2,125,2
109,56,2,412,2
545,746,2,403,2
276,701,2,430,2
202,54,2,293,2
112,274,2,370,2
340,21,2,0,2
103,15,2,48,2
341,178,2,85,2
36,31,3,349,2
26,304,2,161,2
43,204,2,338,2
60,166,2,6,2
144,425,2,129,2
45,94,2,172,2
43,221,2,114,2
1,236,2,276,2
28,20,2,65,2
32,243,2,312,2
25,181,2,0,2
22,215,2,340,2
67,119,2,407,2
146,244,2,315,2
174,44,2,221,2
205,54,2,21,2
80,30,2,177,2
167,52,2,270,2
175,235,2,50,2
70,189,2,356,2
310,314,1,34,2
92,217,2,218,2
264,118,2,3,2
5,36,2,101,2
340,166,2,141,2
70,181,2,185,2
280,426,2,197,2
207,426,2,342,2
78,76,2,318,2
50,277,2,614,2
95,176,2,401,2
280,433,3,772,2
38,114,2,124,2
131,130,2,72,2
81,52,2,138,2
79,45,2,117,2
155,20,2,237,2
82,149,2,117,2
153,176,2,5,2
120,106,2,342,2
144,56,2,137,2
114,141,2,320,2
69,170,2,20,2
23,63,2,34,2
88,68,2,159,2
62,160,2,136,2
113,108,2,146,2
156,57,2,429,2
1,90,2,15,2
14,268,2,293,2
66,18,2,1,2
18,175,2,60,2
46,243,2,354,2
10,11,2,4,2
81,183,2,317,2
139,21,2,319,2
84,127,2,203,2
22,206,2,530,2
64,94,2,191,2
6,189,2,234,2
176,307,2,152,2
111,43,2,30,2
43,206,2,68,2
36,71,2,65,2
111,275,2,91,2
141,85,2,84,2
22,245,2,71,2
172,38,2,130,2
3,47,2,164,2
24,136,2,204,2
12,74,2,72,2
156,33,2,164,2
89,61,2,123,2
119,294,2,11,2
10,191,2,184,2
18,47,3,71,2
29,102,2,67,2
153,39,2,187,2
47,95,2,47,2
58,135,2,171,2
83,76,2,99,2
93,307,2,155,2
151,26,2,400,2
248,294,2,177,2
28,179,2,100,2
54,15,2,59,2
17,233,2,92,2
89,95,2,28,2
8,207,2,183,2
96,9,2,124,2
373,428,2,8,2
14,284,2,3,2
12,149,2,399,2
115,98,2,77,2
138,61,2,407,2
189,13,2,0,2
162,60,2,360,2
78,38,2,116,2
35,210,2,168,2
157,21,2,169,2
96,13,2,65,2
54,53,2,0,2
270,117,2,57,2
188,295,2,156,2
158,23,2,0,2
37,61,2,30,2
197,55,2,105,2
193,136,2,2,2
175,368,2,17,2
56,317,2,0,2
306,139,2,46,2
177,376,2,45,2
61,224,2,20,2
138,219,2,85,2
55,163,2,63,2
43,55,2,222,2
81,329,2,37,2
98,373,2,58,2
162,12,2,44,2
92,105,2,27,2
10,125,2,302,2
103,321,2,153,2
13,315,2,519,2
92,59,2,438,2
263,95,2,191,2
85,93,2,139,2
1,110,2,200,2
0,301,2,278,2
34,81,2,296,2
337,148,2,179,2
148,11,2,79,2
56,87,2,148,2
77,28,2,131,2
9,183,2,220,2
19,129,2,79,2
83,90,2,171,2
53,114,2,0,2
70,193,2,138,2
196,65,2,75,2
15,279,2,24,2
30,24,2,276,2
238,96,2,49,2
356,149,2,267,2
179,223,2,227,2
36,194,2,260,2
183,191,2,38,2
275,517,2,0,2
7,20,2,320,2
10,52,2,294,2
228,175,2,412,2
326,363,2,5,2
16,212,2,451,2
103,9,2,465,2
251,406,2,2,2
63,288,2,288,2
119,12,2,45,2
108,510,2,238,2
21,171,2,44,2
139,201,2,133,2
281,501,2,147,2
4,149,2,2,2
81,162,2,311,2
120,92,2,96,2
128,70,2,26,2
24,187,2,329,2
17,27,2,546,2
76,396,2,58,2
175,207,3,632,2
321,480,2,39,2
112,206,3,620,2
212,163,2,105,2
53,124,2,758,2
249,58,2,81,2
226,12,2,647,2
306,353,2,295,2
406,196,2,428,2
33,430,1,351,2
195,40,2,365,2
107,132,2,298,2
7,139,2,171,2
347,111,2,482,2
575,418,2,200,2
172,126,2,513,2
458,241,2,185,2
75,177,2,448,2
91,31,2,287,2
338,17,2,110,2
258,16,2,156,2
126,56,2,390,2
145,127,2,142,2
112,273,2,255,2
140,161,2,472,2
239,141,2,513,2
176,466,3,994,2
421,404,1,599,2
11,45,2,682,2
344,39,1,341,2
166,196,2,122,2
68,60,2,80,2
249,372,2,146,2
35,17,2,21,2
22,23,2,0,2
161,411,2,2,2
218,353,2,417,2
3,259,2,182,2
45,217,3,882,2
323,261,2,107,2
160,230,3,904,2
229,192,2,144,2
102,36,2,657,2
27,35,2,296,2
183,22,2,104,2
89,182,2,424,2
297,228,2,254,2
204,25,2,46,2
182,196,3,298,2
306,79,2,525,2
118,87,2,232,2
217,123,2,299,2
275,274,2,778,2
97,114,2,481,2
307,380,2,822,2
67,158,2,822,2
144,307,2,346,2
143,361,2,337,2
16,279,1,423,2
214,121,2,108,2
74,165,2,371,2
63,16,3,680,2
5,108,2,499,2
62,119,2,505,2
85,230,2,313,2
153,241,2,450,2
165,98,2,520,2
117,344,2,463,2
174,377,2,377,2
502,228,2,596,2
221,53,2,205,2
87,214,2,387,2
12,250,2,243,2
45,48,2,755,2
233,50,1,228,2
318,85,3,964,2
116,85,2,247,2
95,95,2,603,2
376,63,2,147,2
58,121,2,161,2
3,94,2,398,2
472,351,2,439,2
614,500,2,437,2
231,341,1,3,2
15,192,2,207,2
508,643,2,423,2
82,15,3,988,2
559,610,2,541,2
198,523,10,714,2
352,113,472,1023,2
432,322,219,170,2
61,9,45,638,2
102,86,5,272,2
200,142,1,586,2
601,824,2,304,2
65,268,2,396,2
188,284,1,613,2
71,115,1,419,2
124,242,2,62,2
349,202,2,219,2
66,131,2,421,2
50,45,3,923,2
202,147,2,150,2
1,121,2,441,2
18,147,2,29,2
116,375,2,702,2
154,12,2,687,2
202,383,2,511,2
49,131,2,618,2
132,324,2,512,2
208,91,2,156,2
240,120,2,86,2
261,9,2,429,2
419,210,628,1023,2
398,124,133,872,2
157,122,23,364,2
65,68,1,353,2
161,86,2,673,2
142,47,2,403,2
23,245,2,0,2
10,171,3,645,2
245,275,2,63,2
119,380,2,724,2
27,286,1,65,2
351,23,2,255,2
55,266,2,103,2
62,70,2,98,2
7,179,2,103,2
51,95,2,19,2
396,454,2,467,2
13,61,2,372,2
132,58,562,1023,2
81,292,79,173,2
198,9,12,785,2
167,37,1,20,2
144,191,2,181,2
32,118,2,159,2
52,266,2,219,2
115,208,2,347,2
127,247,2,89,2
138,163,2,706,2
395,197,1,85,2
1,45,3,682,2
70,23,2,304,2
50,122,2,278,2
81,83,2,0,2
123,17,2,171,2
22,71,2,0,2
138,28,2,223,2
69,186,2,249,2
150,273,1,127,2
55,92,2,19,2
13,55,2,433,2
80,13,2,265,2
113,196,2,806,2
12,145,2,725,2
174,154,2,441,2
279,407,2,461,2
86,19,2,100,2
334,108,2,81,2
175,68,2,138,2
277,272,2,589,2
328,444,1,4,2
0,51,2,610,2
50,193,2,204,2
103,192,2,450,2
53,98,2,34,2
224,339,2,338,2
63,42,2,364,2
104,249,2,54,2
276,222,2,306,2
89,74,2,266,2
66,246,2,436,2
19,95,2,4,2
58,150,2,216,2
29,96,2,184,2
137,124,3,497,2
187,189,2,119,2
35,9,2,226,2
160,142,2,545,2
67,115,2,20,2
290,436,2,406,2
112,246,2,276,2
81,129,2,110,2
3,124,2,67,2
52,175,2,305,2
202,60,2,240,2
99,176,2,403,2
186,125,2,735,2
186,347,2,74,2
80,330,2,626,2
169,69,2,139,2
146,196,2,61,2
103,21,2,151,2
207,57,2,12,2
14,66,2,310,2
206,38,2,86,2
144,327,2,125,2
0,122,2,238,2
338,462,2,356,2
107,221,2,297,2
181,350,2,23,2
159,446,2,170,2
109,131,2,283,2
50,244,2,282,2
152,46,2,377,2
131,202,2,100,2
43,225,2,608,2
100,7,2,160,2
211,305,2,191,2
92,233,2,290,2
48,86,2,195,2
135,311,2,4,2
157,236,2,19,2
68,132,2,368,2
144,265,2,242,2
92,162,2,84,2
62,231,2,159,2
182,31,2,52,2
77,129,2,295,2
179,68,2,269,2
59,41,2,62,2
23,165,2,336,2
27,106,2,28,2
158,54,2,226,2
103,33,2,74,2
83,172,2,50,2
40,168,2,186,2
15,82,2,98,2
59,51,2,215,2
38,148,2,51,2
67,39,2,151,2
145,170,2,51,2
100,78,2,294,2
182,263,2,0,2
46,228,2,349,2
205,220,2,239,2
24,228,2,334,2
372,204,2,163,2
31,151,2,155,2
236,47,2,129,2
186,136,2,183,2
191,473,2,420,2
163,33,2,342,2
1,162,2,196,2
42,189,2,11,2
8,23,2,266,2
138,437,2,173,2
92,38,2,294,2
6,246,2,366,2
318,21,2,438,2
277,303,2,165,2
58,205,2,226,2
170,353,2,185,2
42,201,2,51,2
98,182,2,104,2
290,283,2,39,2
262,500,2,336,2
77,68,2,231,2
109,331,31,593,2
23,291,90,332,2
162,217,13,77,2
101,266,1,49,2
77,187,2,107,2
112,167,2,0,2
181,350,2,251,2
71,38,226,25,2
64,101,68,406,2
107,17,9,7,2
78,354,1,488,2
271,32,66,13,2
26,68,46,88,2
32,95,5,142,2
162,9,1,10,2
241,238,2,117,2
154,36,2,236,2
152,132,2,0,2
126,133,2,256,2
477,20,2,8,2
141,26,316,517,2
103,104,21,155,2
82,9,117,220,2
53,196,32,157,2
52,150,3,323,2
10,248,1,0,2
80,209,2,379,2
274,262,5,157,2
261,37,1,150,2
413,170,2,19,2
172,287,2,80,2
82,111,2,48,2
51,6,2,218,2
213,343,338,415,2
181,67,117,272,2
308,632,78,622,2
176,98,12,157,2
146,190,1,416,2
163,110,12,81,2
214,44,29,75,2
73,178,3,110,2
7,172,1,116,2
84,95,2,3,2
1,295,2,51,2
35,167,2,143,2
40,77,1,203,2
120,112,2,213,2
166,135,2,157,2
115,111,2,25,2
171,27,2,104,2
164,65,2,160,2
41,264,2,157,2
11,69,2,215,2
69,303,2,229,2
253,96,2,0,2
152,94,2,229,2
366,136,2,56,2
46,98,2,171,2
78,188,43,229,2
74,16,17,31,2
27,243,116,204,2
9,161,18,322,2
217,270,2,7,2
13,227,2,459,2
179,116,1,87,2
225,55,2,437,2
308,88,2,148,2
80,115,2,74,2
125,80,2,202,2
27,50,2,120,2
21,115,2,180,2
77,112,2,209,2
164,127,2,34,2
25,262,2,171,2
63,18,2,67,2
10,260,2,57,2
61,198,2,120,2
116,113,3,351,2
110,108,81,26,2
27,29,31,274,2
69,220,2,88,2
90,203,1,137,2
93,46,2,28,2
200,474,2,167,2
80,314,2,173,2
99,234,2,164,2
124,13,2,146,2
86,124,2,35,2
79,107,2,95,2
40,111,2,140,2
1,177,2,134,2
230,8,2,116,2
13,19,2,73,2
318,9,2,274,2
113,15,2,111,2
165,403,2,199,2
6,141,470,464,2
552,581,337,358,2
8,223,63,642,2
74,97,9,17,2
107,288,1,130,2
116,159,1,12,2
19,27,2,229,2
216,37,2,47,2
277,52,2,265,2
99,208,2,197,2
62,249,2,102,2
144,145,2,134,2
188,389,2,78,2
244,173,2,197,2
35,182,2,230,2
287,6,2,84,2
218,188,2,101,2
48,169,2,254,2
206,36,2,23,2
53,177,2,192,2
89,294,2,53,2
88,104,2,219,2
135,30,2,197,2
44,82,2,256,2
235,324,2,207,2
115,107,2,116,2
266,212,2,94,2
15,238,2,135,2
193,54,2,9,2
83,122,2,102,2
227,107,2,132,2
171,156,2,187,2
138,39,2,126,2
208,174,2,75,2
102,96,2,205,2
128,80,2,75,2
11,83,2,206,2
86,405,2,82,2
24,111,2,37,2
102,11,2,88,2
79,88,2,288,2
12,33,2,41,2
82,171,2,93,2
48,125,2,174,2
19,125,3,385,2
108,141,79,38,2
101,149,50,395,2
327,269,6,339,2
200,61,1,50,2
127,119,2,1,2
137,21,2,199,2
207,215,2,62,2
292,58,2,265,2
100,12,2,0,2
362,117,2,212,2
23,173,2,27,2
82,74,2,26,2
25,191,2,111,2
140,8,2,7,2
403,594,2,168,2
138,311,2,36,2
125,74,2,308,2
60,402,2,337,2
248,407,2,398,2
21,157,2,505,2
253,73,2,367,2
326,279,2,223,2
57,156,2,163,2
292,222,2,108,2
48,386,2,91,2
110,22,2,225,2
210,23,2,102,2
266,315,2,194,2
217,152,2,83,2
52,87,2,184,2
309,262,2,27,2
71,18,2,126,2
81,315,2,311,2
127,146,2,11,2
217,24,2,450,2
215,51,2,0,2
59,36,2,206,2
180,361,2,24,2
187,394,2,288,2
84,97,2,249,2
144,23,2,67,2
74,18,2,148,2
142,200,2,4,2
63,106,2,120,2
319,732,2,215,2
227,63,2,185,2
179,47,2,323,2
314,262,2,201,2
120,216,2,197,2
216,45,2,212,2
14,227,2,81,2
219,349,2,465,2
36,274,1,391,2
93,269,2,480,2
100,16,2,517,2
81,217,2,191,2
126,22,2,265,2
12,55,2,42,2
1,54,2,68,2
8,227,2,295,2
28,307,2,33,2
223,55,2,359,2
161,75,2,469,2
236,393,2,16,2
12,385,2,808,2
560,131,2,113,2
189,99,2,416,2
84,75,2,549,2
41,275,2,62,2
49,117,2,429,2
102,13,2,598,2
40,206,2,678,2
144,247,2,472,2
335,28,5,964,2
522,414,1,116,2
36,265,1,684,2
290,313,1,171,2
150,243,2,543,2
14,96,2,201,2
151,25,2,968,2
509,259,1,421,2
98,166,5,524,2
516,132,1,572,2
301,98,2,52,2
525,88,2,378,2
453,158,2,115,2
91,113,2,314,2
140,324,2,348,2
5,270,2,683,2
393,428,2,743,2
9,535,2,393,2
110,97,3,719,2
400,207,2,638,2
293,90,2,86,2
6,24,2,412,2
278,361,2,262,2
177,123,2,256,2
74,112,2,378,2
232,191,21,19,2
148,308,1,328,2
257,499,1,251,2
175,188,2,390,2
33,91,2,198,2
119,211,2,517,2
59,120,2,114,2
48,279,2,491,2
93,24,2,244,2
365,77,2,90,2
163,283,2,128,2
171,256,2,43,2
85,125,2,163,2
58,28,2,155,2
212,157,2,432,2
14,135,2,101,2
191,134,2,342,2
406,299,2,53,2
213,92,2,187,2
77,297,2,236,2
42,274,2,288,2
563,671,2,208,2
563,723,2,201,2
51,56,2,117,2
349,300,2,422,2
152,318,1,29,2
55,90,2,772,2
100,175,2,11,2
140,170,3,826,2
16,301,2,199,2
199,178,2,1023,2
261,186,142,410,2
164,105,165,1023,2
331,161,73,824,2
99,258,280,621,2
369,78,71,1012,2
290,459,9,180,2
107,373,1,363,2
135,195,2,859,2
167,263,2,154,2
251,39,3,1023,2
365,378,4,383,2
475,126,628,1023,2
467,374,174,397,2
180,89,32,606,2
54,39,2,187,2
241,92,2,467,2
129,120,2,44,2
91,180,2,161,2
189,309,2,278,2
154,160,2,456,2
229,323,2,67,2
142,225,3,801,2
73,159,2,608,2
153,397,2,961,2
576,292,2,955,2
651,837,1,307,2
90,294,1,658,2
60,263,1,158,2
120,123,2,428,2
231,135,518,1023,2
303,127,191,349,2
15,42,43,443,2
178,197,4,687,2
16,334,1,250,2
108,72,2,151,2
130,76,2,114,2
229,421,2,279,2
41,48,3,738,2
415,396,3,1023,2
11,158,2,505,2
3,64,3,546,2
341,304,2,321,2
365,394,2,804,2
50,35,2,265,2
343,231,2,517,2
20,63,2,264,2
518,435,2,60,2
67,21,2,144,2
442,35,3,792,2
344,8,2,942,2
275,476,2,634,2
76,220,2,166,2
43,34,2,35,2
46,240,2,48,2
68,46,2,175,2
59,87,2,300,2
14,78,2,200,2
157,29,2,206,2
49,114,2,128,2
36,171,2,38,2
173,313,2,536,2
113,65,3,993,2
258,90,1,183,2
297,427,2,1023,2
209,32,2,598,2
288,182,2,795,2
11,169,2,557,2
178,97,2,129,2
92,184,2,216,2
2,165,2,131,2
147,331,2,688,2
57,180,2,539,2
210,166,2,309,2
23,240,2,640,2
298,43,2,90,2
268,253,2,478,2
15,68,2,201,2
97,44,2,132,2
122,66,2,41,2
65,67,3,785,2
221,241,2,31,2
7,11,2,257,2
151,209,2,116,2
6,61,2,247,2
94,93,2,245,2
50,41,2,273,2
106,78,2,67,2
69,18,2,55,2
320,450,2,197,2
11,54,2,280,2
18,102,2,167,2
141,106,2,292,2
136,9,2,23,2
101,159,2,56,2
248,300,2,144,2
178,152,2,239,2
70,187,2,339,2
190,80,2,205,2
144,228,2,0,2
54,68,2,253,2
36,8,2,483,2
102,107,2,366,2
35,70,2,248,2
180,103,2,152,2
106,117,1,310,2
16,42,2,476,2
163,65,2,270,2
30,90,2,336,2
124,66,2,248,2
171,29,2,165,2
83,208,2,13,2
204,391,2,440,2
220,224,2,310,2
126,238,2,509,2
234,10,2,350,2
314,369,2,565,2
40,159,2,73,2
161,79,2,130,2
1,113,2,300,2
60,121,2,319,2
259,289,2,292,2
309,435,2,508,2
144,10,2,93,2
126,75,2,545,2
161,66,2,120,2
117,98,2,357,2
436,283,2,3,2
93,141,2,271,2
20,165,2,94,2
20,79,2,348,2
220,277,2,161,2
25,42,2,176,2
31,23,2,91,2
63,86,2,176,2
325,397,2,225,2
71,14,2,369,2
145,35,2,341,2
209,224,2,18,2
215,298,2,321,2
202,69,2,394,2
144,179,2,85,2
74,251,2,271,2
75,99,2,10,2
62,281,2,689,2
114,122,2,145,2
286,576,2,388,2
15,233,2,356,2
165,17,2,330,2
195,244,2,61,2
451,415,2,328,2
127,212,2,360,2
550,529,2,200,2
11,125,2,387,2
353,333,2,35,2
55,156,2,192,2
121,51,2,98,2
92,30,2,114,2
272,72,2,157,2
135,303,2,172,2
12,172,2,0,2
172,209,2,171,2
26,61,2,217,2
62,105,2,184,2
23,161,2,250,2
53,179,2,229,2
87,7,2,211,2
76,72,2,249,2
65,22,2,121,2
55,118,2,195,2
20,18,2,177,2
210,91,2,160,2
84,249,2,61,2
94,256,2,641,2
25,45,2,158,2
233,53,3,877,2
357,319,1,24,2
17,121,2,384,2
224,234,2,271,2
13,168,2,161,2
169,197,2,75,2
12,170,2,11,2
18,136,2,0,2
110,50,2,284,2
118,300,2,53,2
135,304,2,279,2
297,394,2,57,2
153,145,2,361,2
189,244,2,196,2
140,265,2,578,2
36,108,2,0,2
122,233,2,275,2
46,181,2,219,2
63,75,2,9,2
4,132,2,482,2
9,12,2,19,2
10,175,2,27,2
101,12,2,468,2
125,86,2,115,2
112,170,2,330,2
175,428,2,233,2
166,29,2,179,2
374,340,2,714,2
157,12,2,147,2
46,205,2,686,2
313,155,2,60,2
50,160,2,398,2
116,37,2,182,2
40,46,2,150,2
156,55,2,47,2
11,110,2,125,2
10,61,2,44,2
22,20,3,263,2
167,143,2,59,2
129,382,2,672,2
476,197,2,11,2
15,262,2,398,2
173,69,2,52,2
143,75,2,34,2
18,156,2,426,2
285,405,2,485,2
171,218,2,324,2
0,187,2,479,2
252,228,2,118,2
78,253,2,322,2
34,150,2,181,2
183,35,2,242,2
142,173,2,306,2
59,17,2,96,2
331,472,2,100,2
70,280,2,241,2
181,230,2,195,2
99,231,2,53,2
101,50,2,17,2
65,239,2,71,2
72,50,2,113,2
3,31,2,278,2
44,156,2,270,2
209,41,2,467,2
173,281,2,170,2
96,118,2,165,2
139,183,2,187,2
96,111,2,0,2
24,84,2,0,2
239,116,2,92,2
76,302,2,445,2
136,131,2,83,2
14,192,2,302,2
170,166,2,46,2
1,313,2,116,2
183,13,2,161,2
92,286,2,118,2
148,82,2,98,2
71,64,2,138,2
13,240,2,123,2
85,227,2,124,2
50,49,2,29,2
67,144,2,126,2
3,90,2,38,2
100,187,2,328,2
124,365,2,235,2
69,86,2,282,2
16,209,2,157,2
10,193,2,215,2
58,284,2,102,2
211,18,2,179,2
60,167,2,28,2
134,54,2,238,2
128,87,2,51,2
98,245,2,95,2
50,167,2,260,2
52,58,2,68,2
122,25,2,344,2
24,98,2,153,2
118,351,2,328,2
11,211,2,8,2
50,200,2,163,2
23,175,2,1,2
4,17,2,96,2
90,274,2,175,2
2,172,2,296,2
172,242,2,185,2
180,387,2,218,2
13,69,2,77,2
45,272,2,356,2
53,83,2,42,2
164,294,2,144,2
118,183,2,159,2
189,302,2,39,2
23,204,2,396,2
33,251,2,245,2
9,57,2,254,2
6,191,2,138,2
62,137,2,25,2
62,273,2,147,2
223,71,2,129,2
283,287,2,38,2
46,88,2,423,2
87,28,2,39,2
21,197,2,290,2
38,85,2,93,2
17,146,2,86,2
121,122,2,45,2
23,66,2,60,2
25,237,2,96,2
13,118,2,181,2
22,131,2,61,2
74,110,2,372,2
61,72,2,35,2
67,105,2,255,2
81,114,2,176,2
104,46,2,31,2
201,228,2,206,2
100,232,2,28,2
18,114,2,332,2
191,254,2,12,2
93,22,2,181,2
65,48,2,68,2
56,8,2,48,2
1,165,2,145,2
14,196,2,126,2
161,297,2,48,2
29,117,2,220,2
22,13,2,10,2
112,63,2,393,2
69,72,2,206,2
187,12,2,46,2
19,94,2,223,2
183,20,3,310,2
304,460,2,0,2
141,88,2,434,2
153,171,2,315,2
5,88,2,149,2
10,11,2,224,2
59,118,2,22,2
29,30,2,12,2
138,132,2,97,2
57,11,2,29,2
121,72,2,301,2
130,168,2,7,2
139,510,2,384,2
122,74,2,82,2
241,17,2,51,2
322,158,2,287,2
107,141,2,92,2
111,16,2,502,2
119,170,2,125,2
356,271,2,597,2
288,314,2,184,2
235,190,2,828,2
452,147,2,52,2
39,177,2,758,2
354,312,2,495,2
288,38,2,567,2
405,197,2,390,2
182,41,2,123,2
457,409,2,95,2
8,327,2,591,2
260,172,2,231,2
203,205,2,608,2
673,182,2,585,2
120,251,2,326,2
598,174,3,734,2
350,230,2,158,2
469,63,2,749,2
228,85,2,276,2
73,139,3,691,2
1,78,2,275,2
43,136,2,401,2
48,177,2,149,2
113,121,2,223,2
146,132,2,400,2
174,157,2,172,2
197,26,2,400,2
309,289,2,0,2
94,339,1,0,2
287,36,2,267,2
15,68,2,4,2
156,46,2,226,2
110,158,2,62,2
67,207,2,394,2
6,189,2,526,2
98,162,2,13,2
164,177,2,408,2
106,371,1,156,2
238,246,2,505,2
125,293,2,268,2
375,93,2,650,2
472,356,2,87,2
570,580,2,149,2
182,286,2,0,2
96,16,2,104,2
75,197,2,0,2
294,46,2,2,2
60,31,2,460,2
152,38,2,261,2
45,157,3,819,2
207,115,2,276,2
192,252,2,587,2
116,77,2,221,2
360,289,2,596,2
234,65,2,262,2
315,279,2,292,2
322,289,2,232,2
25,12,2,76,2
34,251,2,77,2
118,107,2,339,2
238,186,2,114,2
29,67,2,280,2
497,9,2,101,2
330,39,2,194,2
185,182,2,349,2
325,255,2,707,2
59,179,2,305,2
145,10,2,187,2
171,183,2,644,2
72,11,2,14,2
127,11,2,586,2
141,8,2,258,2
296,352,1,192,2
53,274,2,1023,2
643,356,1,80,2
2,205,2,443,2
489,288,1,69,2
152,275,2,162,2
74,137,2,1,2
269,329,2,15,2
39,119,2,49,2
219,185,2,140,2
77,343,2,586,2
56,75,2,317,2
71,197,163,1023,2
356,13,80,336,2
60,30,11,336,2
70,134,1,415,2
146,262,2,151,2
226,204,2,108,2
95,198,2,448,2
46,46,3,681,2
13,135,2,507,2
150,50,2,780,2
13,174,2,125,2
469,113,2,124,2
321,56,2,63,2
276,459,2,59,2
73,36,2,151,2
397,100,2,43,2
409,329,2,399,2
103,314,2,354,2
56,201,2,127,2
145,353,2,56,2
105,169,2,10,2
412,427,2,545,2
610,231,2,264,2
246,36,2,391,2
411,403,2,1023,2
359,105,2,443,2
44,136,2,460,2
189,10,2,636,2
2,159,1,215,2
274,147,2,683,2
244,110,2,418,2
9,7,2,263,2
212,148,2,386,2
173,362,2,250,2
143,197,2,26,2
151,60,2,84,2
60,94,2,273,2
206,80,2,390,2
170,201,2,35,2
150,198,2,373,2
50,27,2,689,2
452,502,2,83,2
53,46,2,98,2
109,240,2,278,2
139,199,2,303,2
324,248,2,44,2
20,225,2,381,2
134,52,2,136,2
148,132,2,183,2
166,165,2,122,2
349,306,2,618,2
334,179,2,349,2
22,94,2,15,2
141,189,2,9,2
101,211,2,408,2
84,291,2,286,2
108,167,2,121,2
30,104,2,526,2
103,365,3,796,2
11,208,2,581,2
334,242,2,93,2
72,230,1,249,2
66,110,2,454,2
74,73,2,66,2
13,279,3,769,2
380,157,2,158,2
183,261,2,154,2
286,187,2,406,2
29,242,3,950,2
88,101,2,18,2
93,132,2,948,2
465,216,2,98,2
156,66,2,985,2
93,130,1,150,2
112,148,16,1009,2
268,43,10,487,2
64,58,1,806,2
106,103,2,562,2
116,79,2,33,2
82,69,2,42,2
43,22,3,1023,2
131,122,2,709,2
29,31,1,147,2
260,312,1,229,2
77,84,2,497,2
30,139,2,844,2
4,197,2,9,2
77,38,2,338,2
135,87,2,386,2
131,19,2,431,2
13,99,2,299,2
227,19,2,458,2
29,163,2,211,2
71,149,2,125,2
53,116,2,114,2
27,73,2,40,2
117,288,2,809,2
123,8,1,180,2
94,281,224,1023,2
222,53,16,124,2
90,169,1,304,2
11,205,1,61,2
41,10,2,46,2
153,285,2,274,2
61,68,2,180,2
137,145,2,4,2
79,240,2,213,2
88,19,2,71,2
287,402,2,35,2
173,354,2,689,2
232,99,2,146,2
249,359,3,866,2
267,37,2,53,2
49,174,2,438,2
71,125,2,122,2
129,162,2,249,2
181,297,2,347,2
208,173,2,111,2
15,185,2,313,2
256,370,2,132,2
202,58,2,7,2
65,323,2,117,2
64,101,2,55,2
8,231,2,407,2
113,156,2,284,2
107,146,2,23,2
196,402,3,1023,2
507,474,2,556,2
229,360,2,709,2
362,133,2,331,2
310,240,2,387,2
2,48,2,57,2
220,213,2,130,2
159,232,2,248,2
206,199,2,23,2
58,51,2,98,2
15,152,2,30,2
213,135,2,0,2
17,182,2,308,2
243,183,2,37,2
28,162,2,414,2
192,84,2,129,2
22,169,2,106,2
76,135,2,78,2
188,230,2,382,2
4,38,2,114,2
195,394,2,334,2
91,35,2,172,2
228,391,2,106,2
60,98,2,33,2
81,193,2,24,2
36,167,2,380,2
44,161,2,274,2
124,228,2,101,2
52,241,2,245,2
152,114,2,30,2
202,236,2,234,2
166,288,2,354,2
57,172,2,107,2
106,326,2,237,2
56,146,2,455,2
18,179,2,204,2
158,236,2,63,2
193,29,2,145,2
67,241,2,261,2
67,157,2,0,2
67,40,2,91,2
38,30,2,322,2
215,54,2,311,2
88,131,2,111,2
61,29,2,0,2
107,97,2,333,2
66,67,2,89,2
110,303,2,238,2
108,389,2,25,2
66,76,2,0,2
13,209,2,277,2
265,118,2,100,2
452,466,2,252,2
183,71,2,157,2
76,156,2,231,2
262,89,2,410,2
102,20,2,287,2
42,72,2,217,2
256,8,2,184,2
11,27,2,74,2
80,78,2,187,2
13,68,2,145,2
63,85,2,85,2
112,311,2,352,2
66,29,2,233,2
146,65,2,465,2
86,235,2,100,2
147,8,2,133,2
123,8,2,303,2
133,140,2,109,2
58,93,2,164,2
96,127,2,45,2
25,76,2,26,2
7,191,2,771,2
237,198,1,29,2
41,317,2,618,2
140,263,2,181,2
18,255,2,466,2
210,55,2,171,2
9,200,2,315,2
59,450,2,142,2
20,204,2,101,2
8,153,2,317,2
68,31,2,437,2
122,75,2,296,2
343,147,2,426,2
120,39,2,73,2
163,97,2,335,2
81,92,2,67,2
220,329,1,230,2
153,266,2,358,2
192,377,2,252,2
277,420,2,0,2
3,249,2,465,2
75,157,2,77,2
248,79,2,427,2
111,185,2,280,2
94,221,2,159,2
25,257,2,22,2
27,34,2,279,2
178,278,2,19,2
69,89,2,559,2
229,289,2,122,2
43,236,2,506,2
369,353,2,83,2
321,564,2,582,2
30,77,2,76,2
43,287,2,349,2
164,38,2,101,2
127,206,2,132,2
162,268,2,212,2
124,72,2,10,2
127,243,2,147,2
16,187,2,166,2
199,269,2,197,2
80,183,2,190,2
103,101,2,220,2
180,41,2,86,2
23,91,2,172,2
97,21,2,220,2
62,122,2,5,2
189,42,2,422,2
170,283,2,270,2
160,97,2,369,2
196,229,2,334,2
70,335,1,129,2
58,23,2,128,2
242,156,2,8,2
72,240,2,237,2
66,101,2,9,2
97,330,2,242,2
42,115,2,76,2
31,198,2,16,2
114,59,2,231,2
105,102,2,137,2
96,318,2,324,2
52,103,2,137,2
94,287,2,313,2
196,22,2,149,2
182,277,2,303,2
35,166,2,29,2
52,172,2,86,2
11,167,2,37,2
106,328,2,347,3
135,93,2,177,3
157,278,2,219,3
1,20,2,31,3
27,102,2,196,3
24,146,2,0,3
40,107,2,200,3
179,301,2,120,3
5,132,2,313,3
254,377,2,259,3
123,89,2,314,3
45,60,2,96,3
43,98,2,361,3
35,114,2,200,3
25,215,2,328,3
2,261,2,330,3
51,109,2,190,3
19,308,2,213,3
254,133,2,48,3
100,251,2,0,3
1,131,2,364,3
216,264,2,0,3
69,261,2,455,3
211,168,2,62,3
212,343,2,221,3
210,90,2,6,3
211,201,2,35,3
393,217,2,6,3
40,135,2,104,3
40,222,2,98,3
101,109,2,182,3
133,138,2,99,3
9,222,2,287,3
105,237,2,77,3
2,178,2,59,3
70,129,2,80,3
80,132,2,57,3
138,78,2,319,3
31,87,2,0,3
61,231,2,182,3
22,181,2,29,3
173,238,2,0,3
59,299,2,133,3
136,35,2,200,3
82,247,2,232,3
75,157,2,112,3
93,93,2,121,3
21,292,2,189,3
99,251,2,52,3
82,97,2,220,3
93,327,2,36,3
44,61,2,26,3
120,340,2,77,3
22,101,2,270,3
208,355,2,158,3
57,181,2,285,3
0,44,2,89,3
129,89,2,224,3
8,122,2,14,3
183,54,2,111,3
87,313,2,132,3
64,75,2,2,3
109,135,2,239,3
133,16,2,170,3
76,179,2,343,3
23,191,2,211,3
28,59,2,351,3
50,254,2,111,3
36,93,2,0,3
36,176,2,79,3
63,190,2,260,3
99,110,2,108,3
177,13,2,204,3
428,389,2,3,3
59,138,2,149,3
112,309,2,101,3
3,85,2,286,3
24,349,2,19,3
31,80,2,93,3
27,177,2,136,3
83,156,2,428,3
54,13,2,9,3
150,352,2,435,3
248,119,2,9,3
78,299,2,234,3
75,165,2,161,3
34,25,2,0,3
24,254,2,411,3
28,177,1,138,3
25,261,2,272,3
8,296,2,155,3
176,270,2,0,3
101,434,2,145,3
8,153,2,298,3
71,138,2,33,3
27,280,2,305,3
14,71,2,100,3
179,81,2,484,3
184,46,2,68,3
164,398,2,270,3
48,374,2,18,3
147,47,2,57,3
53,248,2,57,3
29,259,2,78,3
229,354,2,345,3
116,110,2,31,3
50,67,2,108,3
177,393,2,20,3
3,85,2,8,3
163,248,2,2,3
103,380,2,232,3
68,15,2,290,3
128,370,2,437,3
157,59,2,304,3
97,254,2,488,3
313,163,2,163,3
87,200,2,264,3
77,310,2,157,3
134,42,2,353,3
67,150,2,210,3
94,231,2,50,3
360,206,2,45,3
89,168,2,238,3
10,299,2,506,3
126,232,2,219,3
281,63,3,704,3
7,95,2,107,3
244,119,2,439,3
129,85,2,0,3
9,10,2,208,3
60,133,2,21,3
190,141,2,336,3
20,37,2,108,3
237,189,2,163,3
44,304,2,69,3
468,269,2,484,3
137,36,2,5,3
173,176,2,426,3
93,12,2,108,3
73,72,2,74,3
82,220,2,66,3
1,21,2,391,3
222,282,1,85,3
75,59,2,555,3
78,255,2,386,3
190,87,2,531,3
89,73,2,220,3
304,389,2,12,3
36,54,2,224,3
257,161,2,226,3
127,295,2,728,3
236,167,2,476,3
376,185,2,318,3
300,227,1,174,3
114,107,2,106,3
16,300,2,323,3
8,90,2,106,3
212,199,2,826,3
451,95,1,38,3
17,357,3,747,3
339,30,2,53,3
96,47,2,411,3
104,98,2,22,3
245,41,2,321,3
222,373,2,104,3
108,56,2,328,3
34,95,2,55,3
26,87,2,184,3
41,241,2,104,3
22,23,2,381,3
100,376,2,49,3
127,200,2,616,3
40,226,2,33,3
102,217,2,437,3
59,265,2,21,3
189,115,2,527,3
198,26,2,89,3
402,121,2,472,3
58,114,2,10,3
168,31,2,135,3
26,256,2,45,3
57,169,2,333,3
184,116,2,304,3
55,219,2,57,3
102,134,2,418,3
45,328,2,334,3
382,230,2,221,3
296,68,2,652,3
192,15,2,550,3
192,46,2,524,3
399,184,2,336,3
78,8,2,222,3
312,19,2,312,3
89,88,2,7,3
293,60,2,53,3
19,31,2,37,3
319,247,2,42,3
161,380,2,366,3
119,66,2,53,3
58,281,2,39,3
1,148,2,358,3
219,236,2,278,3
116,35,2,616,3
276,118,2,227,3
180,49,2,308,3
74,102,2,83,3
139,169,2,326,3
229,419,2,5,3
281,309,2,230,3
33,69,2,551,3
272,482,2,208,3
365,207,2,187,3
480,618,2,139,3
12,255,2,202,3
20,74,2,120,3
225,106,2,279,3
46,363,2,209,3
262,499,2,83,3
36,217,2,97,3
214,205,2,336,3
213,335,2,297,3
151,134,2,242,3
29,329,2,128,3
37,377,2,583,3
263,356,2,1,3
218,69,2,440,3
467,556,2,92,3
75,232,2,417,3
338,221,2,496,3
271,456,2,637,3
23,151,2,197,3
63,172,2,870,3
34,32,2,301,3
62,6,3,605,3
13,15,2,262,3
216,349,2,715,3
250,145,2,352,3
124,159,2,250,3
244,309,2,516,3
105,197,2,348,3
248,287,2,149,3
236,172,2,88,3
9,218,2,116,3
14,386,2,518,3
414,284,2,192,3
39,293,2,793,3
175,229,1,590,3
316,403,1,392,3
214,437,2,0,3
52,380,7,709,3
282,94,2,330,3
8,102,1,694,3
195,168,2,804,3
34,99,2,329,3
57,140,2,459,3
415,385,2,105,3
87,115,2,503,3
16,301,2,465,3
75,37,2,412,3
32,193,2,130,3
95,181,2,510,3
233,227,2,100,3
309,311,3,572,3
90,87,2,305,3
557,47,2,223,3
166,216,2,177,3
46,60,2,118,3
65,134,2,56,3
30,71,2,33,3
91,193,2,431,3
14,201,2,417,3
77,102,2,164,3
117,6,2,252,3
11,214,2,15,3
88,187,2,596,3
71,315,2,241,3
58,154,127,1023,3
166,22,70,805,3
97,84,9,752,3
195,340,1,577,3
87,316,2,12,3
406,350,2,100,3
87,498,2,257,3
255,93,2,353,3
265,470,2,450,3
194,640,2,446,3
43,122,2,507,3
142,211,2,426,3
226,146,3,1023,3
299,289,2,272,3
65,354,2,669,3
436,302,2,641,3
49,322,1,33,3
273,51,2,251,3
210,402,2,342,3
10,317,2,268,3
110,119,2,408,3
84,275,2,704,3
456,384,2,328,3
250,690,2,630,3
278,48,2,962,3
326,106,2,293,3
82,344,2,347,3
280,18,2,0,3
95,272,2,179,3
229,87,2,397,3
34,185,2,177,3
438,297,2,642,3
498,345,2,314,3
172,246,2,0,3
256,474,2,310,3
61,30,2,3,3
18,262,2,81,3
275,91,2,94,3
188,333,2,375,3
178,72,2,288,3
171,203,2,83,3
93,333,2,374,3
139,115,2,98,3
110,160,2,291,3
113,166,2,119,3
15,118,2,56,3
12,146,2,204,3
33,72,2,476,3
59,185,2,19,3
0,341,2,44,3
32,105,2,91,3
111,117,2,324,3
181,27,2,0,3
168,103,2,333,3
286,20,2,228,3
37,45,2,1,3
159,94,2,154,3
115,77,2,2,3
168,85,2,150,3
6,235,2,321,3
41,83,2,166,3
109,138,2,398,3
83,119,2,475,3
90,189,2,31,3
84,318,2,185,3
96,148,2,61,3
60,327,2,160,3
105,45,2,150,3
10,252,2,233,3
121,15,2,4,3
51,75,2,300,3
228,34,2,6,3
33,157,2,75,3
98,203,2,40,3
48,344,2,494,3
360,305,2,67,3
103,421,2,568,3
291,58,2,126,3
227,326,2,428,3
53,125,2,182,3
290,225,2,155,3
160,273,1,91,3
179,122,2,39,3
69,242,2,182,3
47,132,2,343,3
3,29,2,51,3
129,306,2,313,3
11,220,2,190,3
155,73,2,73,3
129,46,2,147,3
12,76,2,64,3
18,280,2,497,3
196,102,2,292,3
473,541,2,163,3
186,395,2,183,3
204,134,2,261,3
18,155,2,177,3
8,17,2,455,3
73,117,2,190,3
64,248,2,413,3
151,69,2,36,3
35,376,2,258,3
19,474,2,286,3
131,279,2,43,3
108,405,2,401,3
48,35,2,300,3
2,316,2,155,3
181,6,2,501,3
262,388,2,152,3
57,378,2,716,3
72,10,2,40,3
221,83,2,441,3
23,265,2,291,3
295,122,2,197,3
23,252,2,306,3
2,116,2,47,3
183,13,2,39,3
394,216,2,220,3
177,288,2,103,3
217,405,2,422,3
222,215,1,232,3
266,470,2,353,3
35,267,2,604,3
68,160,2,254,3
192,140,2,668,3
64,34,2,6,3
23,218,2,446,3
16,95,2,241,3
181,455,2,24,3
207,399,2,136,3
16,83,2,101,3
43,223,2,79,3
43,349,2,136,3
102,19,2,106,3
110,500,2,318,3
78,87,2,60,3
63,349,2,300,3
156,26,2,180,3
242,449,2,58,3
128,122,2,382,3
74,120,2,146,3
39,207,2,241,3
114,23,2,365,3
285,10,2,388,3
286,97,2,274,3
338,182,2,83,3
7,209,2,114,3
69,302,2,594,3
153,185,2,38,3
33,310,2,441,3
152,280,2,311,3
47,182,2,205,3
130,115,2,483,3
189,45,2,52,3
54,20,2,183,3
88,15,2,97,3
22,209,2,165,3
113,235,2,474,3
61,219,2,538,3
175,94,3,775,3
69,75,2,273,3
57,251,2,27,3
73,260,2,222,3
3,80,2,89,3
107,315,2,485,3
113,131,2,134,3
86,64,2,94,3
186,23,2,15,3
256,211,2,76,3
51,193,2,0,3
219,155,2,83,3
134,392,2,204,3
71,143,2,68,3
30,193,2,235,3
67,276,2,239,3
6,57,2,109,3
15,244,2,23,3
7,256,2,381,3
45,199,2,363,3
164,80,2,139,3
20,37,2,320,3
177,56,2,157,3
109,58,2,156,3
33,76,2,144,3
57,249,2,124,3
95,152,2,129,3
75,314,2,352,3
238,21,2,5,3
67,263,2,194,3
325,90,2,49,3
48,59,2,60,3
61,394,2,232,3
4,270,2,0,3
99,218,2,71,3
153,367,2,60,3
209,188,2,161,3
122,141,2,335,3
225,20,2,161,3
47,191,2,25,3
159,114,2,38,3
48,115,2,273,3
160,460,2,320,3
47,328,2,292,3
143,445,2,221,3
132,172,2,180,3
165,222,2,114,3
69,223,2,50,3
257,23,2,146,3
114,240,2,0,3
72,197,2,356,3
38,63,2,63,3
10,230,2,300,3
21,177,2,117,3
194,343,2,100,3
106,347,2,69,3
106,134,2,14,3
2,247,2,190,3
90,100,2,148,3
35,184,2,102,3
61,304,2,242,3
171,237,2,132,3
99,108,2,323,3
47,108,2,87,3
31,79,2,0,3
125,109,2,60,3
177,145,2,144,3
1,255,2,263,3
175,34,2,106,3
1,200,2,204,3
11,308,2,58,3
22,26,2,27,3
118,111,2,0,3
38,116,2,332,3
86,210,2,5,3
5,331,2,319,3
206,201,2,47,3
84,327,2,253,3
109,210,2,26,3
47,185,2,35,3
207,81,2,59,3
7,63,2,154,3
22,246,2,58,3
220,491,2,361,3
175,294,2,35,3
75,385,2,311,3
4,83,2,0,3
5,313,2,161,3
79,179,2,96,3
110,363,2,109,3
47,298,2,32,3
91,57,2,168,3
110,355,2,4,3
206,25,2,268,3
262,451,2,92,3
89,244,2,279,3
347,329,2,33,3
171,193,2,368,3
365,183,2,201,3
162,412,2,278,3
142,127,2,52,3
148,86,2,20,3
206,567,2,142,3
63,303,2,286,3
160,53,2,87,3
112,510,2,302,3
13,42,2,136,3
93,238,2,493,3
142,77,2,0,3
30,321,2,568,3
107,215,2,256,3
116,214,2,171,3
13,185,2,219,3
35,42,2,319,3
8,10,2,85,3
87,287,2,552,3
212,322,1,124,3
85,245,2,592,3
313,115,2,41,3
71,205,2,582,3
97,41,2,38,3
213,113,2,24,3
154,366,2,9,3
201,29,2,188,3
140,323,2,6,3
80,319,2,274,3
304,305,2,239,3
345,643,2,394,3
80,401,2,473,3
387,347,2,253,3
354,250,2,1,3
183,39,2,536,3
245,163,2,300,3
240,239,2,210,3
428,401,2,317,3
59,420,2,332,3
147,256,2,338,3
110,405,2,498,3
9,463,1,67,3
355,217,2,331,3
187,184,2,411,3
313,40,2,238,3
224,128,2,511,3
518,27,2,403,3
123,371,2,222,3
271,215,2,435,3
229,302,2,143,3
11,307,2,533,3
329,157,2,231,3
223,304,2,800,3
309,412,1,150,3
193,43,2,400,3
94,236,2,394,3
84,109,2,351,3
159,115,2,286,3
443,436,2,339,3
660,510,2,69,3
72,114,2,150,3
285,447,2,153,3
132,174,2,33,3
239,80,2,168,3
270,86,2,101,3
34,107,2,10,3
341,25,2,289,3
188,180,3,703,3
294,126,2,672,3
316,256,2,486,3
433,277,3,1023,3
330,44,200,339,3
310,63,46,1006,3
258,72,10,473,3
29,65,1,250,3
294,80,2,469,3
491,39,2,181,3
113,214,2,308,3
208,244,2,319,3
514,16,2,329,3
89,66,2,237,3
17,251,2,256,3
97,109,2,15,3
216,509,2,434,3
16,73,2,93,3
315,204,3,1023,3
425,62,1,243,3
382,43,2,655,3
409,41,2,135,3
286,10,2,609,3
196,127,2,217,3
187,187,2,402,3
202,91,2,1,3
78,345,2,90,3
377,169,2,347,3
332,335,2,178,3
21,184,2,242,3
123,172,2,111,3
93,101,2,220,3
368,484,2,23,3
287,551,2,30,3
317,458,2,0,3
44,92,2,308,3
412,219,2,131,3
51,219,2,210,3
108,133,2,170,3
109,212,2,285,3
346,465,3,792,3
434,229,2,717,3
275,226,2,765,3
227,271,2,884,3
442,11,2,372,3
447,99,2,462,3
386,77,2,68,3
154,337,2,4,3
130,344,2,435,3
450,137,2,123,3
668,625,2,449,3
453,130,2,830,3
569,456,2,381,3
360,54,2,582,3
462,261,2,228,3
73,243,2,902,3
269,31,10,94,3
214,375,632,1023,3
247,161,194,161,3
13,13,106,1023,3
443,115,479,1023,3
342,51,410,458,3
118,22,99,1017,3
235,89,49,161,3
455,441,4,33,3
419,178,2,172,3
93,317,2,149,3
8,91,3,1023,3
441,481,1,35,3
47,17,595,1023,3
390,63,119,781,3
295,301,20,300,3
359,147,1,182,3
80,147,2,590,3
278,132,114,578,3
52,193,40,844,3
31,118,4,198,3
2,85,1,91,3
207,139,2,29,3
291,131,2,406,3
48,174,2,552,3
140,335,2,368,3
102,33,2,338,3
28,369,2,103,3
6,296,2,344,3
100,213,2,311,3
285,201,2,562,3
111,278,1,781,3
267,176,1,508,3
24,191,1,185,3
76,198,2,314,3
65,332,2,521,3
179,168,2,156,3
217,607,2,317,3
95,143,2,342,3
181,255,2,397,3
29,157,2,30,3
82,37,2,146,3
26,252,2,152,3
150,54,2,126,3
117,230,2,167,3
141,264,2,308,3
84,60,2,523,3
14,288,2,604,3
96,75,2,506,3
7,145,2,319,3
190,64,2,396,3
42,35,2,6,3
59,197,2,339,3
84,117,2,45,3
50,207,2,100,3
52,294,2,216,3
56,46,2,1,3
94,232,2,316,3
84,262,2,15,3
34,197,2,514,3
53,269,2,129,3
101,94,2,3,3
6,203,2,210,3
149,241,2,143,3
27,119,2,96,3
62,128,2,282,3
201,123,2,94,3
54,286,2,190,3
160,82,2,164,3
270,316,2,668,3
261,582,1,236,3
155,154,2,371,3
100,167,2,92,3
77,165,2,61,3
43,143,2,215,3
248,51,2,536,3
214,158,2,123,3
81,337,2,492,3
212,438,1,0,3
29,215,2,239,3
329,491,2,5,3
118,24,2,377,3
174,590,2,339,3
78,306,2,0,3
77,309,2,563,3
120,398,2,189,3
257,204,2,80,3
70,246,2,101,3
38,186,2,324,3
168,310,2,186,3
198,51,2,429,3
99,100,2,36,3
125,258,2,764,3
460,31,2,8,3
416,101,2,79,3
331,96,2,7,3
27,132,2,520,3
285,749,2,338,3
217,76,2,592,3
149,320,1,339,3
302,49,2,654,3
46,22,2,5,3
224,146,2,37,3
43,232,2,142,3
137,121,2,29,3
50,339,2,556,3
195,37,2,105,3
167,204,2,408,3
286,14,2,111,3
43,42,2,357,3
250,34,2,44,3
20,26,2,351,3
356,63,2,25,3
82,287,2,13,3
141,32,2,272,3
55,258,2,163,3
384,214,2,142,3
222,73,2,79,3
83,207,2,51,3
96,91,2,112,3
115,127,2,26,3
33,115,2,164,3
186,244,2,75,3
81,337,2,274,3
13,70,2,134,3
36,88,2,344,3
79,237,2,269,3
43,340,2,254,3
24,268,2,71,3
114,161,2,0,3
5,243,2,44,3
38,34,2,521,3
180,347,2,58,3
59,87,2,331,3
90,243,2,192,3
167,50,2,269,3
111,61,2,212,3
388,134,2,263,3
380,179,2,0,3
27,52,2,106,3
185,365,2,168,3
52,35,2,224,3
116,486,2,529,3
95,61,2,20,3
74,277,2,440,3
6,154,2,160,3
2,31,2,121,3
47,110,2,4,3
51,41,2,124,3
272,468,2,102,3
196,413,2,346,3
290,236,2,249,3
40,328,2,384,3
393,77,2,326,3
167,314,2,189,3
112,281,2,159,3
324,186,2,33,3
336,521,2,93,3
41,94,2,195,3
33,13,2,70,3
195,107,2,135,3
15,87,2,113,3
25,300,2,265,3
13,210,2,45,3
46,240,2,399,3
169,342,2,0,3
114,246,2,12,3
94,392,2,73,3
116,98,2,450,3
181,421,2,81,3
47,365,2,487,3
166,131,2,5,3
26,253,2,244,3
120,117,2,19,3
150,192,2,444,3
156,349,2,103,3
39,353,2,527,3
231,424,2,383,3
342,19,2,228,3
37,142,2,339,3
157,155,2,133,3
74,278,2,8,3
95,369,2,107,3
138,414,2,185,3
241,352,2,51,3
11,225,2,787,3
330,309,2,151,3
237,201,3,1023,3
190,180,2,335,3
203,41,2,227,3
111,267,2,65,3
142,211,2,256,3
167,487,2,128,3
289,522,2,316,3
116,360,2,179,3
176,7,2,270,3
85,81,2,0,3
72,189,2,179,3
13,232,2,177,3
132,263,2,130,3
120,141,2,53,3
82,11,2,380,3
78,195,2,212,3
96,470,2,397,3
100,41,2,278,3
177,329,2,260,3
421,314,2,660,3
261,591,2,301,3
132,69,2,290,3
57,203,2,231,3
55,214,2,199,3
69,152,2,163,3
33,322,2,155,3
9,179,2,138,3
194,392,2,91,3
79,233,2,98,3
103,59,2,5,3
11,278,2,89,3
91,134,2,361,3
4,198,2,116,3
249,67,2,314,3
309,249,2,210,3
251,505,2,154,3
334,131,2,249,3
267,309,2,94,3
31,305,2,100,3
125,13,2,7,3
264,465,2,62,3
70,189,2,129,3
52,251,2,72,3
202,129,2,194,3
65,105,2,11,3
3,396,2,68,3
15,272,2,95,3
21,201,2,135,3
42,180,2,162,3
62,95,2,67,3
130,92,2,141,3
330,69,2,143,3
101,248,2,217,3
132,143,2,198,3
271,126,2,185,3
76,286,2,43,3
76,193,2,36,3
8,160,2,69,3
75,361,2,305,3
242,185,2,43,3
186,423,1,197,3
95,108,2,3,3
147,316,2,117,3
186,585,2,332,3
88,21,2,145,3
141,424,2,436,3
164,114,2,78,3
140,200,2,324,3
204,74,2,24,3
118,38,2,182,3
120,451,2,3,3
120,152,2,260,3
206,236,2,225,3
100,74,2,385,3
478,366,2,185,3
11,223,2,389,3
277,119,2,385,3
234,118,2,607,3
384,213,2,464,3
105,100,2,318,3
172,166,2,341,3
79,231,2,134,3
219,344,2,346,3
177,32,2,186,3
259,268,2,248,3
228,79,2,260,3
284,28,2,15,3
119,213,2,42,3
26,297,2,61,3
298,182,2,8,3
158,580,2,39,3
17,205,2,597,3
216,122,2,77,3
220,90,3,854,3
567,407,1,109,3
51,278,2,728,3
337,231,2,162,3
236,56,2,586,3
243,165,2,224,3
48,37,2,185,3
134,338,2,49,3
56,172,2,28,3
18,29,2,96,3
68,155,2,143,3
286,133,2,51,3
161,340,2,471,3
680,140,2,97,3
113,406,2,296,3
571,19,2,62,3
204,205,2,96,3
277,12,2,130,3
32,24,2,95,3
97,87,2,57,3
123,342,2,16,3
109,63,2,278,3
305,46,2,212,3
120,316,2,512,3
205,102,2,182,3
354,35,2,221,3
16,48,2,395,3
41,372,2,162,3
123,247,2,575,3
303,311,2,105,3
22,293,2,744,3
439,276,2,199,3
213,303,2,474,3
230,73,2,365,3
299,178,2,106,3
15,320,2,495,3
240,249,2,113,3
60,629,2,469,3
267,57,2,25,3
116,438,2,96,3
174,95,2,263,3
487,431,2,176,3
108,528,2,674,3
29,251,2,152,3
128,115,2,417,3
205,132,2,117,3
77,105,2,152,3
40,158,2,387,3
558,663,2,68,3
165,168,2,627,3
946,873,2,81,3
46,23,2,657,3
310,557,2,301,3
149,333,2,372,3
172,24,2,165,3
156,9,2,103,3
239,272,2,480,3
402,396,2,561,3
440,493,2,518,3
393,104,2,87,3
100,149,2,328,3
360,35,2,90,3
134,361,2,265,3
31,292,2,489,3
35,246,2,339,3
12,229,2,649,3
335,258,2,199,3
232,377,2,745,3
196,427,2,313,3
669,503,2,709,3
689,754,2,388,3
23,35,2,582,3
183,396,1,112,3
33,383,2,263,3
17,22,2,218,3
41,289,2,151,3
227,51,2,203,3
305,24,2,160,3
44,28,2,446,3
196,84,2,89,3
244,509,2,246,3
115,44,2,2,3
20,97,2,63,3
30,120,2,230,3
48,6,2,142,3
61,326,2,89,3
131,131,2,203,3
248,501,2,112,3
131,403,2,79,3
65,335,2,13,3
215,167,2,115,3
316,228,2,247,3
585,357,2,135,3
331,31,2,216,3
16,132,2,472,3
16,532,2,352,3
203,93,2,547,3
572,593,2,344,3
373,131,2,469,3
448,386,2,236,3
127,84,2,371,3
531,133,2,145,3
462,574,2,395,3
141,150,2,744,3
539,588,2,188,3
1,111,2,339,3
187,421,2,36,3
156,571,2,175,3
324,426,2,135,3
14,90,2,182,3
301,383,2,179,3
86,78,2,404,3
68,155,2,255,3
92,255,2,587,3
376,55,2,71,3
88,187,2,689,3
64,54,2,104,3
26,232,2,535,3
291,427,2,217,3
389,57,2,318,3
220,447,2,807,3
469,341,1,127,3
293,358,2,755,3
7,55,2,324,3
448,598,2,228,3
218,184,2,493,3
204,446,2,683,3
126,34,2,889,3
64,9,2,421,3
4,20,2,684,3
60,220,2,44,3
105,232,2,259,3
382,311,2,330,3
448,571,2,625,3
190,313,2,398,3
3,226,2,285,3
247,293,2,557,3
187,100,2,508,3
368,170,2,163,3
107,96,2,338,3
273,524,2,89,3
19,101,2,327,3
313,528,2,778,3
83,43,2,682,3
36,238,151,715,3
7,314,43,440,3
172,85,4,218,3
89,270,2,956,3
278,171,1,207,3
380,138,3,896,3
193,510,1,0,3
246,29,2,179,3
125,305,2,506,3
78,241,2,387,3
116,19,2,481,3
49,323,2,312,3
296,304,2,589,3
87,199,2,804,3
242,247,1,162,3
324,258,2,873,3
480,431,2,378,3
140,101,2,547,3
58,260,2,446,3
16,190,2,520,3
189,349,3,632,3
93,524,1,923,3
450,346,2,521,3
261,181,1,835,3
640,310,2,1003,3
94,206,1,84,3
65,243,2,1023,3
248,183,1,374,3
60,231,2,0,3
209,135,2,133,3
239,346,2,194,3
168,396,2,260,3
212,148,2,246,3
188,84,2,612,3
122,27,2,100,3
15,63,2,84,3
193,400,2,361,3
1,20,2,222,3
151,426,2,489,3
49,270,2,347,3
176,239,2,100,3
208,313,2,446,3
185,152,2,179,3
177,172,2,97,3
138,121,2,205,3
75,140,2,514,3
106,276,2,542,3
374,255,2,272,3
139,408,2,363,3
107,24,2,542,3
34,180,2,112,3
49,191,2,17,3
117,93,2,171,3
238,138,2,382,3
3,260,2,359,3
22,77,2,557,3
221,359,2,90,3
44,72,2,579,3
580,699,1,118,3
16,65,2,311,3
420,491,2,337,3
10,202,2,44,3
24,21,2,434,3
239,77,2,84,3
164,110,2,290,3
91,259,2,423,3
7,266,2,583,3
200,110,2,462,3
121,452,2,943,3
504,164,2,148,3
569,653,3,975,3
38,243,1,45,3
104,250,1,18,3
225,20,2,507,3
164,351,2,308,3
172,19,2,667,3
152,488,2,367,3
78,47,2,262,3
194,504,2,774,3
93,125,2,86,3
29,182,2,709,3
16,264,2,110,3
97,56,2,230,3
81,422,2,503,3
450,578,2,403,3
111,6,3,895,3
465,648,2,490,3
156,70,1,139,3
38,211,2,709,3
253,86,95,682,3
309,16,28,568,3
106,137,2,737,3
70,48,1,0,3
20,323,2,459,3
2,87,2,407,3
16,200,2,308,3
19,187,2,371,3
31,29,2,40,3
346,18,2,177,3
96,83,2,171,3
134,235,2,41,3
156,380,2,345,3
9,98,2,71,3
111,242,2,364,3
36,244,1,143,3
26,195,2,235,3
73,330,2,62,3
215,88,2,281,3
85,476,2,236,3
122,93,2,347,3
125,16,2,234,3
140,245,2,82,3
220,124,2,30,3
165,112,2,100,3
347,42,2,23,3
171,97,2,84,3
22,243,2,97,3
154,110,2,230,3
93,345,2,269,3
145,47,2,114,3
27,167,2,18,3
13,195,2,669,3
324,227,2,380,3
55,240,2,647,3
295,38,2,194,3
157,206,2,269,3
69,100,2,369,3
80,57,2,171,3
96,279,2,417,3
187,429,2,467,3
54,174,2,152,3
16,266,2,452,3
252,309,2,275,3
136,309,2,363,3
247,161,2,128,3
199,241,2,117,3
238,451,2,145,3
31,54,2,5,3
135,250,2,76,3
54,135,2,128,3
171,295,2,156,3
341,574,2,419,3
198,16,2,697,3
136,399,1,475,3
95,180,2,522,3
341,549,1,924,3
279,219,1,559,3
110,45,2,476,3
163,273,2,24,3
35,268,2,223,3
282,335,2,366,3
332,480,2,181,3
360,283,2,635,3
230,500,2,427,3
272,17,2,266,3
116,239,2,333,3
157,109,2,13,3
19,118,2,99,3
3,294,2,150,3
126,138,2,181,3
35,71,2,34,3
44,287,2,390,3
4,12,2,253,3
45,347,2,527,3
224,117,2,49,3
166,539,2,594,3
214,133,2,460,3
74,72,2,615,3
145,143,2,60,3
46,347,2,108,3
134,262,2,61,3
41,398,2,345,3
9,26,2,154,3
58,249,2,32,3
129,44,2,104,3
94,42,2,101,3
141,58,2,225,3
269,238,2,170,3
67,418,2,572,3
224,12,2,4,3
210,367,2,454,3
80,159,2,67,3
103,39,2,32,3
133,373,2,261,3
210,388,2,418,3
212,412,2,98,3
7,322,2,488,3
105,62,2,14,3
56,319,2,290,3
46,167,2,0,3
19,267,2,104,3
45,364,2,40,3
6,36,2,116,3
277,621,2,85,3
167,65,2,261,3
104,292,2,155,3
296,50,2,98,3
264,260,2,81,3
102,190,2,231,3
0,233,2,263,3
87,175,2,311,3
7,282,2,160,3
327,204,2,76,3
23,295,2,19,3
255,52,2,179,3
111,209,2,155,3
24,298,2,189,3
46,132,2,253,3
110,462,2,209,3
187,549,2,105,3
14,44,2,53,3
10,320,2,348,3
145,26,2,0,3
45,289,2,295,3
142,41,2,47,3
131,287,2,111,3
67,143,2,84,3
22,51,2,48,3
64,233,2,239,3
230,103,2,102,3
4,154,2,59,3
8,241,2,173,3
95,49,2,0,3
80,392,2,211,3
105,89,2,92,3
136,309,2,104,3
186,11,2,161,3
69,51,2,45,3
90,327,2,221,3
101,168,2,118,3
153,304,2,95,3
50,267,2,159,3
20,95,2,31,3
8,268,2,187,3
81,241,2,78,3
88,15,2,115,3
40,225,2,140,3
69,37,2,34,3
63,357,2,209,3
104,97,2,108,3
18,136,2,90,3
70,89,2,184,3
91,24,2,0,3
20,255,2,240,3
69,89,2,134,3
48,182,2,87,3
168,35,2,122,3
77,85,2,22,3
18,194,2,183,3
107,130,2,114,3
28,124,2,91,3
175,89,2,135,3
138,122,2,5,3
136,172,2,180,3
39,167,2,161,3
20,190,2,80,3
84,235,2,151,3
35,20,2,20,3
7,332,2,180,3
154,108,2,121,3
85,233,2,77,3
46,181,2,157,3
161,146,2,28,3
109,473,2,184,3
184,64,2,120,3
2,168,2,81,3
191,116,2,158,3
80,14,2,23,3
102,373,2,227,3
76,100,2,151,3
98,354,2,94,3
69,370,2,151,3
103,28,2,0,3
88,179,2,181,3
22,257,2,133,3
61,35,2,107,3
16,281,2,142,3
128,82,2,26,3
65,385,2,194,3
135,118,2,89,3
188,286,2,73,3
150,104,2,153,3
152,143,2,11,3
135,219,2,121,3
39,172,2,192,3
2,103,2,11,3
76,186,2,300,3
70,26,2,33,3
13,349,2,271,3
65,196,2,0,3
14,91,2,61,3
143,184,2,133,3
272,252,2,86,3
153,492,2,236,3
4,242,2,24,3
75,227,2,12,3
288,9,2,91,3
257,200,2,49,3
118,359,2,229,3
103,111,2,94,3
30,136,2,23,3
6,307,2,270,3
8,81,2,15,3
34,351,2,180,3
185,68,2,138,3
236,426,2,78,3
63,220,2,253,3
259,191,2,124,3
39,368,2,176,3
336,13,2,115,3
74,212,2,113,3
14,254,2,206,3
79,98,2,162,3
36,385,2,143,3
32,247,2,99,3
173,306,2,27,3
3,242,2,72,3
8,53,2,115,3
71,389,2,222,3
199,52,2,69,3
162,325,2,28,3
23,169,2,38,3
114,229,2,97,3
188,364,2,142,3
185,443,1,368,3
399,503,2,447,3
149,395,2,963,3
251,191,1,40,3
16,295,2,603,3
149,53,2,144,3
4,101,2,289,3
20,228,2,151,3
337,327,2,206,3
119,344,2,53,3
3,205,2,234,3
39,20,2,206,3
2,206,2,183,3
40,263,2,227,3
231,22,2,18,3
32,218,2,83,3
179,100,2,265,3
293,417,2,2,3
11,64,2,250,3
181,351,2,0,3
146,425,2,225,3
7,55,2,31,3
137,402,2,335,3
48,259,2,191,3
205,46,2,633,3
398,127,2,8,3
223,22,3,938,3
208,121,2,178,3
111,85,2,793,3
174,269,2,230,3
335,89,3,1023,3
512,296,2,25,3
14,22,2,475,3
75,311,2,101,3
131,301,2,52,3
101,305,2,134,3
150,54,2,76,3
45,75,2,193,3
76,92,2,266,3
491,91,2,302,3
4,433,2,295,3
207,449,2,365,3
88,263,2,0,3
324,345,2,271,3
170,50,2,86,3
415,14,2,122,3
84,249,2,122,3
180,143,2,113,3
406,381,2,99,3
166,285,2,193,3
113,59,2,164,3
78,69,2,318,3
235,125,2,178,3
366,34,2,435,3
212,546,2,361,3
312,73,2,360,3
114,244,2,58,3
3,61,2,151,3
61,27,2,268,3
28,236,2,65,3
111,215,2,362,3
443,622,2,160,3
175,404,2,81,3
253,280,2,156,3
226,553,2,279,3
108,61,2,216,3
181,257,2,6,3
77,225,2,740,3
152,311,2,507,3
445,458,2,449,3
66,356,2,717,3
275,414,1,138,3
31,244,3,1021,3
6,49,2,12,3
39,493,564,1023,3
132,40,300,122,3
206,70,569,1023,3
107,329,329,107,3
555,572,67,1023,3
212,443,17,225,3
87,138,1,445,3
228,329,2,342,3
176,196,3,516,3
102,365,2,87,3
116,21,2,1,3
74,184,2,40,3
230,331,2,180,3
480,380,2,111,3
205,296,2,47,3
313,492,2,293,3
30,37,2,141,3
137,245,2,56,3
106,115,2,115,3
21,249,2,215,3
297,166,2,347,3
419,204,2,546,3
379,794,2,546,3
440,220,2,705,3
389,503,83,370,3
204,157,18,341,3
194,78,1,516,3
95,47,2,32,3
600,518,2,334,3
129,59,2,114,3
469,609,2,274,3
33,440,2,569,3
882,653,2,480,3
80,269,2,633,3
342,285,2,449,3
224,477,2,777,3
319,214,1,220,3
209,335,2,532,3
192,600,2,191,3
12,36,2,463,3
269,41,2,685,3
418,154,2,98,3
592,429,2,477,3
128,420,2,121,3
41,43,2,29,3
54,218,2,119,3
175,147,2,28,3
333,168,3,1023,3
417,616,2,142,3
370,169,2,936,3
360,371,2,293,3
179,205,2,850,3
472,458,2,950,3
131,248,2,663,3
685,394,2,902,3
15,139,2,632,3
635,258,577,1023,3
303,496,305,492,3
502,112,65,1023,3
227,170,312,488,3
215,134,78,662,3
317,533,10,201,3
51,310,1,651,3
513,181,2,631,3
236,311,147,719,3
553,342,34,838,3
430,454,5,605,3
572,474,1,888,3
45,84,2,202,3
169,255,2,134,3
291,241,2,174,3
645,247,2,434,3
406,615,2,336,3
79,337,2,591,3
9,64,2,17,3
5,196,2,550,3
309,393,2,47,3
356,233,2,64,3
52,33,2,651,3
8,256,2,237,3
167,590,2,276,3
9,224,2,744,3
95,152,2,193,3
6,286,2,451,3
245,517,2,494,3
269,954,3,843,3
168,342,2,64,3
138,244,3,929,3
384,396,1,5,3
261,158,2,652,3
133,345,2,351,3
157,31,2,89,3
192,20,2,692,3
364,93,2,781,3
123,255,2,230,3
7,272,2,725,3
185,37,3,690,3
273,125,2,860,3
235,206,2,129,3
307,202,2,406,3
277,94,2,34,3
146,31,2,83,3
64,59,2,631,3
448,640,2,15,3
29,39,2,578,3
12,352,2,391,3
0,317,2,824,3
11,274,1,20,3
54,169,2,721,3
16,31,2,5,3
202,201,638,1023,3
476,151,176,683,3
127,313,33,364,3
240,115,3,151,3
35,255,2,801,3
36,145,642,1023,3
252,397,225,224,3
171,202,44,339,3
17,394,4,10,3
326,141,1,780,3
70,300,263,541,3
204,103,65,1023,3
312,184,236,518,3
390,65,54,637,3
419,214,6,286,3
37,342,1,883,3
116,145,2,18,3
203,498,2,483,3
53,190,2,134,3
338,54,2,152,3
80,267,2,488,3
280,15,2,327,3
298,352,130,1023,3
57,247,200,277,3
330,181,57,839,3
59,308,10,1023,3
63,133,1,106,3
82,297,2,947,3
433,50,2,412,3
215,12,2,52,3
109,363,2,730,3
33,260,2,567,3
304,355,2,76,3
173,411,2,193,3
61,25,3,641,3
15,282,2,41,3
41,254,2,370,3
219,393,2,43,3
87,375,2,391,3
165,152,2,9,3
31,346,2,297,3
137,33,2,0,3
22,178,2,86,3
73,323,2,754,3
261,216,2,43,3
82,309,561,1023,3
336,25,215,187,3
113,327,40,797,3
182,189,3,217,3
69,49,2,150,3
68,308,2,28,3
115,159,2,460,3
269,337,2,3,3
123,450,2,617,3
92,104,2,20,3
185,298,2,438,3
33,238,2,212,3
33,98,2,19,3
166,133,2,222,3
50,18,2,428,3
78,371,2,137,3
241,26,2,349,3
103,353,2,224,3
79,426,2,167,3
233,64,2,496,3
26,427,587,1023,3
205,128,216,130,3
112,415,42,951,3
24,81,5,305,3
18,111,1,285,3
51,250,2,812,3
119,81,2,321,3
302,450,2,578,3
123,511,2,470,3
221,193,2,189,3
78,286,2,187,3
140,23,2,72,3
3,212,2,94,3
51,102,2,143,3
32,145,2,349,3
351,617,2,888,3
151,137,2,670,3
433,415,2,575,3
182,53,2,105,3
58,21,2,2,3
8,238,2,301,3
148,36,2,198,3
224,355,2,225,3
91,296,2,20,3
145,85,2,317,3
215,410,2,209,3
74,269,2,79,3
122,304,2,5,3
244,441,2,28,3
11,50,2,54,3
45,273,2,217,3
149,139,2,213,3
73,78,2,262,3
121,130,2,292,3
125,171,2,264,3
299,501,2,341,3
80,147,2,103,3
183,74,2,484,3
280,63,2,286,3
97,169,2,104,3
132,222,2,191,3
93,300,2,414,3
199,285,2,93,3
37,280,2,344,3
51,39,2,290,3
24,379,2,732,3
385,175,2,303,3
40,135,2,117,3
27,247,2,105,3
0,86,2,447,3
129,413,2,113,3
54,422,2,243,3
71,234,2,170,3
94,83,2,0,3
179,203,2,4,3
293,448,2,258,3
153,540,2,239,3
270,328,2,144,3
270,591,2,455,3
166,155,2,307,3
45,577,3,840,3
234,82,2,11,3
65,190,2,197,3
10,240,2,52,3
72,19,2,194,3
181,574,2,457,3
38,189,2,274,3
176,428,2,551,3
47,242,2,659,3
195,272,1,246,3
127,522,3,968,3
177,49,2,80,3
65,390,2,73,3
36,301,2,201,3
254,223,2,38,3
23,313,2,155,3
208,61,2,24,3
107,166,2,159,3
95,176,2,139,3
200,293,2,332,3
269,500,2,120,3
252,73,3,948,3
314,409,1,273,3
241,63,2,788,3
281,403,2,401,3
214,88,2,154,3
165,19,2,287,3
22,162,2,49,3
12,257,2,126,3
55,153,2,111,3
111,387,2,383,3
90,210,2,144,3
168,327,2,376,3
143,421,2,175,3
105,154,2,498,3
194,340,2,174,3
5,243,3,863,3
280,335,1,39,3
165,13,2,582,3
113,97,2,116,3
205,77,2,289,3
254,421,2,101,3
151,321,2,157,3
108,428,2,364,3
249,223,2,65,3
46,474,2,576,3
113,87,2,161,3
7,195,2,267,3
73,286,2,145,3
166,215,2,65,3
164,431,2,204,3
6,150,2,55,3
58,251,2,505,3
107,118,2,17,3
108,256,2,245,3
158,395,2,68,3
33,104,2,190,3
4,219,2,132,3
118,440,2,253,3
45,51,2,73,3
333,560,2,82,3
35,153,2,196,3
187,279,2,157,3
188,110,2,2,3
155,59,2,580,3
226,479,2,62,3
195,39,3,975,3
530,557,2,523,3
133,67,2,284,3
147,151,2,265,3
196,107,2,77,3
76,39,2,66,3
8,144,2,139,3
142,118,2,107,3
14,123,2,94,3
6,324,2,250,3
37,222,2,93,3
49,276,2,197,3
332,15,2,145,3
95,144,2,0,3
89,184,2,164,3
122,77,2,195,3
36,257,2,417,3
245,71,2,128,3
105,63,2,311,3
143,183,2,49,3
82,82,2,121,3
95,280,2,124,3
152,466,2,442,3
7,66,2,130,3
5,321,2,550,3
144,109,2,95,3
24,221,2,242,3
91,438,2,56,3
25,92,2,39,3
152,460,2,184,3
4,290,2,70,3
105,294,2,111,3
102,222,2,177,3
191,212,2,36,3
41,406,2,154,3
43,223,2,138,3
211,414,2,157,3
66,445,2,180,3
127,89,2,75,3
128,263,2,188,3
233,9,2,97,3
159,330,2,114,3
46,292,2,179,3
180,195,2,38,3
3,295,2,162,3
86,124,2,117,3
2,165,2,124,3
167,106,2,147,3
15,9,2,7,3
79,177,2,192,3
152,11,2,66,3
206,479,2,102,3
39,232,2,119,3
21,22,2,13,3
62,302,2,205,3
56,240,2,94,3
191,378,2,149,3
164,180,2,148,3
235,187,2,21,3
18,354,2,191,3
17,229,2,88,3
7,152,2,95,3
7,296,2,175,3
32,44,2,0,3
2,311,2,167,3
97,154,2,93,3
27,250,2,151,3
3,356,2,125,3
75,82,2,18,3
258,603,2,316,3
59,198,2,42,3
298,501,2,180,3
91,196,2,13,3
153,135,2,139,3
9,240,2,142,3
5,225,2,174,3
136,60,2,137,3
94,259,2,160,3
11,22,2,29,3
114,243,2,208,3
132,68,2,78,3
19,236,2,28,3
6,353,2,295,3
72,51,2,91,3
91,480,2,277,3
81,212,2,107,3
17,115,2,149,3
81,350,2,3,3
72,73,2,59,3
169,169,2,71,3
56,110,2,311,3
46,241,2,150,3
279,47,2,205,3
273,303,2,103,3
245,570,2,81,3
28,172,2,89,3
66,295,2,183,3
194,156,2,109,3
13,128,2,164,3
189,584,2,18,3
26,205,2,39,3
290,449,2,127,3
39,253,2,0,3
494,499,2,403,3
127,309,2,395,3
37,231,2,13,3
134,159,2,491,3
269,33,2,109,3
229,183,2,146,3
370,67,2,0,3
491,196,2,149,3
83,244,2,309,3
19,464,2,45,3
46,82,2,145,3
212,42,2,38,3
9,140,2,272,3
173,306,2,357,3
4,350,2,66,3
87,7,2,211,3
110,149,2,121,3
144,19,2,391,3
143,165,2,469,3
258,25,2,347,3
124,168,2,561,3
5,184,2,681,3
179,15,2,77,3
238,425,2,1023,3
494,306,2,354,3
322,514,2,401,3
210,63,2,557,3
3,144,2,288,3
62,210,2,224,3
305,661,2,306,3
374,419,2,647,3
164,270,2,486,3
125,163,2,71,3
83,319,2,615,3
26,448,2,120,3
85,174,2,126,3
72,292,2,41,3
70,93,2,146,3
115,204,2,170,3
550,584,2,207,3
114,107,2,326,3
120,411,2,431,3
48,248,2,608,3
24,480,2,569,3
166,559,2,599,3
148,40,2,293,3
446,703,2,301,3
17,317,2,37,3
412,485,2,342,3
41,312,1,176,3
243,249,2,403,3
122,383,2,385,3
520,197,2,144,3
172,361,2,164,3
584,129,2,540,3
207,183,2,198,3
518,208,2,779,3
151,45,2,374,3
305,114,3,1014,3
259,17,1,27,3
30,235,2,456,3
287,207,2,46,3
63,126,2,363,3
29,55,2,506,3
284,149,2,273,3
223,20,3,747,3
597,428,2,183,3
21,35,2,886,3
523,153,1,75,3
442,393,3,901,3
857,523,2,162,3
364,355,2,584,3
119,577,2,563,3
183,124,2,228,3
263,430,2,241,3
238,400,2,207,3
307,223,2,137,3
144,62,3,443,3
20,261,2,78,3
24,345,3,939,3
147,100,2,149,3
320,202,2,468,3
609,143,2,241,3
283,127,2,700,3
663,199,2,308,3
548,89,2,604,3
237,78,2,299,3
422,387,2,197,3
45,46,2,532,3
60,76,2,152,3
70,49,2,424,3
205,390,1,9,3
9,317,2,475,3
236,444,2,49,3
108,111,2,463,3
90,133,2,311,3
307,308,2,210,3
343,27,3,714,3
299,251,2,9,3
260,181,2,716,3
65,73,2,250,3
779,303,2,572,3
466,693,2,195,3
346,154,2,497,3
281,145,2,83,3
31,197,2,266,3
318,226,2,130,3
261,102,2,137,3
90,287,2,15,3
239,18,2,95,3
468,523,2,43,3
523,796,2,236,3
61,97,2,334,3
381,711,2,230,3
382,35,2,279,3
41,277,2,445,3
304,132,2,472,3
306,30,2,315,3
56,103,2,417,3
81,180,2,446,3
15,301,2,162,3
196,484,2,5,3
152,125,2,508,3
60,225,2,148,3
331,372,63,884,3
113,29,51,392,3
304,162,6,659,3
316,423,1,246,3
410,353,5,1023,3
571,610,1,61,3
62,224,2,401,3
29,273,2,672,3
331,29,2,232,3
33,86,2,542,3
534,239,2,0,3
55,286,2,630,3
359,140,2,425,3
48,342,2,240,3
311,106,2,586,3
389,90,2,185,3
62,127,2,817,3
480,145,2,463,3
248,602,2,748,3
372,280,2,575,3
387,36,1,1,3
42,10,2,119,3
127,57,2,317,3
247,385,2,520,3
232,283,2,170,3
244,488,2,298,3
214,37,2,96,3
180,92,2,195,3
14,91,2,341,3
192,298,2,628,3
3,196,2,387,3
345,325,2,720,3
641,536,2,137,3
301,205,2,896,3
699,644,2,762,3
378,342,1,125,3
504,511,589,1023,3
382,544,244,274,3
457,183,521,1023,3
441,370,159,98,3
18,360,226,1023,3
279,158,41,427,3
50,457,4,345,3
601,77,2,721,3
52,78,2,487,3
23,247,2,159,3
88,51,2,171,3
181,385,2,161,3
240,137,2,29,3
126,117,2,161,3
362,466,2,589,3
284,33,2,207,3
56,401,2,825,3
65,31,2,655,3
435,426,2,373,3
21,251,2,629,3
20,247,2,495,3
105,229,3,915,3
15,145,2,11,3
7,297,2,621,3
105,61,2,710,3
241,180,2,923,3
225,563,1,306,3
627,326,2,807,3
8,260,2,487,3
868,553,2,700,3
346,518,329,773,3
42,312,109,1023,3
203,34,288,465,3
2,306,64,673,3
434,136,7,75,3
120,68,1,269,3
167,300,3,710,3
217,373,3,873,3
202,158,2,314,3
190,418,632,1023,3
21,259,418,904,3
551,154,361,1023,3
921,235,503,914,3
57,207,379,1023,3
135,360,198,153,3
172,38,36,1,3
92,296,2,5,3
149,104,2,270,3
354,103,1,90,3
100,63,446,1023,3
584,325,221,433,3
3,58,41,574,3
118,139,3,378,3
234,566,1,447,3
212,497,411,1023,3
507,374,158,346,3
25,347,26,672,3
211,189,2,101,3
171,278,2,782,3
285,145,3,900,3
280,140,2,149,3
126,295,2,649,3
173,34,2,239,3
270,414,2,61,3
197,10,2,1,3
207,246,629,1023,3
7,16,147,442,3
222,244,329,1023,3
517,484,209,352,3
464,543,37,485,3
14,143,3,49,3
53,243,2,4,3
64,145,2,395,3
261,320,2,121,3
192,374,2,149,3
100,41,2,181,3
128,350,2,327,3
154,217,2,65,3
92,227,2,154,3
89,274,2,146,3
150,214,2,0,3
46,215,2,25,3
102,12,2,0,3
26,234,2,41,3
4,233,2,122,3
90,129,2,10,3
17,187,2,139,3
3,113,2,170,3
101,294,2,240,3
7,218,2,521,3
47,86,2,207,3
4,238,2,76,3
262,238,2,89,3
87,117,2,157,3
180,240,2,86,3
105,53,2,68,3
67,145,2,260,3
83,14,2,183,3
59,285,3,642,3
48,273,2,211,3
119,220,2,847,3
213,96,1,184,3
1,105,2,0,3
37,308,2,311,3
31,202,2,379,3
272,324,2,273,3
38,272,2,286,3
177,11,2,197,3
194,383,2,146,3
137,163,2,190,3
144,323,2,237,3
36,382,2,265,3
44,133,2,27,3
72,135,2,300,3
14,357,2,252,3
104,129,2,221,3
181,418,2,683,3
105,154,2,272,3
42,303,2,603,3
154,144,2,48,3
22,114,2,242,3
6,272,2,175,3
8,49,2,226,3
162,419,2,352,3
40,74,2,0,3
35,33,2,71,3
186,71,2,12,3
141,240,2,159,3
188,444,2,313,3
226,390,2,233,3
302,154,2,183,3
188,18,2,443,3
34,64,2,50,3
27,269,2,178,3
21,256,2,216,3
413,173,2,223,3
43,308,2,331,3
181,35,2,226,3
195,19,3,807,3
413,352,1,41,3
199,13,2,579,3
261,87,2,32,3
13,52,2,214,3
184,56,2,185,3
267,60,2,203,3
38,57,2,269,3
112,113,2,362,3
86,42,2,95,3
116,60,2,224,3
128,124,2,84,3
6,114,2,481,3
331,41,2,73,3
97,69,2,276,3
335,64,2,267,3
301,97,2,100,3
39,108,2,84,3
313,433,2,59,3
89,143,2,140,3
37,182,2,235,3
64,262,2,320,3
139,202,2,28,3
103,402,2,431,3
194,57,2,202,3
143,368,2,540,3
214,37,2,359,3
24,184,2,118,3
29,168,2,577,3
44,121,2,356,3
137,282,2,134,3
22,422,2,793,3
354,233,1,87,3
44,208,2,416,3
141,237,2,150,3
76,70,2,333,3
2,69,2,0,3
35,58,2,170,3
76,358,1,262,3
62,126,2,75,3
60,306,2,119,3
117,167,2,85,3
60,99,2,156,3
358,481,2,72,3
80,282,2,327,3
148,351,2,60,3
85,233,2,329,3
37,126,2,347,3
20,270,2,409,3
61,217,2,326,3
20,408,2,162,3
464,567,2,250,3
108,164,2,236,3
17,217,2,203,3
184,112,2,192,3
191,479,2,431,3
74,7,2,112,3
55,114,2,380,3
169,339,2,523,3
83,132,2,19,3
162,337,2,395,3
150,416,2,323,3
23,11,2,295,3
157,448,2,301,3
112,141,2,355,3
116,63,2,700,3
517,158,2,133,3
182,306,2,535,3
342,93,2,267,3
106,19,2,75,3
6,304,2,16,3
85,235,2,652,3
273,319,2,172,3
158,58,2,553,3
182,108,2,196,3
142,342,2,131,3
115,219,2,238,3
45,100,2,411,3
36,142,2,4,3
93,316,2,589,3
129,267,2,277,3
88,222,2,264,3
17,68,2,139,3
82,178,2,83,3
12,232,2,63,3
74,270,2,97,3
118,237,2,176,3
140,226,2,0,3
2,366,2,221,3
120,26,2,1,3
157,450,2,115,3
5,349,2,273,3
251,193,2,59,3
177,425,2,260,3
115,95,2,24,3
43,246,2,129,3
33,299,2,31,3
250,358,2,60,3
209,460,2,272,3
13,61,2,134,3
8,241,2,472,3
135,110,2,116,3
180,290,2,170,3
29,360,2,72,3
27,84,2,136,3
2,225,2,121,3
40,251,2,180,3
117,187,2,121,3
65,243,2,170,3
195,38,2,92,3
131,437,2,55,3
26,288,2,0,3
16,141,2,112,3
11,322,2,252,3
122,60,2,89,3
138,395,2,273,3
30,218,2,48,3
20,123,2,23,3
403,164,2,147,3
34,94,2,38,3
47,125,2,129,3
47,361,2,183,3
112,244,2,88,3
125,540,2,173,3
211,66,2,15,3
140,402,1,155,3
78,191,2,127,3
104,154,2,233,3
197,448,2,398,3
171,347,2,372,3
16,248,2,578,3
23,266,2,182,3
104,203,2,237,3
26,263,2,82,3
13,139,2,113,3
38,276,2,152,3
141,104,2,283,3
209,284,2,27,3
112,115,2,233,3
52,83,2,22,3
215,70,2,40,3
111,25,2,159,3
175,138,2,53,3
114,12,2,158,3
69,6,2,107,3
22,80,2,59,3
202,32,2,212,3
80,138,2,27,3
37,142,2,131,3
182,102,2,80,3
96,333,2,167,3
67,236,2,116,3
185,249,2,211,3
161,94,2,229,3
182,94,2,22,3
220,540,2,120,3
56,220,2,104,3
314,370,2,25,3
69,301,2,224,3
197,85,2,135,3
32,237,2,202,3
63,156,2,57,3
68,139,2,22,3
41,209,2,90,3
23,81,2,113,3
111,308,2,386,3
179,107,2,138,3
250,295,2,332,3
97,348,2,121,3
73,44,2,52,3
11,191,2,102,3
190,9,2,154,3
145,220,2,55,3
125,107,2,30,3
136,320,2,28,3
41,167,2,146,3
113,408,2,91,3
84,28,2,156,3
16,225,2,60,3
115,82,2,43,3
4,156,2,133,3
159,81,2,157,3
99,194,2,67,3
31,143,2,135,3
26,141,2,84,3
59,260,2,267,3
10,219,2,97,3
215,317,2,170,3
5,289,2,285,3
113,31,2,105,3
27,280,2,320,3
12,250,2,21,3
108,207,2,96,3
89,193,2,57,3
113,19,2,67,3
51,347,2,43,3
2,324,2,152,3
31,57,2,59,3
94,147,2,245,3
140,54,2,0,3
17,201,2,224,3
116,298,2,137,3
12,9,2,38,3
129,302,2,99,3
303,169,2,266,3
306,479,2,82,3
101,111,2,367,3
259,352,2,50,3
141,113,2,323,3
146,42,2,3,3
30,271,2,184,3
35,200,2,78,3
221,349,2,32,3
60,165,2,229,4
254,184,2,119,4
60,224,2,311,4
169,47,2,82,4
196,210,2,144,4
176,303,2,29,4
252,212,2,29,4
286,439,2,22,4
48,146,2,158,4
109,204,2,37,4
5,194,2,213,4
139,157,2,3,4
103,202,2,113,4
50,119,2,9,4
240,251,2,0,4
286,458,2,155,4
8,126,2,121,4
177,506,2,169,4
32,276,2,20,4
110,209,2,119,4
224,404,2,3,4
58,53,2,419,4
121,335,2,1,4
225,27,2,549,4
258,353,2,5,4
100,217,2,420,4
265,192,2,256,4
247,27,2,446,4
97,68,2,107,4
81,148,2,198,4
165,7,2,0,4
42,13,2,255,4
114,231,2,276,4
11,371,2,33,4
210,42,2,133,4
83,142,2,301,4
135,194,2,99,4
39,166,2,41,4
31,317,2,82,4
226,298,2,25,4
76,299,2,147,4
98,104,2,268,4
123,96,2,235,4
163,74,2,0,4
88,166,2,263,4
48,224,2,14,4
145,26,2,50,4
51,289,2,23,4
111,382,2,67,4
131,41,2,179,4
16,203,2,181,4
87,11,2,175,4
255,351,2,207,4
27,316,2,276,4
212,120,2,77,4
134,188,2,424,4
165,163,2,245,4
337,565,2,199,4
17,181,2,200,4
424,461,2,0,4
63,69,2,56,4
156,118,2,450,4
11,377,2,119,4
183,25,2,219,4
121,327,2,193,4
56,136,2,534,4
128,52,2,209,4
7,269,2,600,4
235,21,2,62,4
61,110,2,97,4
57,49,2,0,4
23,122,2,150,4
99,406,2,497,4
296,188,1,49,4
108,230,2,350,4
201,166,2,185,4
4,93,2,42,4
287,170,2,695,4
33,298,2,63,4
307,91,2,559,4
290,248,2,261,4
47,17,2,153,4
451,73,2,426,4
70,153,2,309,4
188,437,2,194,4
187,410,2,155,4
228,14,2,240,4
71,185,2,0,4
111,149,2,128,4
196,320,2,119,4
131,195,2,80,4
185,19,2,295,4
52,230,2,134,4
187,118,2,609,4
24,117,2,90,4
114,143,2,85,4
83,77,2,176,4
70,153,2,209,4
37,115,2,60,4
224,259,2,198,4
446,536,2,57,4
11,35,2,450,4
365,745,2,0,4
176,69,2,670,4
118,147,2,102,4
455,289,1,322,4
189,36,2,88,4
847,677,2,375,4
59,224,1,112,4
332,507,2,477,4
357,31,2,157,4
305,373,2,381,4
117,336,2,151,4
316,31,2,37,4
338,309,2,209,4
333,417,2,427,4
19,171,2,242,4
200,477,2,42,4
82,44,2,480,4
140,284,2,505,4
241,318,2,348,4
432,143,2,373,4
252,420,2,16,4
365,38,2,182,4
172,332,2,12,4
176,140,2,435,4
98,11,2,93,4
130,234,2,532,4
300,62,2,353,4
610,570,2,401,4
48,449,2,250,4
291,54,2,249,4
149,372,2,0,4
151,16,3,858,4
121,63,2,49,4
20,19,2,816,4
9,146,2,286,4
221,318,2,463,4
314,44,2,259,4
67,143,2,4,4
275,82,2,15,4
232,222,2,458,4
60,425,2,81,4
207,26,2,449,4
246,282,2,11,4
587,379,2,93,4
191,231,2,40,4
768,683,2,239,4
278,418,2,340,4
184,366,2,166,4
349,513,3,741,4
197,48,2,134,4
14,303,2,558,4
205,58,2,674,4
147,386,2,124,4
161,175,2,706,4
135,54,2,60,4
214,52,2,380,4
76,220,2,218,4
16,37,2,154,4
79,416,2,47,4
95,63,2,106,4
676,621,2,308,4
43,205,2,221,4
660,638,2,169,4
182,284,2,419,4
546,405,2,131,4
271,498,2,560,4
161,250,2,178,4
70,331,2,561,4
73,455,2,247,4
66,133,2,497,4
41,185,2,640,4
419,163,2,137,4
92,458,2,306,4
71,252,2,160,4
44,50,2,352,4
53,296,2,62,4
3,226,2,203,4
124,387,2,130,4
47,154,2,126,4
198,204,2,212,4
199,135,2,660,4
340,159,2,466,4
131,107,3,834,4
514,159,2,377,4
78,115,2,548,4
320,100,2,169,4
10,56,2,210,4
167,95,2,349,4
81,173,2,381,4
315,341,2,350,4
180,118,2,706,4
186,101,2,394,4
407,17,2,672,4
371,46,2,543,4
378,98,2,348,4
352,22,2,229,4
164,213,2,328,4
234,111,2,502,4
308,227,2,130,4
341,283,2,512,4
720,649,1,470,4
261,419,2,218,4
349,48,2,263,4
471,271,2,196,4
404,163,627,1023,4
710,931,196,84,4
308,165,38,979,4
243,446,4,264,4
191,179,2,845,4
311,238,2,163,4
16,330,2,235,4
264,202,2,114,4
18,123,2,440,4
113,174,2,134,4
177,170,2,535,4
15,189,2,736,4
363,117,2,1023,4
241,353,2,505,4
39,213,2,809,4
115,161,1,315,4
7,127,2,567,4
228,291,2,61,4
292,197,2,459,4
188,125,2,424,4
90,58,2,91,4
194,117,2,594,4
175,209,2,18,4
10,66,2,182,4
324,237,2,133,4
24,58,2,668,4
131,168,2,40,4
267,115,2,459,4
132,252,2,83,4
30,435,2,598,4
135,253,1,124,4
241,136,2,46,4
296,59,2,838,4
381,147,2,618,4
248,805,42,687,4
16,22,8,145,4
219,429,1,179,4
40,50,2,73,4
91,32,2,325,4
7,188,2,58,4
115,65,3,1023,4
99,168,21,60,4
59,421,2,229,4
507,344,1,5,4
145,208,2,162,4
630,543,2,496,4
373,697,2,648,4
363,349,2,70,4
260,318,2,659,4
444,444,2,477,4
34,213,2,880,4
209,437,1,566,4
331,329,1,178,4
24,166,2,188,4
133,120,2,5,4
196,424,2,383,4
123,221,2,548,4
9,150,2,385,4
188,134,2,134,4
188,287,2,410,4
143,107,2,147,4
57,271,2,359,4
3,460,2,379,4
43,271,2,256,4
94,354,2,241,4
244,34,2,31,4
182,188,2,574,4
430,349,2,157,4
32,22,2,224,4
182,395,2,273,4
11,15,2,215,4
283,563,2,439,4
80,277,2,0,4
12,191,2,38,4
26,260,2,166,4
141,101,2,116,4
51,185,2,264,4
123,79,2,12,4
71,262,2,76,4
142,127,2,383,4
92,62,2,188,4
86,167,2,25,4
261,310,2,152,4
133,54,2,43,4
51,181,2,490,4
234,303,2,84,4
22,258,2,385,4
182,28,2,0,4
58,253,2,58,4
4,233,2,232,4
74,105,2,31,4
52,338,2,157,4
9,72,2,292,4
103,317,2,81,4
38,156,2,319,4
144,21,2,19,4
59,360,2,202,4
420,435,2,4,4
81,287,2,143,4
24,451,1,70,4
22,261,2,135,4
98,361,2,192,4
101,268,2,295,4
1,228,2,253,4
9,205,2,195,4
4,75,2,267,4
29,422,2,494,4
44,115,2,553,4
260,367,2,210,4
275,102,2,429,4
160,157,2,281,4
54,252,2,466,4
223,23,2,45,4
0,259,2,119,4
107,124,2,299,4
41,156,2,113,4
57,229,2,434,4
267,85,2,259,4
231,312,2,344,4
218,166,2,0,4
83,104,2,124,4
41,341,2,258,4
75,121,2,516,4
246,453,2,397,4
205,150,2,699,4
272,177,1,41,4
22,265,2,282,4
89,65,2,218,4
83,253,2,6,4
124,230,2,41,4
72,159,2,60,4
15,303,2,184,4
2,70,2,22,4
127,278,2,271,4
72,36,2,115,4
133,48,2,517,4
6,44,2,202,4
37,129,2,0,4
47,121,2,348,4
28,166,2,298,4
225,215,2,188,4
294,658,2,483,4
6,384,2,317,4
179,296,2,152,4
79,451,2,358,4
91,111,2,39,4
73,246,2,322,4
345,214,2,63,4
182,421,2,492,4
215,45,2,92,4
269,364,2,307,4
68,173,2,84,4
225,207,2,196,4
439,753,2,85,4
14,395,2,180,4
471,536,2,316,4
143,232,2,650,4
371,273,1,154,4
32,363,2,514,4
212,10,2,353,4
33,158,2,4,4
33,273,2,6,4
36,345,2,364,4
130,252,2,380,4
220,74,2,143,4
346,391,2,517,4
42,288,2,96,4
33,11,2,400,4
233,74,2,306,4
270,370,2,434,4
83,175,2,752,4
429,559,2,0,4
108,29,2,327,4
271,493,2,390,4
112,186,2,3,4
68,147,2,51,4
213,326,2,107,4
214,312,2,279,4
216,341,2,87,4
99,109,2,539,4
111,29,2,334,4
199,176,2,324,4
284,21,2,183,4
119,33,2,12,4
119,180,2,135,4
30,14,2,9,4
23,281,2,284,4
113,85,2,13,4
30,236,2,190,4
185,152,2,0,4
117,102,2,70,4
47,205,2,173,4
47,112,2,123,4
181,396,2,238,4
31,266,2,44,4
64,152,2,140,4
2,294,2,0,4
402,245,2,146,4
483,628,2,202,4
216,98,2,150,4
167,189,2,66,4
165,99,2,80,4
198,15,2,82,4
169,270,2,139,4
178,71,2,225,4
191,232,2,185,4
135,341,2,31,4
122,29,2,568,4
338,434,2,350,4
142,206,2,104,4
367,361,2,359,4
352,540,2,19,4
8,163,2,0,4
135,319,2,10,4
3,252,2,143,4
128,158,2,13,4
171,488,1,251,4
298,166,2,48,4
237,478,2,83,4
149,93,2,178,4
29,74,2,61,4
71,245,2,152,4
331,165,2,257,4
270,496,2,377,4
64,135,2,130,4
55,49,2,527,4
223,512,2,12,4
180,327,2,111,4
76,156,2,79,4
2,312,2,199,4
169,189,2,100,4
14,281,2,121,4
174,27,2,113,4
36,269,2,163,4
104,149,2,155,4
7,53,2,17,4
61,350,2,172,4
183,7,2,0,4
300,578,2,0,4
165,127,2,87,4
342,398,2,85,4
177,424,2,378,4
170,15,2,39,4
87,285,2,95,4
20,180,2,86,4
73,104,2,15,4
59,261,2,209,4
90,58,2,97,4
11,182,2,161,4
28,232,2,167,4
18,53,2,78,4
6,286,2,38,4
98,283,2,200,4
43,214,2,31,4
17,351,2,344,4
5,33,2,49,4
146,442,2,277,4
3,240,2,104,4
154,340,2,268,4
67,200,2,75,4
207,285,2,0,4
24,202,2,98,4
185,64,2,117,4
102,313,2,181,4
149,96,2,63,4
157,202,2,22,4
7,270,2,248,4
75,133,2,119,4
78,108,2,158,4
84,143,2,30,4
195,200,2,74,4
24,219,2,275,4
11,91,2,50,4
38,263,2,209,4
76,179,2,84,4
40,86,2,12,4
103,382,2,155,4
337,559,2,40,4
37,171,2,24,4
20,254,2,264,4
149,200,2,136,4
41,241,2,262,4
330,154,2,159,4
128,50,2,12,4
123,124,2,29,4
57,38,2,7,4
93,393,2,169,4
81,13,2,59,4
131,353,2,196,4
38,164,2,129,4
64,147,2,118,4
129,134,2,0,4
22,118,2,101,4
26,253,2,46,4
24,261,2,344,4
7,42,2,19,4
158,434,2,404,4
331,149,2,33,4
332,546,2,318,4
145,375,2,113,4
23,87,2,113,4
191,142,2,209,4
133,13,2,264,4
86,236,2,191,4
87,90,2,124,4
41,39,2,108,4
366,107,2,0,4
81,68,2,200,4
174,425,2,149,4
44,176,2,384,4
370,451,2,214,4
259,464,2,372,4
118,98,2,18,4
42,189,2,334,4
13,42,2,25,4
498,465,2,339,4
183,265,2,77,4
173,31,2,23,4
4,198,2,116,4
29,254,2,177,4
113,8,2,144,4
117,186,2,35,4
39,213,2,420,4
15,186,2,23,4
18,302,2,193,4
167,194,3,201,4
112,82,2,0,4
68,56,2,2,4
81,43,2,142,4
6,213,2,34,4
75,57,2,375,4
294,614,2,224,4
262,228,2,221,4
26,117,2,158,4
211,240,2,7,4
73,69,2,144,4
81,13,2,0,4
204,89,2,278,4
457,426,2,146,4
24,232,2,687,4
174,140,2,187,4
622,946,3,1015,4
214,61,2,576,4
449,634,2,783,4
407,21,2,345,4
15,196,2,564,4
197,80,2,89,4
21,337,2,0,4
261,252,2,82,4
216,279,2,597,4
117,12,2,344,4
466,8,2,277,4
324,174,2,606,4
635,37,2,183,4
120,59,2,274,4
236,112,2,253,4
14,403,2,290,4
655,643,2,576,4
489,69,2,279,4
167,192,2,700,4
285,192,2,648,4
244,30,2,637,4
100,27,23,1023,4
472,555,1,697,4
165,406,514,1023,4
8,107,258,408,4
424,82,502,1023,4
364,103,334,84,4
331,11,555,1023,4
239,87,149,36,4
192,61,606,1023,4
268,159,151,126,4
162,189,22,1023,4
271,28,2,93,4
15,175,2,714,4
266,54,2,154,4
499,114,3,845,4
207,25,2,187,4
114,419,2,368,4
198,28,2,203,4
490,310,2,206,4
61,320,2,6,4
136,81,2,12,4
212,77,2,115,4
76,221,2,201,4
180,77,2,77,4
70,30,2,296,4
170,53,2,262,4
49,99,2,356,4
126,247,2,688,4
279,134,2,663,4
5,233,2,448,4
182,9,2,423,4
254,478,2,524,4
245,372,2,123,4
60,255,2,142,4
395,505,2,390,4
92,36,2,44,4
449,565,3,760,4
366,183,2,49,4
278,368,2,420,4
137,183,2,315,4
113,78,2,7,4
171,209,2,649,4
26,86,2,32,4
497,160,2,672,4
216,39,2,497,4
98,183,2,41,4
53,75,2,191,4
487,393,2,51,4
109,183,2,56,4
129,19,2,237,4
461,137,2,62,4
349,360,77,1023,4
95,71,3,674,4
282,383,13,1023,4
210,73,2,851,4
314,414,266,1023,4
559,104,112,822,4
690,299,233,803,4
214,145,96,860,4
609,177,14,330,4
35,33,1,556,4
284,220,2,279,4
91,156,2,398,4
82,173,2,35,4
112,171,2,313,4
132,45,3,200,4
117,102,2,620,4
202,294,2,31,4
647,248,2,234,4
124,588,1,203,4
481,238,2,116,4
95,125,2,352,4
435,349,2,351,4
295,270,2,264,4
528,659,3,786,4
232,271,1,71,4
17,32,1,249,4
278,374,2,341,4
271,188,2,235,4
175,171,2,304,4
178,416,1,328,4
148,276,2,9,4
44,288,2,292,4
43,121,2,614,4
211,213,2,498,4
481,239,2,915,4
495,585,2,259,4
92,232,1,987,4
725,467,1,212,4
188,385,265,1023,4
844,417,143,418,4
105,484,427,1023,4
575,518,150,708,4
130,496,198,447,4
97,261,51,366,4
243,224,5,119,4
54,134,1,264,4
370,505,2,136,4
130,131,3,672,4
1023,638,3,190,4
281,73,2,672,4
273,575,2,353,4
540,282,2,2,4
179,10,3,561,4
64,61,2,664,4
41,41,2,214,4
5,307,2,361,4
52,296,2,474,4
52,246,2,36,4
52,286,3,841,4
623,70,2,381,4
317,412,2,540,4
198,135,2,237,4
18,405,413,1023,4
237,200,286,554,4
453,423,370,1023,4
95,148,122,468,4
319,213,18,507,4
242,407,1,778,4
486,123,2,254,4
501,327,3,937,4
213,372,2,593,4
298,595,2,705,4
299,159,2,48,4
413,478,2,474,4
465,437,2,466,4
272,279,2,431,4
311,386,2,358,4
358,441,2,187,4
50,343,3,927,4
465,151,2,124,4
349,575,2,507,4
9,132,2,201,4
162,561,2,258,4
376,682,2,828,4
738,504,1,115,4
138,56,481,1023,4
698,863,378,517,4
187,471,254,1023,4
174,174,247,836,4
84,263,45,642,4
47,253,4,776,4
212,74,2,323,4
477,466,3,640,4
186,417,2,439,4
175,197,2,486,4
92,269,2,436,4
180,235,3,574,4
105,84,2,179,4
160,113,2,392,4
50,95,2,82,4
44,231,2,23,4
55,63,2,36,4
210,174,3,272,4
56,115,2,184,4
273,392,2,262,4
75,432,2,252,4
124,19,2,264,4
39,212,2,415,4
203,24,2,257,4
159,130,2,284,4
32,144,2,215,4
79,176,2,523,4
198,50,2,186,4
135,209,2,438,4
74,156,2,71,4
268,288,2,580,4
174,255,2,3,4
194,255,2,287,4
97,272,2,20,4
235,94,2,35,4
6,289,2,449,4
34,153,2,5,4
141,243,2,150,4
16,213,2,403,4
29,82,2,279,4
269,587,2,388,4
70,263,2,485,4
111,75,2,55,4
135,228,2,42,4
3,12,2,78,4
5,293,2,240,4
190,23,2,159,4
63,165,2,227,4
116,83,2,88,4
116,125,2,97,4
109,321,2,440,4
68,88,2,151,4
20,61,1,13,4
86,224,2,93,4
28,57,2,252,4
350,483,2,169,4
159,173,2,428,4
81,175,2,230,4
310,275,1,732,4
128,33,1,781,4
262,365,1,288,4
128,341,2,264,4
14,53,2,88,4
169,348,2,280,4
57,61,2,69,4
39,282,2,167,4
91,12,2,266,4
1,86,2,85,4
204,21,2,227,4
200,55,2,444,4
284,321,2,20,4
90,137,3,1019,4
539,475,1,12,4
231,641,164,1023,4
525,319,108,96,4
38,279,16,551,4
51,21,1,540,4
244,181,2,290,4
140,118,2,90,4
223,103,2,30,4
73,393,2,342,4
75,205,2,190,4
14,131,2,241,4
14,198,2,82,4
195,137,2,393,4
217,246,1,0,4
102,21,2,493,4
110,126,2,159,4
183,34,2,342,4
322,339,2,271,4
10,201,2,203,4
58,34,2,49,4
16,10,2,7,4
45,181,2,324,4
114,85,2,672,4
114,351,2,264,4
296,497,2,585,4
140,229,2,189,4
229,315,2,416,4
180,164,2,119,4
38,410,2,453,4
6,172,2,243,4
145,159,2,490,4
33,134,2,177,4
152,119,2,299,4
145,281,2,441,4
276,378,2,244,4
127,225,2,203,4
34,223,2,728,4
163,124,2,88,4
107,434,2,470,4
198,13,2,63,4
190,207,2,440,4
66,210,2,47,4
130,210,2,188,4
79,242,2,128,4
104,70,2,286,4
358,390,2,159,4
68,332,2,472,4
9,96,2,297,4
65,220,2,366,4
45,164,2,32,4
119,261,2,18,4
36,205,2,187,4
144,102,2,87,4
121,407,2,172,4
7,257,2,25,4
120,44,2,61,4
130,129,2,15,4
135,55,2,309,4
67,105,2,10,4
231,255,2,200,4
76,254,2,72,4
140,287,2,161,4
69,185,2,126,4
64,244,2,459,4
33,267,2,195,4
172,380,2,115,4
1,300,2,152,4
527,322,2,144,4
156,451,2,272,4
148,27,2,390,4
10,219,2,244,4
91,118,2,221,4
139,161,2,156,4
71,165,2,25,4
35,281,2,256,4
163,150,2,174,4
71,284,2,417,4
231,108,2,23,4
68,237,2,404,4
168,97,2,178,4
124,231,2,24,4
5,222,2,159,4
89,113,2,205,4
86,370,2,234,4
85,183,2,13,4
49,194,2,173,4
24,256,2,253,4
106,94,2,258,4
157,337,2,454,4
99,85,2,418,4
191,271,2,208,4
30,116,2,319,4
184,195,2,24,4
121,182,2,281,4
83,104,2,69,4
109,232,2,93,4
8,218,2,255,4
215,296,2,314,4
167,186,2,120,4
343,188,2,184,4
120,150,2,104,4
121,319,2,114,4
135,53,2,168,4
143,358,2,0,4
12,216,2,370,4
147,211,2,101,4
216,15,2,269,4
32,22,2,8,4
21,268,2,98,4
30,181,2,180,4
268,377,2,164,4
189,390,2,17,4
167,49,2,192,4
321,496,2,5,4
46,214,2,444,4
203,245,2,101,4
20,265,2,246,4
185,128,2,81,4
8,270,2,113,4
32,295,2,276,4
5,37,2,93,4
124,341,2,370,4
45,25,2,107,4
15,253,2,355,4
123,152,2,48,4
226,325,2,91,4
68,144,2,123,4
124,54,2,33,4
46,282,2,19,4
36,243,2,212,4
189,292,2,11,4
28,266,2,254,4
174,104,2,0,4
300,551,2,10,4
271,419,2,277,4
87,284,2,12,4
20,268,2,240,4
145,116,2,18,4
60,198,2,158,4
135,51,2,139,4
168,262,2,137,4
7,201,2,91,4
31,25,2,14,4
1,185,2,173,4
4,195,2,168,4
141,262,2,8,4
62,107,2,475,4
215,200,1,28,4
11,219,2,654,4
172,14,2,99,4
22,69,2,179,4
152,16,2,64,4
83,55,2,13,4
152,411,2,319,4
96,187,2,127,4
95,239,2,122,4
3,219,2,117,4
135,76,2,15,4
53,72,2,153,4
85,303,2,177,4
74,87,2,13,4
25,251,2,204,4
62,31,2,20,4
210,427,2,242,4
13,227,2,111,4
130,205,2,81,4
149,397,2,211,4
144,123,2,201,4
62,312,2,25,4
191,89,2,229,4
108,215,2,189,4
48,106,2,173,4
40,14,2,75,4
25,192,2,234,4
211,6,2,50,4
340,417,2,51,4
166,413,2,163,4
57,14,2,0,4
16,222,2,152,4
216,75,2,144,4
43,119,2,157,4
17,214,2,30,4
167,134,2,131,4
203,383,2,30,4
189,28,2,237,4
252,397,2,157,4
12,205,2,50,4
111,103,2,112,4
14,171,2,27,4
10,89,2,158,4
104,245,2,90,4
2,210,2,129,4
26,46,2,188,4
20,179,2,419,4
15,182,2,65,4
235,327,2,334,4
6,267,2,77,4
131,141,2,65,4
141,437,2,398,4
17,240,2,95,4
37,132,2,207,4
38,240,2,10,4
35,125,2,106,4
67,355,2,156,4
121,100,2,171,4
213,309,2,46,4
187,380,2,334,4
63,34,2,58,4
159,344,2,282,4
159,21,2,431,4
330,496,2,296,4
91,142,2,384,4
326,333,2,300,4
98,373,2,54,4
153,58,2,187,4
203,349,2,0,4
132,448,2,316,4
258,337,1,48,4
47,103,2,128,4
252,189,2,90,4
365,465,2,201,4
4,121,2,21,4
80,239,2,132,4
169,479,2,289,4
225,317,2,243,4
123,14,2,278,4
86,303,2,32,4
26,128,2,178,4
295,468,2,196,4
275,118,2,507,4
442,554,1,143,4
2,348,2,275,4
210,177,2,153,4
175,339,2,85,4
52,186,2,463,4
216,152,2,97,4
119,430,2,448,4
69,41,2,100,4
82,204,2,140,4
71,65,2,336,4
291,379,2,65,4
210,122,2,453,4
134,204,2,78,4
300,489,2,7,4
70,66,2,40,4
299,396,2,199,4
176,71,2,71,4
172,154,3,833,4
339,212,2,270,4
294,119,2,834,4
392,218,1,19,4
153,66,2,709,4
228,235,2,197,4
405,590,2,754,4
256,163,1,353,4
483,405,583,1023,4
255,216,78,521,4
121,351,11,670,4
143,771,1,658,4
7,7,1,560,4
114,347,2,814,4
10,91,2,679,4
248,43,2,426,4
45,220,2,756,4
102,129,2,250,4
191,149,2,501,4
168,273,2,48,4
252,163,2,332,4
228,61,2,119,4
196,15,2,206,4
130,359,2,208,4
386,242,2,122,4
265,97,2,302,4
641,293,2,471,4
246,9,2,631,4
517,618,2,895,4
295,537,2,505,4
363,256,2,331,4
36,209,2,801,4
64,144,2,261,4
19,319,2,679,4
314,496,2,335,4
240,19,2,51,4
289,648,2,259,4
278,173,2,323,4
264,506,2,149,4
454,55,3,748,4
422,202,2,79,4
113,25,2,431,4
60,32,2,149,4
560,574,2,276,4
243,335,2,73,4
195,120,2,716,4
100,491,2,478,4
202,280,2,601,4
337,496,2,574,4
264,290,2,659,4
123,303,2,186,4
194,224,3,924,4
22,779,2,136,4
153,296,2,565,4
485,451,2,243,4
290,119,2,67,4
524,597,2,62,4
110,500,2,97,4
47,242,2,130,4
286,177,3,975,4
671,576,1,83,4
51,417,640,1023,4
524,320,224,404,4
279,477,356,1023,4
231,31,60,444,4
214,294,250,1023,4
31,82,27,165,4
5,78,2,790,4
125,16,1,342,4
16,358,2,166,4
417,225,2,409,4
158,180,2,115,4
218,243,2,424,4
221,674,2,362,4
170,700,2,373,4
393,80,2,83,4
47,338,2,253,4
349,455,1,0,4
77,70,2,355,4
209,28,2,409,4
948,363,2,249,4
145,155,2,331,4
130,203,2,300,4
460,443,2,523,4
90,18,2,332,4
600,223,3,838,4
163,301,2,41,4
188,115,2,456,4
194,412,2,9,4
415,827,2,33,4
596,119,2,81,4
309,194,2,561,4
268,127,2,354,4
472,374,2,595,4
126,204,2,287,4
67,144,3,665,4
310,219,2,475,4
171,373,2,296,4
151,261,2,239,4
19,254,2,229,4
171,35,2,4,4
216,36,2,356,4
362,18,2,126,4
10,199,2,455,4
455,88,2,160,4
202,75,2,138,4
438,555,2,13,4
190,397,2,324,4
412,13,2,382,4
151,80,2,516,4
483,230,2,396,4
269,479,3,942,4
280,94,2,445,4
600,310,2,280,4
221,94,2,112,4
614,585,2,429,4
178,222,2,296,4
23,460,2,101,4
138,14,2,155,4
359,620,2,102,4
310,162,2,12,4
436,343,2,135,4
60,23,2,54,4
483,339,2,118,4
241,306,2,461,4
437,290,2,146,4
115,654,2,585,4
654,111,2,19,4
198,204,2,397,4
250,147,2,65,4
199,163,2,309,4
244,239,2,643,4
594,310,2,269,4
135,56,2,563,4
661,614,2,151,4
124,130,2,581,4
239,596,2,68,4
45,155,2,398,4
237,705,2,525,4
66,190,2,72,4
363,282,644,1023,4
740,536,375,553,4
40,328,311,1023,4
1023,514,312,190,4
130,352,91,1023,4
565,323,115,135,4
218,306,539,1023,4
104,111,176,28,4
239,42,33,521,4
40,18,1,887,4
475,421,1,34,4
124,66,2,821,4
282,289,1,206,4
22,38,3,1016,4
10,401,1,303,4
568,43,3,723,4
187,426,266,1023,4
622,283,133,319,4
95,627,444,1023,4
62,176,241,24,4
212,125,45,484,4
303,9,4,47,4
217,265,2,220,4
90,146,2,285,4
37,219,2,64,4
149,108,2,105,4
133,42,3,761,4
206,20,3,936,4
198,312,2,317,4
371,12,382,1023,4
613,417,111,608,4
157,384,17,579,4
241,118,8,1023,4
449,672,301,697,4
37,179,70,614,4
437,245,97,1023,4
55,408,138,158,4
60,121,22,701,4
52,421,536,1023,4
326,719,75,586,4
235,32,12,711,4
258,424,1,1023,4
557,118,129,494,4
112,115,591,1023,4
40,406,396,202,4
114,181,340,1023,4
486,495,267,511,4
190,349,363,1023,4
382,456,155,669,4
50,170,26,520,4
79,50,201,1023,4
297,324,98,350,4
79,272,344,1023,4
656,548,139,558,4
326,476,255,824,4
405,254,506,1023,4
265,476,325,268,4
394,143,62,1023,4
528,486,45,95,4
108,95,5,114,4
523,311,1,108,4
19,322,2,150,4
682,233,3,404,4
367,386,2,26,4
167,158,2,24,4
44,68,3,907,4
255,125,2,343,4
21,65,2,511,4
45,78,2,271,4
118,189,2,552,4
212,114,2,165,4
134,258,2,552,4
160,164,2,360,4
35,172,2,677,4
302,22,2,3,4
148,25,2,402,4
193,318,2,216,4
180,267,2,196,4
1,215,2,130,4
127,43,2,237,4
158,142,3,649,4
174,282,2,36,4
13,167,2,353,4
158,274,2,127,4
153,274,2,286,4
98,52,2,111,4
107,280,2,333,4
7,150,2,1,4
102,217,2,221,4
32,211,2,169,4
58,58,2,99,4
51,155,2,113,4
65,189,2,331,4
356,421,2,87,4
315,497,2,228,4
163,198,2,174,4
9,181,2,205,4
17,14,2,20,4
185,315,2,306,4
142,387,2,31,4
25,33,2,121,4
122,305,2,58,4
18,124,2,527,4
216,364,2,348,4
111,287,2,621,4
189,116,2,129,4
222,328,2,404,4
4,79,2,329,4
178,262,2,262,4
106,115,2,199,4
3,101,2,284,4
62,179,2,190,4
192,455,2,118,4
43,45,2,178,4
13,198,2,90,4
46,69,2,12,4
169,162,2,15,4
228,63,2,528,4
158,254,2,192,4
186,28,2,737,4
360,398,2,534,4
62,252,2,469,4
195,160,2,321,4
182,235,2,433,4
264,207,2,455,4
201,35,2,373,4
55,17,2,641,4
185,239,2,83,4
216,338,2,51,4
165,117,2,330,4
114,194,2,101,4
19,240,2,406,4
127,66,2,16,4
30,116,2,599,4
147,8,2,363,4
294,115,2,241,4
276,149,2,573,4
371,317,2,235,4
288,279,2,367,4
263,346,2,605,4
12,226,2,27,4
18,164,2,567,4
76,88,2,140,4
0,221,2,613,4
141,403,2,117,4
140,35,2,269,4
358,609,2,235,4
269,450,2,314,4
264,313,2,138,4
8,177,2,339,4
346,380,2,305,4
165,144,2,34,4
139,146,2,474,4
345,208,2,317,4
56,103,2,96,4
83,147,2,228,4
0,186,2,371,4
221,48,2,35,4
377,748,3,369,4
145,324,2,0,4
1,124,2,223,4
140,262,2,444,4
212,52,2,159,4
310,386,2,348,4
388,536,2,215,4
281,122,2,97,4
238,370,2,434,4
239,153,2,45,4
392,408,2,133,4
131,265,2,63,4
109,227,2,324,4
209,551,2,490,4
365,39,2,137,4
443,556,2,518,4
135,274,2,103,4
50,88,2,158,4
108,86,2,168,4
43,100,2,5,4
112,198,2,379,4
273,416,2,137,4
71,80,2,73,4
20,12,2,26,4
248,169,2,0,4
366,217,2,34,4
41,133,2,162,4
45,45,2,35,4
109,320,2,505,4
5,45,2,18,4
20,87,2,166,4
178,213,2,55,4
19,89,2,47,4
177,235,2,140,4
6,46,2,398,4
324,469,2,367,4
20,208,2,473,4
173,331,2,448,4
96,328,1,25,4
172,274,2,101,4
164,251,2,87,4
198,312,2,281,4
114,42,2,0,4
114,146,2,269,4
123,78,2,46,4
92,113,2,139,4
117,10,2,26,4
99,65,2,24,4
155,259,2,222,4
120,200,2,80,4
278,354,2,92,4
77,12,2,612,4
392,329,2,49,4
92,147,2,791,4
162,29,2,144,4
33,299,2,83,4
2,170,2,137,4
84,63,2,42,4
208,364,2,294,4
80,48,2,0,4
38,266,2,88,4
38,147,2,148,4
62,40,2,26,4
63,65,2,144,4
214,57,2,11,4
47,105,2,160,4
60,131,2,128,4
24,39,2,26,4
1,207,2,317,4
238,75,2,0,4
279,417,2,312,4
118,339,2,0,4
121,83,2,26,4
109,347,2,249,4
133,7,2,39,4
270,401,2,88,4
75,76,2,78,4
81,112,2,7,4
40,234,2,193,4
71,60,2,18,4
99,234,2,147,4
10,162,2,253,4
88,132,2,155,4
28,162,2,204,4
58,248,2,112,4
89,172,2,14,4
87,62,2,30,4
3,83,2,81,4
137,269,2,133,4
231,422,2,178,4
142,314,2,150,4
111,335,2,173,4
132,174,2,80,4
79,46,2,32,4
135,21,2,196,4
385,554,2,0,4
167,368,2,327,4
141,196,2,0,4
191,408,2,339,4
227,114,2,77,4
202,362,2,299,4
204,93,2,139,4
8,64,2,111,4
50,65,2,135,4
131,115,2,65,4
264,466,2,124,4
75,119,2,268,4
248,309,2,68,4
101,253,2,180,4
259,165,2,21,4
211,352,2,134,4
111,218,2,254,4
134,242,2,0,4
81,269,2,298,4
78,38,2,38,4
119,261,2,164,4
35,18,2,79,4
35,6,2,128,4
12,70,2,14,4
9,82,2,131,4
131,313,2,157,4
70,142,2,5,4
295,275,2,284,4
138,340,2,167,4
11,89,2,58,4
207,397,2,77,4
39,208,2,57,4
15,52,2,218,4
222,327,2,379,4
19,99,2,145,4
473,592,2,461,4
30,325,2,28,4
138,196,2,368,4
161,373,2,73,4
304,400,2,196,4
18,144,2,129,4
108,390,2,172,4
155,242,2,404,4
235,483,2,96,4
34,85,2,320,4
39,68,2,286,4
108,90,2,176,4
304,387,2,252,4
125,13,2,377,4
317,356,2,182,4
537,651,2,198,4
151,278,2,164,4
68,63,2,0,4
166,353,2,136,4
17,281,2,589,4
198,261,2,234,4
138,54,2,248,4
75,84,2,0,4
205,285,2,438,4
218,278,2,604,4
163,223,2,292,4
127,80,2,360,4
373,435,2,336,4
117,357,2,418,4
396,385,2,693,4
96,356,2,398,4
181,355,2,227,4
291,133,2,66,4
187,405,2,316,4
579,330,2,694,4
273,598,2,738,4
856,335,3,978,4
39,405,190,960,4
603,75,84,462,4
133,107,12,779,4
22,58,1,15,4
746,294,2,134,4
103,31,3,853,4
600,478,2,106,4
446,118,2,793,4
1023,611,2,475,4
324,166,175,1010,4
622,482,37,84,4
192,257,3,691,4
20,228,1,145,4
61,8,3,1016,4
22,43,2,468,4
91,274,2,718,4
716,295,2,83,4
304,240,2,288,4
293,197,2,290,4
216,629,2,269,4
59,36,2,361,4
412,314,2,731,4
341,429,1,53,4
6,155,2,585,4
207,167,2,110,4
177,71,2,339,4
516,605,2,263,4
33,95,2,467,4
575,709,2,235,4
111,256,2,746,4
609,514,2,356,4
198,484,2,816,4
527,43,2,458,4
230,335,2,921,4
521,51,2,356,4
452,429,1,596,4
248,157,2,234,4
136,144,2,562,4
451,653,2,715,4
212,22,2,593,4
187,374,2,514,4
65,26,2,650,4
246,522,2,325,4
189,47,2,281,4
595,383,2,444,4
185,311,2,132,4
596,385,2,443,4
398,83,2,155,4
47,209,2,236,4
308,170,2,159,4
224,315,2,390,4
370,32,2,93,4
229,113,2,510,4
24,130,2,402,4
6,501,2,202,4
281,294,2,440,4
73,252,2,295,4
781,708,2,223,4
271,43,2,410,4
614,479,2,89,4
107,90,2,688,4
203,129,2,826,4
64,142,1,585,4
326,283,620,1023,4
52,29,430,458,4
179,289,112,942,4
35,151,25,968,4
622,492,16,757,4
145,43,1,268,4
10,206,2,235,4
9,63,2,419,4
691,262,2,273,4
268,503,3,736,4
564,715,3,767,4
475,563,2,363,4
135,40,2,600,4
494,435,2,80,4
38,346,2,14,4
482,188,2,109,4
110,111,2,138,4
725,324,2,123,4
392,786,2,444,4
618,222,2,139,4
261,453,2,58,4
15,344,2,102,4
41,147,2,276,4
187,113,2,117,4
207,55,2,207,4
181,167,2,252,4
12,75,2,232,4
557,803,2,236,4
337,308,2,20,4
232,88,2,460,4
95,175,2,235,4
102,180,2,352,4
169,19,2,203,4
32,20,2,909,4
50,31,2,521,4
28,685,2,698,4
600,455,2,256,4
592,319,643,1023,4
605,462,120,32,4
18,248,19,958,4
1023,407,1,364,4
761,766,1,415,4
247,112,2,47,4
570,745,2,406,4
143,321,2,199,4
36,249,2,94,4
45,327,2,507,4
338,164,2,118,4
274,252,2,371,4
75,137,2,37,4
66,66,2,305,4
110,442,2,170,4
786,628,2,94,4
891,415,2,150,4
104,90,2,555,4
107,41,2,343,4
313,154,2,409,4
240,334,2,269,4
108,287,2,608,4
65,128,2,366,4
289,562,2,447,4
292,693,2,646,4
522,417,1,37,4
5,783,2,154,4
330,135,2,658,4
487,164,2,45,4
421,431,2,612,4
297,86,2,158,4
298,201,2,234,4
71,9,2,404,4
153,18,2,374,4
412,37,2,277,4
70,171,2,81,4
118,364,2,292,4
402,433,2,88,4
295,160,2,189,4
633,359,2,379,4
296,240,2,19,4
311,381,2,300,4
151,351,2,558,4
74,54,2,224,4
264,194,2,178,4
234,48,3,893,4
531,404,2,25,4
102,220,2,858,4
149,560,201,558,4
496,36,54,537,4
49,63,6,24,4
20,180,2,487,4
413,36,20,1023,4
308,70,156,220,4
16,98,30,450,4
460,375,3,213,4
108,100,2,590,4
34,39,2,68,4
130,219,2,311,4
14,141,2,123,4
91,31,2,26,4
215,455,2,1023,4
245,11,185,506,4
82,70,297,1023,4
586,277,219,2,4
14,169,39,980,4
222,382,3,165,4
101,13,2,263,4
228,35,3,786,4
118,217,2,35,4
20,186,3,683,4
13,116,2,182,4
32,88,2,328,4
128,143,2,94,4
167,141,2,691,4
201,359,2,79,4
95,230,549,1023,4
352,247,187,238,4
164,70,36,814,4
176,239,3,202,4
136,363,1,212,4
86,267,613,1023,4
328,532,215,265,4
17,215,587,1023,4
501,414,254,339,4
391,297,50,103,4
470,524,4,342,4
209,9,2,472,4
272,237,2,168,4
9,96,3,290,4
91,110,2,177,4
91,225,2,575,4
280,230,2,539,4
7,113,3,835,4
225,130,2,312,4
71,141,2,458,4
18,145,2,79,4
206,70,2,83,4
201,171,2,47,4
245,433,2,40,4
253,71,2,351,4
218,241,2,190,4
172,72,2,34,4
328,474,2,91,4
79,244,2,441,4
43,29,2,6,4
52,179,2,196,4
85,45,2,62,4
224,386,3,1023,4
14,142,2,118,4
188,290,4,1023,4
102,297,1,10,4
122,193,2,314,4
42,249,2,188,4
221,273,2,0,4
162,74,2,58,4
378,557,2,233,4
104,244,2,45,4
105,302,2,294,4
27,25,2,172,4
52,93,2,112,4
78,207,2,0,4
15,17,2,171,4
55,157,2,79,4
50,122,2,355,4
279,234,2,335,4
92,275,2,267,4
237,112,2,287,4
52,261,2,175,4
5,162,2,55,4
95,90,2,0,4
2,20,2,0,4
85,38,2,386,4
255,314,2,33,4
277,421,2,228,4
354,235,2,82,4
266,369,2,0,4
130,135,2,380,4
453,499,2,48,4
5,59,2,443,4
189,125,2,83,4
350,419,2,258,4
101,40,2,504,4
287,458,2,448,4
66,207,2,444,4
256,423,2,316,4
403,566,2,69,4
127,67,2,246,4
402,485,2,243,4
94,32,2,351,4
26,19,2,331,4
200,204,2,199,4
82,34,3,742,4
251,140,2,522,4
78,295,2,341,4
98,132,2,475,4
266,672,2,19,4
50,57,3,484,4
313,353,1,0,4
15,148,2,5,4
209,168,2,162,4
225,371,2,525,4
60,31,2,288,4
23,207,2,441,4
117,196,2,219,4
52,226,2,292,4
263,157,2,714,4
271,199,2,333,4
200,100,2,570,4
386,412,2,189,4
199,193,2,182,4
138,175,2,29,4
243,193,2,97,4
335,434,2,312,4
187,166,2,302,4
180,277,2,239,4
99,242,2,36,4
121,219,2,80,4
319,286,2,324,4
99,122,2,159,4
362,416,2,458,4
0,200,2,0,4
230,256,2,8,4
220,387,2,4,4
178,254,2,233,4
167,266,2,52,4
216,332,2,61,4
78,241,2,274,4
641,425,2,1,4
142,216,2,55,4
421,264,2,52,4
87,148,2,23,4
218,161,2,37,4
276,385,2,124,4
349,454,2,8,4
344,223,2,0,4
463,495,2,191,4
161,100,2,69,4
260,346,2,212,4
67,151,2,1,4
191,271,2,122,4
95,218,2,238,4
242,225,2,105,4
50,229,2,184,4
148,107,2,28,4
134,279,2,75,4
136,313,2,292,4
151,61,2,338,4
232,379,2,415,4
124,113,2,226,4
498,495,2,316,4
220,160,2,12,4
177,211,2,25,4
56,108,2,70,4
105,74,2,465,4
443,469,2,290,4
377,567,2,307,4
20,181,2,29,4
106,168,2,341,4
21,218,2,180,4
35,119,2,330,4
133,327,2,125,4
251,176,2,63,4
302,518,2,238,4
77,135,2,119,4
159,254,2,302,4
120,123,2,105,4
226,221,2,255,4
103,259,2,5,4
94,195,2,4,4
33,16,2,176,4
44,303,2,199,4
48,107,2,140,4
217,271,2,283,4
49,49,2,202,4
145,259,2,222,4
38,151,2,101,4
108,130,2,0,4
4,196,2,303,4
24,113,2,163,4
97,16,2,418,4
43,163,2,55,4
110,152,2,124,4
4,149,2,95,4
22,161,2,0,4
52,66,2,137,4
146,212,2,89,4
97,41,2,120,4
325,408,2,22,4
231,399,2,238,4
237,225,2,160,4
184,406,2,11,4
152,75,2,0,4
199,337,2,88,4
51,234,2,147,4
214,193,2,105,4
71,235,2,81,4
34,20,2,86,4
138,234,2,207,4
89,7,2,53,4
133,144,2,175,4
14,142,2,187,4
182,29,3,541,4
270,509,2,585,4
115,29,2,100,4
292,404,2,405,4
110,190,2,97,4
3,31,2,86,4
6,90,2,6,4
37,33,2,150,4
182,218,2,27,4
19,105,2,202,4
283,256,2,42,4
198,295,2,130,4
72,128,2,105,4
220,281,2,86,4
144,265,2,92,4
65,31,2,0,4
183,320,2,214,4
82,53,2,3,4
189,238,2,48,4
77,254,2,152,4
88,16,2,12,4
207,364,2,100,4
74,191,2,55,4
184,277,2,83,4
271,373,2,186,4
7,95,2,76,4
264,288,2,205,4
153,211,2,37,4
111,162,2,77,4
13,113,2,110,4
117,142,2,16,4
169,372,2,161,4
30,184,2,100,4
280,367,2,104,4
83,158,2,188,4
22,8,2,0,4
30,76,2,156,4
60,50,2,88,4
107,131,2,104,4
85,156,2,143,4
103,207,2,0,4
3,87,2,146,4
94,58,2,69,4
222,273,2,97,4
98,230,2,116,4
54,69,2,15,4
169,306,1,176,4
163,59,2,35,4
310,391,2,108,4
22,119,2,138,4
149,92,2,12,4
245,457,2,80,4
9,147,2,86,4
188,257,2,89,4
45,53,2,116,4
71,11,2,0,4
48,127,2,153,4
26,76,2,79,4
69,137,2,69,4
111,264,2,122,4
34,88,2,0,4
93,133,2,270,4
105,193,2,57,4
197,251,2,87,4
10,94,2,132,4
19,14,2,0,4
181,260,2,153,4
41,110,2,83,4
108,173,2,84,4
128,176,2,152,4
34,12,2,0,4
455,530,2,116,4
117,206,2,74,4
206,309,2,84,4
